0.000:808
0.001:846
0.001:658
0.001:415
0.002:276
0.002:17
0.002:18
0.003:177
0.003:486
0.004:985
0.004:971
0.004:906
0.005:774
0.005:694
0.005:592
0.005:592
0.005:114
0.005:18
0.005:121
0.005:208
0.006:710
0.006:811
0.006:849
0.006:679
0.006:394
0.006:229
0.006:17
0.006:18
0.006:234
0.006:558
0.007:988
0.007:989
0.007:908
0.007:807
0.007:717
0.007:579
0.007:106
0.007:17
0.008:92
0.015:199
0.015:749
0.015:837
0.015:825
0.015:632
0.015:410
0.016:263
0.016:17
0.016:17
0.016:294
0.016:592
0.016:987
0.016:971
0.016:882
0.016:794
0.017:712
0.017:511
0.017:55
0.017:18
0.017:57
0.017:191
0.017:744
0.017:837
0.017:867
0.017:681
0.018:424
0.018:243
0.018:17
0.018:17
0.018:353
0.018:615
0.018:988
0.018:989
0.018:890
0.019:899
0.019:764
0.019:764
0.019:528
0.019:37
0.019:17
0.019:53
0.019:233
0.019:714
0.020:802
0.020:811
0.020:611
0.020:380
0.020:193
0.020:17
0.020:17
0.020:313
0.020:603
0.020:988
0.021:957
0.021:869
0.021:813
0.021:689
0.021:469
0.021:19
0.021:17
0.022:134
0.022:254
0.022:728
0.022:839
0.022:792
0.022:538
0.022:353
0.022:178
0.022:17
0.022:17
0.023:346
0.023:637
0.023:989
0.023:932
0.023:849
0.023:836
0.023:683
0.023:409
0.023:18
0.024:17
0.024:139
0.024:273
0.024:815
0.024:872
0.024:821
0.024:603
0.031:392
0.031:155
0.031:17
0.031:17
0.032:401
0.032:660
0.032:988
0.032:951
0.032:900
0.033:805
0.033:805
0.033:690
0.033:397
0.033:17
0.034:17
0.034:147
0.034:284
0.034:785
0.034:855
0.034:805
0.035:511
0.035:320
0.035:128
0.035:17
0.036:34
0.036:430
0.036:719
0.036:989
0.036:941
0.037:861
0.037:860
0.037:673
0.037:330
0.037:17
0.038:17
0.038:155
0.038:304
0.039:792
0.039:811
0.039:779
0.039:521
0.039:321
0.039:106
0.040:17
0.040:38
0.040:381
0.040:756
0.040:989
0.050:967
0.050:816
0.050:787
0.052:615
0.052:299
0.053:17
0.053:17
0.053:130
0.053:305
0.053:764
0.054:849
0.054:726
0.054:467
0.054:323
0.054:85
0.054:17
0.054:117
0.055:479
0.055:820
0.055:989
0.055:943
0.055:921
0.055:921
0.056:861
0.056:672
0.056:288
0.056:17
0.056:27
0.056:159
0.056:367
0.056:794
0.057:840
0.057:718
0.057:476
0.057:297
0.057:39
0.057:18
0.057:130
0.058:459
0.058:759
0.058:989
0.066:933
0.068:870
0.068:802
0.069:615
0.069:226
0.071:17
0.071:51
0.072:137
0.072:379
0.072:828
0.072:835
0.072:723
0.073:458
0.073:278
0.073:41
0.073:18
0.074:162
0.074:441
0.074:874
0.074:989
0.083:918
0.083:841
0.084:750
0.084:580
0.084:191
0.084:17
0.084:47
0.084:152
0.085:454
0.085:789
0.085:835
0.085:700
0.085:453
0.086:277
0.086:22
0.086:18
0.086:251
0.086:541
0.087:955
0.087:989
0.087:950
0.087:950
0.087:953
0.088:850
0.088:682
0.088:216
0.088:17
0.088:57
0.089:165
0.089:563
0.089:859
0.089:890
0.089:714
0.090:436
0.090:297
0.090:23
0.090:17
0.090:296
0.090:578
0.090:989
0.091:989
0.091:950
0.091:895
0.091:797
0.097:591
0.100:144
0.101:17
0.101:82
0.101:181
0.101:641
0.101:837
0.101:866
0.101:729
0.102:482
0.102:290
0.102:18
0.102:17
0.102:218
0.102:523
0.102:989
0.103:954
0.103:904
0.103:739
0.103:662
0.103:544
0.103:73
0.103:17
0.103:110
0.103:190
0.103:656
0.104:774
0.104:781
0.104:589
0.104:349
0.104:211
0.104:17
0.104:18
0.104:270
0.105:513
0.105:989
0.105:944
0.105:944
0.106:874
0.106:927
0.106:739
0.106:515
0.107:48
0.107:18
0.107:68
0.107:175
0.107:731
0.107:800
0.108:815
0.115:600
0.116:367
0.116:211
0.116:17
0.117:18
0.117:275
0.117:489
0.117:989
0.117:911
0.117:834
0.117:729
0.117:654
0.117:484
0.118:27
0.118:18
0.118:44
0.118:176
0.118:708
0.118:792
0.118:861
0.118:562
0.118:344
0.119:195
0.119:18
0.119:17
0.119:277
0.119:570
0.119:989
0.119:960
0.119:863
0.119:793
0.120:640
0.120:449
0.120:17
0.120:17
0.120:85
0.120:194
0.120:685
0.120:770
0.120:800
0.121:564
0.121:335
0.121:148
0.121:17
0.121:17
0.121:302
0.121:636
0.121:988
0.122:988
0.122:935
0.122:819
0.122:831
0.122:667
0.122:412
0.122:17
0.123:17
0.123:24
0.123:201
0.123:678
0.123:737
0.123:747
0.123:484
0.123:267
0.123:94
0.124:18
0.124:17
0.124:285
0.124:618
0.124:982
0.124:905
0.124:800
0.130:741
0.133:674
0.133:414
0.133:23
0.133:67
0.133:230
0.133:382
0.134:941
0.134:989
0.134:989
0.134:829
0.134:665
0.134:494
0.134:272
0.134:469
0.135:882
0.135:986
0.135:981
0.135:982
0.135:982
0.135:983
0.135:984
0.135:988
0.135:686
0.136:643
0.136:768
0.136:906
0.136:985
0.136:984
0.136:985
0.136:989
0.136:797
0.136:547
0.137:279
0.137:505
0.137:811
0.137:989
0.137:989
0.137:985
0.137:987
0.137:989
0.138:842
0.138:638
0.138:258
0.138:18
0.138:18
0.138:17
0.138:93
0.138:541
0.138:631
0.138:564
0.139:279
0.139:93
0.139:18
0.139:19
0.139:17
0.139:230
0.139:566
0.139:834
0.139:725
0.140:638
0.140:550
0.140:466
0.140:107
0.140:18
0.140:18
0.140:17
0.140:214
0.140:710
0.141:811
0.141:695
0.141:418
0.141:266
0.141:17
0.146:18
0.149:116
0.149:381
0.149:693
0.149:938
0.149:872
0.149:780
0.149:645
0.149:503
0.149:156
0.150:18
0.150:17
0.150:75
0.150:334
0.150:762
0.150:769
0.150:652
0.150:364
0.150:236
0.151:17
0.151:18
0.151:70
0.151:426
0.151:426
0.151:820
0.152:965
0.152:859
0.152:801
0.152:706
0.152:517
0.152:147
0.152:18
0.152:27
0.152:128
0.153:421
0.153:776
0.153:800
0.153:644
0.154:383
0.154:235
0.154:17
0.154:18
0.154:121
0.154:454
0.155:880
0.155:989
0.155:875
0.155:824
0.155:699
0.156:565
0.156:171
0.156:18
0.156:62
0.156:175
0.157:505
0.157:843
0.157:814
0.157:679
0.157:432
0.158:259
0.162:17
0.164:18
0.165:250
0.165:517
0.165:975
0.165:989
0.165:942
0.165:892
0.165:785
0.165:570
0.165:127
0.166:18
0.166:55
0.166:152
0.166:560
0.166:803
0.166:862
0.166:659
0.166:408
0.166:263
0.167:17
0.167:18
0.167:336
0.167:336
0.167:608
0.167:988
0.167:989
0.167:912
0.167:783
0.168:675
0.168:591
0.168:133
0.168:18
0.168:51
0.168:172
0.168:635
0.168:834
0.169:882
0.169:686
0.169:417
0.169:254
0.169:17
0.169:17
0.169:291
0.169:568
0.169:988
0.169:989
0.170:909
0.170:803
0.170:698
0.170:542
0.170:106
0.170:17
0.170:140
0.170:239
0.171:762
0.171:856
0.171:863
0.171:657
0.171:453
0.171:270
0.171:17
0.171:17
0.171:360
0.171:623
0.172:987
0.172:988
0.172:953
0.172:866
0.172:753
0.172:554
0.172:109
0.172:17
0.172:136
0.173:214
0.173:807
0.173:895
0.173:896
0.173:691
0.173:460
0.173:286
0.173:18
0.173:17
0.174:17
0.174:330
0.174:650
0.174:987
0.174:989
0.174:989
0.174:962
0.176:842
0.181:551
0.181:108
0.181:23
0.181:258
0.181:328
0.181:853
0.181:971
0.181:911
0.182:691
0.182:491
0.182:297
0.182:26
0.182:34
0.182:405
0.182:674
0.182:987
0.182:988
0.183:989
0.183:913
0.183:786
0.183:567
0.183:132
0.183:101
0.183:317
0.183:382
0.183:926
0.184:983
0.184:936
0.184:716
0.184:504
0.184:309
0.185:28
0.185:78
0.185:498
0.185:831
0.185:986
0.185:988
0.186:990
0.186:873
0.186:816
0.186:597
0.186:149
0.187:147
0.187:318
0.187:399
0.187:951
0.187:989
0.188:981
0.188:735
0.188:517
0.188:329
0.188:48
0.189:48
0.189:142
0.189:539
0.189:797
0.189:986
0.189:988
0.190:989
0.190:969
0.190:803
0.190:526
0.190:114
0.191:131
0.191:299
0.198:427
0.198:958
0.198:989
0.199:936
0.199:645
0.199:449
0.199:259
0.199:21
0.199:160
0.199:529
0.199:763
0.199:987
0.200:989
0.200:989
0.200:921
0.200:754
0.200:432
0.200:30
0.200:87
0.200:228
0.200:396
0.201:882
0.201:945
0.201:841
0.201:540
0.201:353
0.201:111
0.201:18
0.201:97
0.201:435
0.202:722
0.202:989
0.202:901
0.202:815
0.202:803
0.202:651
0.202:294
0.202:17
0.202:22
0.203:130
0.203:286
0.203:747
0.203:787
0.203:713
0.203:409
0.203:266
0.203:18
0.203:18
0.204:18
0.204:17
0.204:291
0.204:642
0.204:924
0.204:811
0.204:798
0.204:759
0.204:535
0.205:133
0.205:18
0.205:17
0.205:20
0.205:226
0.205:680
0.205:739
0.205:623
0.205:352
0.205:184
0.206:17
0.206:18
0.206:17
0.206:345
0.206:716
0.206:897
0.206:794
0.206:698
0.206:528
0.207:462
0.207:66
0.207:18
0.207:18
0.207:17
0.207:247
0.207:652
0.207:711
0.207:572
0.207:238
0.209:125
0.214:18
0.214:18
0.214:17
0.215:336
0.215:779
0.215:887
0.215:809
0.215:770
0.215:633
0.215:460
0.215:46
0.216:18
0.216:17
0.216:17
0.216:334
0.216:693
0.216:749
0.216:618
0.216:324
0.216:185
0.217:185
0.217:17
0.217:18
0.217:73
0.217:384
0.217:787
0.217:841
0.217:793
0.217:730
0.218:605
0.218:511
0.218:62
0.218:18
0.218:17
0.218:77
0.218:479
0.218:746
0.218:767
0.218:594
0.219:316
0.219:147
0.219:18
0.219:18
0.219:104
0.219:429
0.219:892
0.219:908
0.219:789
0.220:716
0.220:583
0.220:437
0.220:18
0.220:18
0.220:17
0.220:94
0.220:520
0.220:751
0.221:744
0.221:598
0.221:356
0.221:172
0.221:17
0.221:18
0.222:178
0.222:443
0.222:990
0.222:901
0.222:820
0.222:779
0.222:676
0.222:474
0.223:24
0.223:18
0.223:18
0.223:108
0.223:632
0.223:750
0.223:763
0.223:556
0.223:326
0.224:326
0.224:181
0.224:17
0.224:18
0.227:217
0.231:536
0.231:988
0.231:949
0.231:891
0.231:844
0.232:686
0.232:494
0.232:22
0.232:18
0.232:17
0.232:120
0.232:662
0.232:782
0.232:802
0.233:641
0.233:368
0.233:182
0.233:17
0.233:17
0.233:250
0.233:548
0.233:989
0.233:933
0.234:829
0.234:807
0.234:677
0.234:478
0.234:20
0.234:17
0.234:55
0.234:164
0.234:673
0.235:795
0.235:814
0.235:602
0.235:359
0.235:154
0.235:18
0.235:17
0.235:288
0.235:536
0.236:989
0.236:942
0.236:826
0.236:750
0.236:649
0.236:451
0.236:17
0.236:17
0.236:100
0.237:212
0.237:748
0.237:809
0.237:824
0.237:591
0.237:591
0.237:358
0.238:178
0.238:18
0.238:17
0.238:334
0.238:577
0.238:989
0.238:933
0.238:842
0.238:786
0.239:683
0.239:391
0.239:17
0.239:18
0.239:66
0.239:233
0.239:782
0.239:834
0.239:769
0.240:517
0.240:339
0.240:120
0.240:18
0.240:17
0.240:374
0.240:650
0.240:988
0.240:932
0.241:838
0.241:695
0.247:608
0.247:335
0.248:17
0.248:17
0.248:84
0.248:257
0.248:760
0.248:843
0.249:806
0.249:527
0.249:345
0.249:140
0.249:18
0.249:23
0.249:356
0.249:666
0.249:988
0.250:946
0.250:879
0.250:727
0.250:664
0.250:351
0.250:17
0.250:17
0.250:80
0.250:268
0.250:775
0.251:819
0.251:782
0.251:782
0.251:498
0.251:333
0.251:101
0.251:17
0.251:54
0.251:400
0.252:730
0.252:988
0.252:977
0.252:845
0.252:766
0.252:680
0.252:323
0.252:17
0.252:17
0.253:138
0.253:318
0.253:768
0.253:820
0.253:721
0.253:446
0.253:307
0.253:77
0.253:17
0.253:60
0.254:416
0.254:779
0.254:989
0.254:936
0.254:864
0.254:827
0.254:644
0.254:255
0.255:17
0.255:23
0.255:191
0.255:369
0.255:815
0.255:827
0.255:672
0.255:427
0.255:269
0.256:50
0.256:17
0.256:76
0.256:467
0.256:827
0.256:989
0.256:913
0.256:858
0.256:762
0.256:662
0.257:242
0.257:17
0.257:96
0.257:197
0.257:407
0.257:816
0.257:883
0.257:883
0.262:733
0.264:492
0.264:326
0.264:33
0.265:18
0.265:150
0.265:498
0.265:861
0.265:989
0.265:888
0.265:824
0.265:764
0.265:637
0.266:220
0.266:17
0.266:83
0.266:185
0.266:466
0.266:835
0.266:823
0.266:693
0.266:432
0.266:271
0.267:27
0.267:18
0.267:186
0.267:515
0.267:933
0.267:989
0.267:935
0.267:889
0.267:775
0.268:575
0.268:149
0.268:17
0.268:80
0.268:169
0.268:480
0.268:834
0.268:846
0.268:694
0.269:441
0.269:261
0.269:17
0.269:18
0.269:262
0.269:476
0.269:955
0.269:989
0.269:949
0.270:902
0.270:803
0.270:586
0.270:145
0.270:17
0.270:83
0.270:203
0.270:596
0.270:825
0.270:825
0.271:844
0.271:633
0.271:391
0.271:275
0.271:17
0.271:17
0.271:194
0.271:528
0.272:989
0.272:982
0.272:925
0.272:817
0.272:706
0.272:520
0.272:82
0.272:18
0.272:101
0.273:224
0.273:755
0.273:885
0.273:889
0.273:707
0.273:433
0.273:244
0.273:17
0.273:17
0.273:295
0.274:554
0.274:988
0.274:983
0.274:913
0.275:828
0.280:713
0.281:509
0.281:67
0.281:17
0.281:151
0.281:227
0.281:747
0.282:860
0.282:842
0.282:653
0.282:410
0.282:262
0.282:17
0.282:17
0.282:282
0.282:581
0.283:988
0.283:978
0.283:908
0.283:848
0.283:688
0.283:510
0.283:48
0.283:17
0.283:129
0.284:231
0.284:788
0.284:788
0.284:842
0.284:860
0.284:646
0.284:376
0.284:218
0.284:17
0.284:17
0.285:284
0.285:556
0.285:988
0.285:965
0.285:886
0.285:803
0.285:681
0.285:464
0.286:31
0.286:17
0.286:158
0.286:231
0.286:770
0.286:871
0.286:849
0.286:607
0.286:395
0.287:203
0.287:17
0.287:17
0.287:358
0.287:671
0.287:988
0.287:989
0.287:880
0.287:870
0.287:735
0.288:473
0.288:26
0.288:18
0.288:135
0.288:288
0.288:746
0.288:805
0.288:804
0.288:565
0.289:369
0.289:191
0.289:17
0.289:17
0.289:322
0.289:680
0.289:988
0.289:952
0.289:909
0.290:779
0.290:685
0.290:445
0.290:17
0.290:32
0.290:163
0.290:272
0.290:272
0.290:779
0.290:826
0.291:814
0.297:521
0.298:344
0.298:150
0.298:17
0.298:17
0.298:425
0.298:715
0.299:988
0.299:989
0.299:898
0.299:846
0.299:684
0.299:370
0.299:17
0.299:46
0.299:170
0.300:319
0.300:793
0.300:852
0.300:812
0.300:537
0.300:348
0.300:125
0.300:18
0.300:83
0.300:445
0.301:758
0.301:988
0.301:941
0.301:828
0.301:782
0.301:667
0.301:340
0.301:17
0.301:18
0.302:176
0.302:325
0.302:765
0.302:845
0.302:789
0.302:543
0.302:389
0.302:126
0.303:17
0.303:189
0.303:480
0.303:734
0.303:989
0.303:937
0.303:862
0.303:891
0.303:718
0.303:326
0.304:17
0.304:19
0.304:156
0.304:156
0.304:394
0.304:776
0.304:840
0.304:749
0.304:505
0.305:327
0.305:82
0.305:17
0.305:167
0.305:454
0.305:833
0.305:989
0.305:939
0.305:925
0.306:822
0.306:673
0.306:277
0.306:17
0.306:47
0.306:192
0.306:433
0.306:818
0.306:889
0.306:772
0.307:492
0.307:315
0.307:83
0.307:17
0.307:219
0.307:544
0.307:871
0.314:989
0.314:965
0.314:924
0.315:836
0.315:606
0.315:235
0.315:17
0.315:109
0.315:210
0.315:503
0.315:818
0.315:853
0.316:691
0.316:474
0.316:333
0.316:79
0.316:17
0.316:221
0.316:543
0.316:937
0.316:989
0.317:947
0.317:944
0.317:881
0.317:654
0.317:203
0.317:17
0.317:75
0.317:75
0.317:227
0.317:599
0.318:856
0.318:910
0.318:719
0.318:451
0.318:309
0.318:53
0.318:17
0.318:338
0.318:622
0.319:989
0.319:988
0.319:954
0.319:913
0.319:781
0.319:643
0.319:205
0.319:17
0.319:104
0.320:217
0.320:626
0.320:826
0.320:874
0.320:709
0.320:471
0.320:301
0.320:54
0.320:17
0.320:351
0.321:596
0.321:989
0.321:989
0.321:936
0.321:891
0.321:788
0.321:630
0.321:180
0.322:17
0.322:84
0.322:239
0.322:706
0.322:855
0.322:882
0.322:720
0.322:432
0.322:265
0.323:17
0.323:17
0.323:306
0.323:563
0.323:989
0.323:989
0.323:924
0.323:843
0.323:724
0.323:524
0.324:88
0.324:17
0.324:17
0.324:94
0.326:212
0.330:724
0.331:824
0.331:837
0.331:613
0.332:400
0.332:227
0.332:17
0.332:17
0.332:382
0.333:599
0.333:987
0.333:989
0.333:905
0.334:815
0.334:719
0.334:548
0.334:85
0.334:17
0.334:106
0.334:243
0.335:779
0.335:850
0.335:856
0.335:638
0.335:394
0.335:212
0.335:17
0.336:17
0.336:399
0.336:609
0.336:988
0.336:989
0.336:927
0.336:880
0.336:742
0.337:496
0.337:45
0.337:17
0.337:86
0.337:202
0.337:706
0.337:840
0.337:823
0.337:601
0.338:390
0.338:224
0.338:17
0.338:18
0.338:449
0.338:658
0.338:988
0.338:989
0.338:892
0.339:850
0.339:702
0.339:457
0.339:25
0.339:25
0.339:17
0.339:98
0.339:263
0.339:776
0.339:832
0.340:832
0.340:553
0.340:339
0.340:196
0.340:18
0.340:19
0.340:378
0.340:636
0.344:989
0.347:933
0.348:827
0.348:737
0.348:630
0.348:375
0.348:17
0.348:17
0.348:54
0.348:229
0.348:744
0.349:813
0.349:796
0.349:472
0.349:375
0.349:209
0.349:17
0.349:160
0.349:543
0.350:816
0.350:986
0.350:987
0.350:987
0.350:987
0.350:989
0.350:754
0.350:356
0.350:393
0.351:573
0.351:771
0.351:985
0.351:984
0.351:984
0.351:986
0.351:988
0.351:890
0.352:641
0.352:799
0.352:988
0.352:984
0.352:980
0.352:982
0.352:983
0.353:984
0.353:985
0.353:937
0.353:937
0.353:505
0.353:510
0.353:622
0.353:762
0.354:987
0.354:987
0.354:989
0.354:730
0.354:470
0.354:167
0.354:18
0.354:16
0.355:311
0.355:600
0.355:929
0.355:779
0.355:732
0.355:640
0.355:508
0.355:132
0.355:18
0.356:18
0.356:17
0.356:165
0.356:683
0.356:721
0.356:587
0.357:272
0.357:156
0.357:17
0.357:19
0.357:17
0.357:342
0.362:709
0.364:985
0.364:890
0.364:851
0.365:773
0.365:637
0.365:215
0.365:18
0.365:17
0.365:123
0.365:311
0.365:747
0.366:805
0.366:721
0.366:447
0.366:298
0.366:20
0.366:18
0.366:113
0.366:441
0.366:830
0.367:989
0.367:879
0.367:818
0.367:697
0.367:590
0.367:590
0.367:173
0.367:18
0.367:37
0.368:170
0.368:424
0.368:818
0.368:848
0.368:730
0.368:387
0.368:242
0.368:17
0.368:17
0.369:123
0.369:404
0.369:876
0.369:989
0.369:873
0.369:818
0.369:773
0.369:560
0.370:133
0.370:17
0.370:64
0.370:145
0.370:451
0.370:839
0.370:843
0.370:714
0.371:458
0.371:273
0.371:20
0.371:18
0.371:224
0.371:538
0.371:929
0.372:971
0.372:878
0.372:851
0.372:707
0.372:563
0.372:121
0.373:17
0.373:76
0.373:191
0.373:603
0.373:853
0.373:898
0.373:721
0.373:446
0.373:305
0.374:31
0.374:17
0.374:306
0.381:554
0.381:988
0.381:989
0.381:935
0.381:867
0.381:724
0.381:724
0.382:544
0.382:118
0.382:17
0.382:79
0.382:206
0.382:652
0.383:841
0.383:855
0.383:668
0.383:439
0.383:285
0.383:20
0.383:17
0.383:351
0.384:603
0.384:987
0.384:988
0.384:955
0.384:896
0.384:759
0.384:578
0.384:129
0.384:17
0.385:84
0.385:242
0.385:768
0.385:869
0.385:874
0.385:657
0.385:414
0.385:306
0.385:22
0.386:17
0.386:362
0.386:599
0.386:987
0.386:989
0.386:932
0.386:973
0.386:836
0.387:568
0.387:127
0.387:17
0.387:153
0.387:257
0.387:802
0.388:924
0.388:904
0.388:696
0.388:470
0.388:293
0.388:18
0.388:24
0.388:390
0.388:672
0.389:986
0.389:988
0.389:976
0.389:960
0.389:960
0.389:800
0.389:606
0.389:133
0.389:17
0.390:188
0.390:326
0.390:838
0.390:928
0.390:920
0.390:680
0.390:470
0.393:275
0.397:24
0.398:83
0.398:489
0.398:729
0.398:987
0.398:988
0.398:989
0.398:839
0.398:783
0.399:608
0.399:183
0.399:83
0.399:264
0.399:409
0.399:888
0.399:981
0.399:946
0.400:777
0.400:571
0.400:374
0.400:83
0.400:191
0.400:577
0.400:786
0.400:986
0.401:987
0.401:989
0.401:989
0.401:864
0.401:579
0.401:149
0.401:97
0.401:290
0.401:448
0.402:920
0.402:989
0.402:951
0.402:725
0.402:550
0.403:350
0.403:89
0.403:281
0.403:580
0.403:883
0.403:986
0.403:987
0.403:989
0.404:989
0.404:989
0.404:858
0.404:552
0.404:137
0.404:92
0.404:279
0.404:445
0.404:936
0.405:989
0.405:990
0.405:723
0.405:538
0.405:310
0.405:96
0.405:291
0.405:645
0.406:989
0.406:985
0.406:987
0.406:989
0.406:928
0.406:855
0.406:523
0.406:126
0.407:138
0.407:294
0.407:479
0.407:935
0.407:980
0.411:942
0.414:636
0.414:467
0.414:241
0.415:25
0.415:239
0.415:555
0.415:904
0.415:987
0.415:989
0.415:917
0.415:897
0.416:708
0.416:353
0.416:17
0.416:115
0.416:220
0.416:404
0.416:831
0.416:875
0.417:777
0.417:490
0.417:336
0.417:81
0.417:17
0.417:100
0.417:410
0.417:731
0.418:982
0.418:872
0.418:872
0.418:782
0.418:691
0.418:563
0.418:205
0.418:17
0.418:17
0.419:113
0.419:339
0.419:770
0.419:773
0.419:672
0.419:431
0.419:234
0.419:17
0.419:18
0.420:103
0.420:419
0.420:817
0.420:987
0.420:835
0.420:836
0.420:691
0.420:494
0.420:97
0.421:18
0.421:18
0.421:45
0.421:352
0.421:695
0.421:735
0.421:580
0.421:349
0.421:195
0.422:17
0.422:18
0.422:114
0.422:348
0.422:771
0.423:937
0.423:808
0.423:733
0.423:612
0.423:489
0.423:61
0.423:18
0.423:17
0.424:24
0.424:374
0.429:726
0.431:761
0.431:619
0.431:409
0.431:207
0.432:17
0.432:18
0.433:153
0.433:443
0.433:838
0.433:922
0.433:922
0.433:807
0.433:749
0.434:678
0.434:466
0.435:31
0.435:18
0.435:17
0.436:81
0.436:499
0.436:788
0.436:767
0.436:612
0.436:350
0.436:225
0.436:17
0.436:18
0.437:221
0.437:485
0.437:952
0.437:952
0.437:854
0.437:809
0.437:669
0.437:518
0.437:55
0.438:18
0.438:38
0.438:148
0.438:601
0.438:770
0.438:780
0.438:602
0.438:373
0.438:228
0.439:17
0.439:17
0.439:280
0.439:539
0.439:989
0.439:969
0.439:872
0.439:812
0.439:702
0.440:512
0.440:57
0.440:18
0.440:80
0.440:171
0.440:688
0.440:795
0.440:776
0.447:614
0.448:375
0.448:233
0.448:17
0.448:17
0.448:309
0.449:563
0.449:988
0.449:988
0.449:987
0.450:923
0.450:835
0.450:722
0.450:511
0.450:50
0.451:17
0.451:98
0.451:248
0.451:724
0.452:826
0.453:818
0.454:650
0.454:392
0.454:207
0.454:17
0.455:17
0.455:342
0.455:593
0.455:988
0.455:971
0.456:899
0.456:857
0.456:716
0.456:521
0.456:37
0.456:17
0.457:116
0.457:271
0.466:800
0.466:844
0.467:827
0.467:609
0.467:389
0.467:223
0.467:17
0.467:17
0.468:382
0.468:655
0.468:987
0.468:989
0.468:894
0.468:942
0.468:752
0.468:492
0.469:34
0.469:17
0.469:65
0.469:213
0.469:771
0.469:835
0.469:794
0.469:514
0.469:339
0.470:160
0.470:17
0.470:41
0.470:381
0.470:705
0.470:705
0.470:989
0.470:978
0.470:922
0.471:864
0.471:707
0.471:460
0.472:26
0.472:17
0.473:116
0.473:269
0.473:795
0.477:846
0.482:870
0.482:626
0.483:414
0.483:191
0.483:17
0.483:84
0.483:489
0.483:755
0.483:988
0.484:955
0.484:897
0.484:901
0.484:746
0.484:429
0.484:17
0.484:17
0.484:135
0.484:351
0.485:813
0.485:858
0.485:812
0.485:540
0.485:371
0.485:161
0.485:17
0.485:147
0.485:475
0.486:725
0.486:988
0.486:987
0.486:915
0.486:827
0.486:715
0.486:355
0.486:17
0.487:17
0.487:118
0.487:323
0.487:777
0.487:845
0.487:782
0.487:508
0.487:374
0.488:131
0.488:17
0.488:199
0.488:527
0.488:527
0.488:847
0.488:988
0.488:980
0.488:849
0.489:757
0.489:623
0.489:286
0.489:17
0.489:17
0.489:144
0.489:382
0.489:804
0.489:862
0.490:791
0.490:450
0.490:332
0.490:103
0.490:18
0.490:200
0.490:510
0.493:794
0.497:989
0.498:965
0.498:936
0.498:782
0.498:648
0.498:261
0.499:17
0.499:18
0.499:172
0.499:382
0.500:812
0.500:881
0.500:758
0.500:514
0.500:361
0.500:116
0.500:17
0.505:249
0.505:576
0.505:903
0.506:989
0.506:942
0.506:845
0.506:768
0.506:652
0.506:266
0.507:17
0.507:58
0.507:194
0.514:495
0.514:871
0.514:880
0.515:777
0.515:520
0.515:347
0.515:88
0.515:17
0.516:277
0.516:277
0.516:631
0.517:989
0.517:988
0.517:981
0.517:907
0.517:779
0.517:665
0.517:230
0.517:17
0.517:95
0.518:238
0.518:564
0.518:874
0.518:892
0.518:736
0.518:494
0.518:350
0.518:81
0.518:17
0.519:273
0.520:551
0.520:989
0.520:989
0.520:983
0.521:987
0.521:893
0.521:647
0.521:187
0.521:17
0.522:94
0.522:227
0.522:646
0.522:874
0.522:881
0.523:741
0.523:472
0.523:314
0.523:39
0.523:17
0.524:329
0.531:605
0.532:988
0.532:988
0.532:950
0.532:884
0.532:792
0.533:588
0.533:167
0.533:17
0.533:131
0.533:230
0.534:696
0.534:842
0.534:913
0.534:691
0.534:459
0.535:304
0.535:46
0.535:17
0.535:17
0.535:352
0.536:585
0.536:988
0.536:989
0.536:971
0.536:871
0.537:751
0.537:613
0.537:158
0.537:17
0.537:127
0.538:258
0.538:777
0.538:888
0.538:925
0.538:697
0.539:488
0.539:326
0.539:37
0.539:17
0.539:399
0.540:665
0.540:987
0.540:989
0.548:964
0.548:870
0.548:776
0.549:612
0.549:139
0.549:17
0.549:180
0.549:309
0.550:839
0.550:919
0.550:921
0.550:675
0.550:446
0.551:292
0.551:20
0.551:45
0.551:425
0.551:712
0.552:987
0.552:989
0.552:986
0.552:894
0.552:803
0.553:570
0.553:119
0.553:18
0.553:180
0.553:324
0.554:800
0.554:924
0.554:919
0.554:653
0.554:440
0.555:265
0.555:17
0.555:17
0.555:31
0.555:428
0.556:757
0.556:987
0.556:989
0.556:990
0.556:944
0.557:793
0.557:543
0.557:91
0.564:73
0.565:260
0.565:337
0.565:831
0.565:922
0.565:842
0.566:626
0.566:417
0.566:248
0.566:17
0.566:50
0.566:414
0.566:718
0.566:988
0.567:989
0.567:986
0.567:983
0.567:800
0.567:489
0.567:63
0.567:63
0.567:224
0.567:385
0.568:869
0.568:928
0.568:891
0.568:643
0.568:466
0.568:246
0.568:17
0.568:125
0.568:502
0.569:779
0.569:987
0.569:989
0.569:942
0.569:866
0.569:766
0.569:472
0.569:69
0.569:55
0.570:237
0.570:428
0.570:880
0.570:952
0.570:846
0.571:561
0.571:415
0.571:217
0.571:217
0.572:17
0.572:144
0.572:519
0.572:827
0.572:987
0.573:988
0.573:944
0.573:816
0.573:735
0.573:418
0.583:37
0.583:89
0.584:239
0.584:407
0.584:888
0.584:912
0.584:911
0.584:611
0.584:431
0.584:211
0.584:17
0.585:179
0.585:556
0.585:909
0.585:987
0.585:989
0.585:944
0.585:865
0.585:717
0.586:358
0.586:18
0.586:126
0.586:259
0.586:464
0.586:873
0.586:940
0.586:828
0.586:561
0.587:391
0.587:158
0.587:17
0.587:223
0.587:575
0.587:930
0.587:988
0.587:989
0.588:958
0.588:863
0.588:715
0.588:341
0.588:27
0.588:212
0.588:306
0.588:519
0.589:938
0.589:989
0.589:824
0.589:547
0.589:366
0.589:366
0.590:129
0.590:17
0.590:229
0.590:601
0.590:946
0.597:987
0.597:989
0.598:969
0.598:878
0.598:751
0.599:314
0.599:17
0.599:163
0.600:291
0.600:550
0.600:936
0.600:929
0.600:800
0.600:522
0.601:366
0.601:109
0.602:17
0.602:277
0.602:585
0.602:958
0.602:988
0.602:989
0.603:897
0.603:815
0.603:649
0.603:223
0.603:17
0.603:168
0.603:292
0.603:683
0.604:957
0.604:989
0.604:781
0.604:524
0.604:390
0.604:113
0.604:17
0.604:303
0.604:614
0.605:988
0.605:988
0.605:989
0.605:989
0.605:865
0.605:726
0.605:246
0.605:17
0.605:212
0.606:277
0.606:699
0.606:923
0.606:931
0.606:813
0.606:528
0.606:528
0.607:351
0.607:69
0.607:17
0.614:299
0.615:556
0.615:988
0.615:989
0.615:978
0.615:968
0.615:843
0.617:683
0.617:214
0.617:17
0.618:213
0.618:339
0.618:843
0.618:944
0.619:942
0.619:785
0.619:527
0.619:363
0.619:82
0.619:24
0.620:444
0.620:703
0.620:986
0.620:988
0.621:989
0.621:956
0.621:870
0.621:662
0.622:212
0.622:93
0.622:291
0.622:339
0.622:818
0.623:923
0.623:971
0.623:744
0.623:523
0.623:345
0.627:65
0.630:43
0.631:414
0.631:684
0.631:987
0.631:988
0.631:990
0.631:932
0.631:803
0.632:642
0.632:159
0.632:20
0.632:212
0.632:323
0.632:848
0.632:924
0.632:935
0.633:674
0.633:674
0.633:469
0.633:284
0.633:17
0.633:45
0.633:396
0.633:742
0.633:987
0.634:989
0.634:895
0.634:791
0.634:742
0.634:525
0.634:86
0.634:17
0.634:180
0.634:306
0.635:842
0.635:910
0.635:925
0.635:659
0.635:464
0.635:271
0.635:17
0.635:76
0.636:474
0.636:725
0.636:987
0.636:989
0.636:962
0.636:982
0.636:812
0.636:538
0.636:78
0.637:17
0.637:165
0.637:320
0.638:842
0.638:929
0.638:875
0.638:629
0.639:456
0.639:240
0.639:17
0.639:82
0.639:418
0.640:779
0.640:987
0.640:989
0.646:985
0.647:876
0.647:755
0.647:468
0.647:55
0.647:74
0.647:230
0.648:357
0.648:842
0.648:908
0.648:906
0.648:906
0.648:629
0.648:419
0.648:202
0.649:17
0.649:105
0.649:490
0.649:809
0.649:988
0.649:989
0.649:941
0.649:877
0.649:724
0.650:431
0.650:32
0.650:26
0.650:190
0.650:346
0.650:840
0.650:920
0.650:811
0.650:568
0.651:371
0.651:120
0.651:17
0.651:87
0.651:462
0.651:719
0.651:988
0.651:981
0.651:
0.651:9
0.652:425
0.652:742
0.652:989
0.652:910
0.652:812
0.652:755
0.652:591
0.653:245
0.653:18
0.653:18
0.653:18
0.653:29
0.653:228
0.653:716
0.653:777
0.653:675
0.654:376
0.654:241
0.654:17
0.654:18
0.654:58
0.654:425
0.654:803
0.654:989
0.654:873
0.655:877
0.655:798
0.655:636
0.655:217
0.655:18
0.655:17
0.655:73
0.655:277
0.655:761
0.656:805
0.656:726
0.656:427
0.656:233
0.656:17
0.656:18
0.656:141
0.656:492
0.656:895
0.657:989
0.657:872
0.660:823
0.663:769
0.663:585
0.664:172
0.664:18
0.664:17
0.664:62
0.664:310
0.664:769
0.664:782
0.664:716
0.664:455
0.665:302
0.665:20
0.665:18
0.665:154
0.665:485
0.665:827
0.665:989
0.665:910
0.665:818
0.666:732
0.666:608
0.666:157
0.666:157
0.666:18
0.666:17
0.666:118
0.666:368
0.666:769
0.667:815
0.667:671
0.667:442
0.667:274
0.667:17
0.667:18
0.667:147
0.667:492
0.667:916
0.668:989
0.668:924
0.668:793
0.668:725
0.668:518
0.668:115
0.668:18
0.668:52
0.669:124
0.669:478
0.669:769
0.669:838
0.669:662
0.669:382
0.669:246
0.669:17
0.669:18
0.670:211
0.670:552
0.670:989
0.670:989
0.670:899
0.670:875
0.670:789
0.670:622
0.671:130
0.671:18
0.671:27
0.671:145
0.671:596
0.671:810
0.671:852
0.671:646
0.671:405
0.672:256
0.672:17
0.672:18
0.672:289
0.672:535
0.672:989
0.672:980
0.672:924
0.672:795
0.673:707
0.673:609
0.673:609
0.673:124
0.673:17
0.673:36
0.673:156
0.681:681
0.681:788
0.681:809
0.681:669
0.682:402
0.682:256
0.682:17
0.682:17
0.682:380
0.682:656
0.682:988
0.682:989
0.683:943
0.683:827
0.683:759
0.683:612
0.683:112
0.683:17
0.683:117
0.683:216
0.684:742
0.684:834
0.684:873
0.684:600
0.684:405
0.684:259
0.684:17
0.684:17
0.684:316
0.685:586
0.685:988
0.685:990
0.685:892
0.685:775
0.685:707
0.685:559
0.685:85
0.685:20
0.686:192
0.686:255
0.686:742
0.686:877
0.686:897
0.686:636
0.686:393
0.686:233
0.687:17
0.687:17
0.687:349
0.687:718
0.687:987
0.687:989
0.687:954
0.687:920
0.687:799
0.688:799
0.688:574
0.688:93
0.688:17
0.688:190
0.688:279
0.688:800
0.688:905
0.688:935
0.689:642
0.689:379
0.689:197
0.689:17
0.689:17
0.689:461
0.689:755
0.689:986
0.689:989
0.690:956
0.690:903
0.690:778
0.690:544
0.695:49
0.697:17
0.697:127
0.697:276
0.697:785
0.698:896
0.698:856
0.698:614
0.698:388
0.698:186
0.698:17
0.698:17
0.698:409
0.698:704
0.699:988
0.699:988
0.699:894
0.699:853
0.699:762
0.699:469
0.699:17
0.699:17
0.699:139
0.700:299
0.700:816
0.700:880
0.700:854
0.700:546
0.700:360
0.700:135
0.700:18
0.701:17
0.701:399
0.701:724
0.701:988
0.701:956
0.701:882
0.701:918
0.701:918
0.702:752
0.702:445
0.702:17
0.702:53
0.702:208
0.702:347
0.702:832
0.702:872
0.703:850
0.703:595
0.703:379
0.703:133
0.703:18
0.703:17
0.703:354
0.703:675
0.703:989
0.704:951
0.704:861
0.704:904
0.704:766
0.704:438
0.704:17
0.704:63
0.704:196
0.704:301
0.705:820
0.705:888
0.705:833
0.705:549
0.705:379
0.705:134
0.705:17
0.705:107
0.705:481
0.706:825
0.706:988
0.706:984
0.706:885
0.706:828
0.706:750
0.706:385
0.706:17
0.706:17
0.707:128
0.712:332
0.713:803
0.714:906
0.714:799
0.714:556
0.714:369
0.714:102
0.714:17
0.714:147
0.714:490
0.715:838
0.715:988
0.715:947
0.715:830
0.715:830
0.715:870
0.715:659
0.715:259
0.715:17
0.716:17
0.716:69
0.716:308
0.716:732
0.716:821
0.716:691
0.716:453
0.716:280
0.717:70
0.717:18
0.717:197
0.717:570
0.717:922
0.717:987
0.717:988
0.717:988
0.717:988
0.718:989
0.718:601
0.718:258
0.718:462
0.718:579
0.718:859
0.718:986
0.718:985
0.719:986
0.719:989
0.719:928
0.719:721
0.719:541
0.719:929
0.719:986
0.719:981
0.719:978
0.720:981
0.720:982
0.720:984
0.720:986
0.720:832
0.720:505
0.720:727
0.720:759
0.721:989
0.721:985
0.721:985
0.721:988
0.721:814
0.721:604
0.721:286
0.721:36
0.721:347
0.722:607
0.722:979
0.722:989
0.722:895
0.722:895
0.722:759
0.722:653
0.722:489
0.723:56
0.723:18
0.723:18
0.723:17
0.723:385
0.723:685
0.723:708
0.724:562
0.728:281
0.730:126
0.730:18
0.730:18
0.730:123
0.730:569
0.730:989
0.731:989
0.731:909
0.731:983
0.731:837
0.731:694
0.731:173
0.731:18
0.731:17
0.731:128
0.732:559
0.732:787
0.732:797
0.732:668
0.732:452
0.732:275
0.732:17
0.732:18
0.733:321
0.733:602
0.733:988
0.733:989
0.733:900
0.733:806
0.733:744
0.733:640
0.734:139
0.734:17
0.734:38
0.734:197
0.734:650
0.734:812
0.734:851
0.734:684
0.734:420
0.735:255
0.735:17
0.735:17
0.735:277
0.735:636
0.735:987
0.735:988
0.735:988
0.735:950
0.736:913
0.736:784
0.736:587
0.736:105
0.736:17
0.736:120
0.736:221
0.736:790
0.736:911
0.737:922
0.737:697
0.737:461
0.737:314
0.737:17
0.737:17
0.737:338
0.737:664
0.737:987
0.738:988
0.738:983
0.738:903
0.738:844
0.738:611
0.738:113
0.738:17
0.738:204
0.739:303
0.739:820
0.739:936
0.739:953
0.739:705
0.739:488
0.739:314
0.739:17
0.739:17
0.740:347
0.740:687
0.740:986
0.740:988
0.747:989
0.747:953
0.747:834
0.747:609
0.747:107
0.747:17
0.747:191
0.747:295
0.748:856
0.748:938
0.748:977
0.748:671
0.748:462
0.748:279
0.748:17
0.748:67
0.748:466
0.749:785
0.749:986
0.749:986
0.749:988
0.749:989
0.749:989
0.749:870
0.749:579
0.749:114
0.750:30
0.750:251
0.750:348
0.750:921
0.750:990
0.750:979
0.750:707
0.750:469
0.750:289
0.751:19
0.751:116
0.751:457
0.751:804
0.751:986
0.751:988
0.751:989
0.751:944
0.751:820
0.752:562
0.752:94
0.752:128
0.752:297
0.752:459
0.752:927
0.752:989
0.752:989
0.752:726
0.753:508
0.753:312
0.753:28
0.753:103
0.753:498
0.753:848
0.753:985
0.753:988
0.753:989
0.754:989
0.754:946
0.754:619
0.754:148
0.754:229
0.754:338
0.754:445
0.754:947
0.754:989
0.755:973
0.755:710
0.755:539
0.755:323
0.755:57
0.755:191
0.755:556
0.755:852
0.767:852
0.767:986
0.767:987
0.767:989
0.771:945
0.772:832
0.772:544
0.772:132
0.773:237
0.773:363
0.773:487
0.773:962
0.780:989
0.781:988
0.781:718
0.781:555
0.781:311
0.781:85
0.782:243
0.782:676
0.782:973
0.782:985
0.782:987
0.782:988
0.782:939
0.783:879
0.783:589
0.783:164
0.783:258
0.783:344
0.800:508
0.800:989
0.800:987
0.800:989
0.800:736
0.800:560
0.800:324
0.801:123
0.801:397
0.801:780
0.804:988
0.804:985
0.804:987
0.804:988
0.804:989
0.804:876
0.805:532
0.805:152
0.805:200
0.808:385
0.813:538
0.813:989
0.814:988
0.814:984
0.814:710
0.814:555
0.814:306
0.814:119
0.814:368
0.814:730
0.829:730
0.830:989
0.830:986
0.830:987
0.831:988
0.831:989
0.831:944
0.831:493
0.831:131
0.833:376
0.833:419
0.833:557
0.833:966
0.833:989
0.833:916
0.833:637
0.833:483
0.834:219
0.834:18
0.837:317
0.837:601
0.837:958
0.837:987
0.837:989
0.837:988
0.837:989
0.837:737
0.838:316
0.840:17
0.841:98
0.857:219
0.858:530
0.858:873
0.860:905
0.863:770
0.863:500
0.863:352
0.863:81
0.864:18
0.864:252
0.864:612
0.864:959
0.864:989
0.864:914
0.865:920
0.865:823
0.865:643
0.866:203
0.866:17
0.866:52
0.866:128
0.866:500
0.867:834
0.867:830
0.867:705
0.867:427
0.869:269
0.869:17
0.869:18
0.869:153
0.886:153
0.886:518
0.886:915
0.887:978
0.887:888
0.890:821
0.891:760
0.891:579
0.892:106
0.895:18
0.896:141
0.897:198
0.897:591
0.897:843
0.898:843
0.898:670
0.898:421
0.898:257
0.898:17
0.898:18
0.898:216
0.898:523
0.899:988
0.899:989
0.899:873
0.899:864
0.899:758
0.899:587
0.900:124
0.900:18
0.914:116
0.915:176
0.919:677
0.919:825
0.919:848
0.919:669
0.919:421
0.919:255
0.919:17
0.919:17
0.919:335
0.920:584
0.923:988
0.923:984
0.923:906
0.923:800
0.924:745
0.925:586
0.930:102
0.930:17
0.931:50
0.931:218
0.931:714
0.931:856
0.931:898
0.931:694
0.931:456
0.931:269
0.931:17
0.932:17
0.947:17
0.947:425
0.947:642
0.947:987
0.948:988
0.948:968
0.948:864
0.948:757
0.948:571
0.948:94
0.949:17
0.952:87
0.953:225
0.953:768
0.953:869
0.954:852
0.954:669
0.954:417
0.954:260
0.954:17
0.954:17
0.955:384
0.955:674
0.956:987
0.956:989
0.956:942
0.956:869
0.956:786
0.956:564
0.957:90
0.978:17
0.980:218
0.980:280
0.981:813
0.981:885
0.982:894
0.982:731
0.982:483
0.983:279
0.983:17
0.983:17
0.983:370
0.983:676
0.983:987
0.983:989
0.984:967
0.984:895
0.984:783
0.984:559
0.984:93
0.984:63
0.984:220
0.985:347
0.985:855
0.985:913
0.985:888
0.985:656
0.988:397
0.988:238
0.988:17
1.004:17
1.005:31
1.005:460
1.005:796
1.005:987
1.005:989
1.005:985
1.011:984
1.012:825
1.013:566
1.013:73
1.013:17
1.013:140
1.014:299
1.014:827
1.014:913
1.014:893
1.014:660
1.015:434
1.015:226
1.015:17
1.015:118
1.016:541
1.016:844
1.016:987
1.017:988
1.017:981
1.017:895
1.017:795
1.018:482
1.033:36
1.033:17
1.033:143
1.034:333
1.037:808
1.038:866
1.038:894
1.038:647
1.038:454
1.038:231
1.038:17
1.039:153
1.039:536
1.047:869
1.047:987
1.047:989
1.048:918
1.048:832
1.048:727
1.048:434
1.048:20
1.049:27
1.049:234
1.049:367
1.049:834
1.050:916
1.050:876
1.050:612
1.050:448
1.050:189
1.063:189
1.063:17
1.066:178
1.066:525
1.066:805
1.066:988
1.066:989
1.067:928
1.067:836
1.067:784
1.067:446
1.067:22
1.070:73
1.070:220
1.070:410
1.070:848
1.070:873
1.071:876
1.071:614
1.071:428
1.071:181
1.071:17
1.074:175
1.075:515
1.078:876
1.079:987
1.080:989
1.080:922
1.080:889
1.080:746
1.096:376
1.097:17
1.097:133
1.097:249
1.097:431
1.098:864
1.098:942
1.098:862
1.098:591
1.099:426
1.099:163
1.099:17
1.099:205
1.099:573
1.100:889
1.100:988
1.100:989
1.100:975
1.103:902
1.103:765
1.103:347
1.103:17
1.103:204
1.104:285
1.104:471
1.104:903
1.104:973
1.105:827
1.107:559
1.107:392
1.124:392
1.124:117
1.124:17
1.126:208
1.129:584
1.129:987
1.130:988
1.130:989
1.130:989
1.130:934
1.131:749
1.131:336
1.132:17
1.132:157
1.132:274
1.132:487
1.133:904
1.133:960
1.133:868
1.134:576
1.134:381
1.134:116
1.134:17
1.134:305
1.134:633
1.134:966
1.135:988
1.135:989
1.135:989
1.136:925
1.152:771
1.152:285
1.152:17
1.152:136
1.152:242
1.157:584
1.157:946
1.157:989
1.157:863
1.158:567
1.161:396
1.163:120
1.163:17
1.163:375
1.164:639
1.164:989
1.164:987
1.164:989
1.164:989
1.165:926
1.165:771
1.165:281
1.165:17
1.166:156
1.166:268
1.166:745
1.166:938
1.166:989
1.166:801
1.166:537
1.181:537
1.181:355
1.182:93
1.182:17
1.185:356
1.185:686
1.185:988
1.185:988
1.185:989
1.185:917
1.185:875
1.186:620
1.186:178
1.186:17
1.189:225
1.189:304
1.189:724
1.189:895
1.190:887
1.190:710
1.190:483
1.190:301
1.191:24
1.195:17
1.196:306
1.196:611
1.196:988
1.197:989
1.197:970
1.197:955
1.213:845
1.214:647
1.214:149
1.214:17
1.214:171
1.214:259
1.215:737
1.215:851
1.215:915
1.215:671
1.217:415
1.218:270
1.218:17
1.218:17
1.218:341
1.218:631
1.218:986
1.218:988
1.218:966
1.218:915
1.222:786
1.222:558
1.225:83
1.225:17
1.227:91
1.230:202
1.232:795
1.232:893
1.233:895
1.233:697
1.245:697
1.246:455
1.247:273
1.247:17
1.247:18
1.247:413
1.247:772
1.248:987
1.248:989
1.248:956
1.249:824
1.249:769
1.249:585
1.249:85
1.250:17
1.250:94
1.250:227
1.250:799
1.250:893
1.251:918
1.253:667
1.253:426
1.254:270
1.254:17
1.255:32
1.255:482
1.255:697
1.255:986
1.256:989
1.256:946
1.271:906
1.271:769
1.271:571
1.271:73
1.271:17
1.271:153
1.279:309
1.281:861
1.282:896
1.282:877
1.283:623
1.283:389
1.283:226
1.284:17
1.284:26
1.284:363
1.284:672
1.284:987
1.284:989
1.285:898
1.285:894
1.285:765
1.285:499
1.285:17
1.285:17
1.285:116
1.285:217
1.285:755
1.286:838
1.286:783
1.299:783
1.300:547
1.300:320
1.300:143
1.300:18
1.303:17
1.304:410
1.304:749
1.304:987
1.304:989
1.304:990
1.304:943
1.304:861
1.304:599
1.305:184
1.308:293
1.320:493
1.320:643
1.320:987
1.320:986
1.321:986
1.321:989
1.321:856
1.321:690
1.321:459
1.321:660
1.321:987
1.321:983
1.321:978
1.322:979
1.329:981
1.329:981
1.332:983
1.332:988
1.332:655
1.332:692
1.333:773
1.333:898
1.333:985
1.333:985
1.333:985
1.336:989
1.336:776
1.337:513
1.337:202
1.337:351
1.337:646
1.337:902
1.337:987
1.337:989
1.337:884
1.343:823
1.346:606
1.346:239
1.346:18
1.346:18
1.346:17
1.346:144
1.347:615
1.347:682
1.357:682
1.362:624
1.362:320
1.363:148
1.363:17
1.363:18
1.363:17
1.363:347
1.364:599
1.364:971
1.364:873
1.365:787
1.365:704
1.365:608
1.365:274
1.365:18
1.366:17
1.366:95
1.366:291
1.366:724
1.366:780
1.369:682
1.369:403
1.369:268
1.369:26
1.369:18
1.369:57
1.370:486
1.370:819
1.370:989
1.390:942
1.390:832
1.390:749
1.391:634
1.395:259
1.395:17
1.396:38
1.396:158
1.396:336
1.396:770
1.396:829
1.397:705
1.397:451
1.398:296
1.398:37
1.398:18
1.398:137
1.398:459
1.398:846
1.398:989
1.398:936
1.398:879
1.399:833
1.399:634
1.399:222
1.399:18
1.400:17
1.401:144
1.402:418
1.402:815
1.418:815
1.418:854
1.418:706
1.418:457
1.419:331
1.419:60
1.419:17
1.423:284
1.423:540
1.428:913
1.428:989
1.429:976
1.429:921
1.429:802
1.429:647
1.429:206
1.430:18
1.430:17
1.430:162
1.430:497
1.430:861
1.430:866
1.430:764
1.430:516
1.430:335
1.431:40
1.431:18
1.431:282
1.431:553
1.431:989
1.447:989
1.447:892
1.447:904
1.451:817
1.451:682
1.452:203
1.452:17
1.453:58
1.453:188
1.453:577
1.454:852
1.454:876
1.454:656
1.455:395
1.456:271
1.457:23
1.458:17
1.458:304
1.464:596
1.465:988
1.466:988
1.466:966
1.467:888
1.467:762
1.467:593
1.467:152
1.468:17
1.468:98
1.468:202
1.469:655
1.479:655
1.480:846
1.480:930
1.480:715
1.481:440
1.481:304
1.481:26
1.481:17
1.482:323
1.482:643
1.482:987
1.482:988
1.484:989
1.484:989
1.484:949
1.484:671
1.484:180
1.484:17
1.484:178
1.485:272
1.485:737
1.485:870
1.488:888
1.488:767
1.488:497
1.488:313
1.488:26
1.488:17
1.489:359
1.489:683
1.513:986
1.513:988
1.513:989
1.513:965
1.514:871
1.514:681
1.514:193
1.514:42
1.514:245
1.515:307
1.515:847
1.515:933
1.515:933
1.515:701
1.516:488
1.516:335
1.516:37
1.516:17
1.516:456
1.517:753
1.517:987
1.517:988
1.517:989
1.517:974
1.517:853
1.518:677
1.518:192
1.518:58
1.520:282
1.520:425
1.536:425
1.537:911
1.537:989
1.537:989
1.537:748
1.537:505
1.538:361
1.538:73
1.544:75
1.544:459
1.545:809
1.545:985
1.545:988
1.545:989
1.545:960
1.546:831
1.546:613
1.546:169
1.546:114
1.546:306
1.547:402
1.547:937
1.547:989
1.547:989
1.547:741
1.548:533
1.548:356
1.548:83
1.548:106
1.549:558
1.565:771
1.565:986
1.565:988
1.566:989
1.569:989
1.569:906
1.569:657
1.569:181
1.570:131
1.570:315
1.570:401
1.570:876
1.570:989
1.570:958
1.576:736
1.578:522
1.578:334
1.578:63
1.579:166
1.579:562
1.579:862
1.579:986
1.579:988
1.579:989
1.579:936
1.580:872
1.580:625
1.580:138
1.580:49
1.580:223
1.595:223
1.595:369
1.595:872
1.598:967
1.598:925
1.598:684
1.598:464
1.598:268
1.598:17
1.598:148
1.599:518
1.599:816
1.599:987
1.602:989
1.602:952
1.602:919
1.602:781
1.602:446
1.602:17
1.603:17
1.603:144
1.603:278
1.603:760
1.606:851
1.607:811
1.608:513
1.609:334
1.613:120
1.614:18
1.614:30
1.626:417
1.627:767
1.627:989
1.627:903
1.627:842
1.627:816
1.627:673
1.627:315
1.628:17
1.628:20
1.630:112
1.631:213
1.631:698
1.631:764
1.631:729
1.631:450
1.631:255
1.631:20
1.632:18
1.632:17
1.634:357
1.635:712
1.635:937
1.635:844
1.635:766
1.635:666
1.635:556
1.635:190
1.635:18
1.636:17
1.655:17
1.656:94
1.656:216
1.657:667
1.658:762
1.659:656
1.660:391
1.661:200
1.661:17
1.661:19
1.661:25
1.661:406
1.661:772
1.661:959
1.661:847
1.662:651
1.662:656
1.662:587
1.662:186
1.662:18
1.663:18
1.663:17
1.663:221
1.663:648
1.664:744
1.664:659
1.664:395
1.664:236
1.664:17
1.664:18
1.684:128
1.684:448
1.684:800
1.684:989
1.684:880
1.684:775
1.688:638
1.689:571
1.690:160
1.690:18
1.690:17
1.690:35
1.690:279
1.690:728
1.690:787
1.691:642
1.693:389
1.693:209
1.693:17
1.693:18
1.693:134
1.693:483
1.693:861
1.693:979
1.693:881
1.694:802
1.697:740
1.697:593
1.697:146
1.697:18
1.713:18
1.713:17
1.713:94
1.713:417
1.713:740
1.717:757
1.717:606
1.717:354
1.718:222
1.718:17
1.718:18
1.718:150
1.718:459
1.718:915
1.718:965
1.721:843
1.721:759
1.723:728
1.724:614
1.727:137
1.729:17
1.730:35
1.730:132
1.731:493
1.732:773
1.732:832
1.733:682
1.733:396
1.734:248
1.734:17
1.741:18
1.742:131
1.746:474
1.746:920
1.746:955
1.747:912
1.747:919
1.747:791
1.747:572
1.747:95
1.747:17
1.747:116
1.750:165
1.750:584
1.750:789
1.750:809
1.750:673
1.751:366
1.751:217
1.751:18
1.751:18
1.751:248
1.754:519
1.754:989
1.754:989
1.754:838
1.754:793
1.754:735
1.754:572
1.755:73
1.770:73
1.775:17
1.775:66
1.775:145
1.775:611
1.775:800
1.775:812
1.775:576
1.775:352
1.776:220
1.776:17
1.779:18
1.779:222
1.779:545
1.780:988
1.780:973
1.780:893
1.781:818
1.781:737
1.781:538
1.781:51
1.783:18
1.783:79
1.784:142
1.784:673
1.784:801
1.784:834
1.784:592
1.785:322
1.785:181
1.803:18
1.803:18
1.803:324
1.803:550
1.804:988
1.804:961
1.804:875
1.807:749
1.809:690
1.811:510
1.811:44
1.811:17
1.812:35
1.812:191
1.812:718
1.812:847
1.812:839
1.812:600
1.812:393
1.812:227
1.812:17
1.812:17
1.813:370
1.813:625
1.813:987
1.813:984
1.813:878
1.813:829
1.815:662
1.815:435
1.831:435
1.831:17
1.831:18
1.831:19
1.832:164
1.832:737
1.832:810
1.835:819
1.835:514
1.836:323
1.836:177
1.836:18
1.836:17
1.836:276
1.836:685
1.836:988
1.836:975
1.840:870
1.840:759
1.840:655
1.840:454
1.841:17
1.841:17
1.841:128
1.842:233
1.842:784
1.844:847
1.844:799
1.844:534
1.844:320
1.861:136
1.861:17
1.861:17
1.865:296
1.865:635
1.865:988
1.865:958
1.865:889
1.865:820
1.865:700
1.865:419
1.865:17
1.866:17
1.869:136
1.869:255
1.869:777
1.870:836
1.870:821
1.870:550
1.871:351
1.871:153
1.871:17
1.871:17
1.873:373
1.874:665
1.874:988
1.875:961
1.875:835
1.876:837
1.876:681
1.890:681
1.890:408
1.893:17
1.893:17
1.893:128
1.893:263
1.894:760
1.894:837
1.894:767
1.894:510
1.894:321
1.894:103
1.897:18
1.897:17
1.897:401
1.898:746
1.898:988
1.898:951
1.898:849
1.898:805
1.898:685
1.898:359
1.901:17
1.901:17
1.902:96
1.902:262
1.902:758
1.902:858
1.902:758
1.902:485
1.922:317
1.922:55
1.923:18
1.924:122
1.926:488
1.928:799
1.928:988
1.928:989
1.928:836
1.929:837
1.929:694
1.929:335
1.929:17
1.929:17
1.929:107
1.929:320
1.929:745
1.929:822
1.929:779
1.930:515
1.930:339
1.930:83
1.930:18
1.930:160
1.930:462
1.931:780
1.931:989
1.931:950
1.931:835
1.934:718
1.951:718
1.951:601
1.951:235
1.951:17
1.951:17
1.951:134
1.952:337
1.952:813
1.955:872
1.955:763
1.955:503
1.956:301
1.956:59
1.956:18
1.956:202
1.956:579
1.957:985
1.957:988
1.959:982
1.959:989
1.959:897
1.959:678
1.959:267
1.959:17
1.959:17
1.959:83
1.959:403
1.960:790
1.963:922
1.963:791
1.979:482
1.979:310
1.979:49
1.979:17
1.983:136
1.983:450
1.983:844
1.984:988
1.984:909
1.984:874
1.984:752
1.984:629
1.984:187
1.984:18
1.987:80
1.987:215
1.988:446
1.988:863
1.988:898
1.988:757
1.988:477
1.988:257
1.989:17
1.989:18
1.991:195
1.991:467
1.992:896
1.992:989
1.992:924
1.992:864
2.008:864
2.008:707
2.008:548
2.012:97
2.012:18
2.012:17
2.012:106
2.012:445
2.012:809
2.013:820
2.013:691
2.013:397
2.013:203
2.013:17
2.016:18
2.016:196
2.016:474
2.016:952
2.016:989
2.016:872
2.017:878
2.017:752
2.017:592
2.017:98
2.020:18
2.020:18
2.020:116
2.020:556
2.020:797
2.020:822
2.041:627
2.041:383
2.041:211
2.041:17
2.041:18
2.041:195
2.041:492
2.041:946
2.041:950
2.042:867
2.045:798
2.045:685
2.045:545
2.045:54
2.045:17
2.045:161
2.045:165
2.045:638
2.045:800
2.045:832
2.049:637
2.049:372
2.049:219
2.049:17
2.049:18
2.049:227
2.049:543
2.049:989
2.050:945
2.050:860
2.069:860
2.069:776
2.069:695
2.070:508
2.070:46
2.070:18
2.070:149
2.070:173
2.070:694
2.073:805
2.074:767
2.074:643
2.074:357
2.074:201
2.074:18
2.074:18
2.074:268
2.074:501
2.075:988
2.077:929
2.077:820
2.077:813
2.077:664
2.077:481
2.078:17
2.078:18
2.078:17
2.078:73
2.078:664
2.081:736
2.097:732
2.097:455
2.097:266
2.098:112
2.098:18
2.098:18
2.102:316
2.102:609
2.102:987
2.102:989
2.102:975
2.102:943
2.102:867
2.102:644
2.103:198
2.106:121
2.106:351
2.106:518
2.106:988
2.107:987
2.107:986
2.107:989
2.107:864
2.107:730
2.108:457
2.110:594
2.110:989
2.110:986
2.110:979
2.111:982
2.126:982
2.126:983
2.126:985
2.127:986
2.127:989
2.130:508
2.130:379
2.131:523
2.131:617
2.131:988
2.131:987
2.132:987
2.132:850
2.132:567
2.135:319
2.135:17
2.135:106
2.135:356
2.135:647
2.135:988
2.135:832
2.135:754
2.135:671
2.136:485
2.139:203
2.139:18
2.139:19
2.139:18
2.139:17
2.139:556
2.156:626
2.159:576
2.159:298
2.159:113
2.159:17
2.160:19
2.160:18
2.160:169
2.160:508
2.160:983
2.160:825
2.164:768
2.164:649
2.164:563
2.164:307
2.164:18
2.164:17
2.164:69
2.164:220
2.165:728
2.165:790
2.165:756
2.168:444
2.168:272
2.168:51
2.168:18
2.168:17
2.168:340
2.168:634
2.169:989
2.189:989
2.192:887
2.197:803
2.198:767
2.198:657
2.199:331
2.199:17
2.200:40
2.201:132
2.201:273
2.201:767
2.202:807
2.202:756
2.202:440
2.203:255
2.203:29
2.203:18
2.203:17
2.204:406
2.204:686
2.207:989
2.207:902
2.207:855
2.207:787
2.208:645
2.208:289
2.208:17
2.209:33
2.209:124
2.209:288
2.217:753
2.217:851
2.217:761
2.218:450
2.218:275
2.219:42
2.221:18
2.223:76
2.228:457
2.229:759
2.229:989
2.230:942
2.230:905
2.231:868
2.231:684
2.231:297
2.232:17
2.232:17
2.233:86
2.234:313
2.234:797
2.235:871
2.237:721
2.237:436
2.237:253
2.238:23
2.239:18
2.239:168
2.240:517
2.243:866
2.245:866
2.246:988
2.246:935
2.247:850
2.247:813
2.248:675
2.250:254
2.250:17
2.250:17
2.251:158
2.251:353
2.252:774
2.252:877
2.252:686
2.253:470
2.253:310
2.256:44
2.256:18
2.256:221
2.257:504
2.257:948
2.257:989
2.258:988
2.258:908
2.258:815
2.259:619
2.259:206
2.259:17
2.260:70
2.260:191
2.274:470
2.274:866
2.274:911
2.278:814
2.279:501
2.279:309
2.279:40
2.279:18
2.279:215
2.280:558
2.280:987
2.280:988
2.280:967
2.282:930
2.283:838
2.283:700
2.283:222
2.283:18
2.283:110
2.283:213
2.283:563
2.283:838
2.286:894
2.286:766
2.287:511
2.287:342
2.287:47
2.287:17
2.287:265
2.287:566
2.303:566
2.303:989
2.307:988
2.307:975
2.307:956
2.307:825
2.307:719
2.308:228
2.308:17
2.308:139
2.308:258
2.308:630
2.311:891
2.311:942
2.311:771
2.311:511
2.311:346
2.312:74
2.312:17
2.312:417
2.312:669
2.315:988
2.315:987
2.315:989
2.315:989
2.315:879
2.316:699
2.316:207
2.316:17
2.316:222
2.336:292
2.336:757
2.336:939
2.336:952
2.336:752
2.336:511
2.336:343
2.336:78
2.337:17
2.340:385
2.340:667
2.340:987
2.340:988
2.341:988
2.341:954
2.341:849
2.341:745
2.341:245
2.344:50
2.344:272
2.344:359
2.344:887
2.344:989
2.344:989
2.344:821
2.345:556
2.345:376
2.345:85
2.348:30
2.348:460
2.366:460
2.367:745
2.367:986
2.367:988
2.367:989
2.367:989
2.367:923
2.368:763
2.368:239
2.368:37
2.368:220
2.368:355
2.368:857
2.368:984
2.369:988
2.369:769
2.369:506
2.372:367
2.372:56
2.372:96
2.372:575
2.373:861
2.373:986
2.373:987
2.373:989
2.373:989
2.373:864
2.376:656
2.376:154
2.376:17
2.392:201
2.392:317
2.392:882
2.393:975
2.396:932
2.397:678
2.397:452
2.397:277
2.398:17
2.398:17
2.398:411
2.399:703
2.399:987
2.399:989
2.401:957
2.401:872
2.401:752
2.401:535
2.401:45
2.401:39
2.402:223
2.402:279
2.402:783
2.402:838
2.405:840
2.405:601
2.406:352
2.406:134
2.406:18
2.406:17
2.421:17
2.421:330
2.422:647
2.425:989
2.426:917
2.427:832
2.427:738
2.428:584
2.428:368
2.428:17
2.428:17
2.429:77
2.429:187
2.429:723
2.429:774
2.429:718
2.429:435
2.431:212
2.432:32
2.432:18
2.432:17
2.432:352
2.432:517
2.432:989
2.434:891
2.434:806
2.434:709
2.434:592
2.434:317
2.434:17
2.454:18
2.454:17
2.455:188
2.455:651
2.455:765
2.455:700
2.455:422
2.456:246
2.456:49
2.456:18
2.456:18
2.458:367
2.458:719
2.458:988
2.458:911
2.458:799
2.458:707
2.458:550
2.459:249
2.459:18
2.459:18
2.462:28
2.462:211
2.462:715
2.462:802
2.462:739
2.462:412
2.462:237
2.463:35
2.463:18
2.482:18
2.482:17
2.483:381
2.483:684
2.483:969
2.483:908
2.484:812
2.484:822
2.484:704
2.486:348
2.486:17
2.487:31
2.488:106
2.488:281
2.488:815
2.488:837
2.489:728
2.489:453
2.490:290
2.490:36
2.491:18
2.491:43
2.491:451
2.491:774
2.491:989
2.492:934
2.492:899
2.492:848
2.492:670
2.494:264
2.511:17
2.511:48
2.511:154
2.511:343
2.511:802
2.512:844
2.515:776
2.515:484
2.515:287
2.515:28
2.515:19
2.516:176
2.516:438
2.516:818
2.516:989
2.516:909
2.519:851
2.519:778
2.519:658
2.519:230
2.520:18
2.520:17
2.520:115
2.520:346
2.521:778
2.521:824
2.523:721
2.523:466
2.523:297
2.523:32
2.540:32
2.540:18
2.540:218
2.540:575
2.540:958
2.544:988
2.545:971
2.545:919
2.545:827
2.546:659
2.546:205
2.546:17
2.547:17
2.547:107
2.547:426
2.548:813
2.549:877
2.549:727
2.549:436
2.550:278
2.550:18
2.550:18
2.551:275
2.551:584
2.551:990
2.552:988
2.552:984
2.553:910
2.553:785
2.555:627
2.568:168
2.573:17
2.573:17
2.573:142
2.573:504
2.573:807
2.573:871
2.574:703
2.574:422
2.574:296
2.574:17
2.574:17
2.577:277
2.577:611
2.577:988
2.577:988
2.577:989
2.578:854
2.578:788
2.578:728
2.578:197
2.581:17
2.581:97
2.582:208
2.582:661
2.582:890
2.583:900
2.583:769
2.584:503
2.585:301
2.601:301
2.602:17
2.602:18
2.602:282
2.603:620
2.605:988
2.606:988
2.607:989
2.608:859
2.608:745
2.609:635
2.609:147
2.610:17
2.610:98
2.611:218
2.611:659
2.611:866
2.612:881
2.612:713
2.612:442
2.613:282
2.613:17
2.613:17
2.613:341
2.614:605
2.614:987
2.614:989
2.614:960
2.615:953
2.615:805
2.630:638
2.630:131
2.630:17
2.630:124
2.630:255
2.631:717
2.631:891
2.634:866
2.634:676
2.635:432
2.635:257
2.635:17
2.636:17
2.636:301
2.636:626
2.639:987
2.640:989
2.640:946
2.640:911
2.641:821
2.641:565
2.642:105
2.642:20
2.643:209
2.643:261
2.643:792
2.643:860
2.644:863
2.644:642
2.644:412
2.658:412
2.658:228
2.658:17
2.659:17
2.659:439
2.659:712
2.662:987
2.663:989
2.663:974
2.663:864
2.663:762
2.664:577
2.664:86
2.664:17
2.664:155
2.664:245
2.667:823
2.667:937
2.667:942
2.667:656
2.667:415
2.667:234
2.667:17
2.668:17
2.668:411
2.668:693
2.672:987
2.673:989
2.674:971
2.676:895
2.689:771
2.689:544
2.690:62
2.691:17
2.691:128
2.691:335
2.692:887
2.692:937
2.692:909
2.692:626
2.692:405
2.692:212
2.692:17
2.695:52
2.695:473
2.695:783
2.696:986
2.696:989
2.696:932
2.696:904
2.696:757
2.696:531
2.696:38
2.699:17
2.699:123
2.699:251
2.699:807
2.700:873
2.700:863
2.700:611
2.715:611
2.716:419
2.721:241
2.721:17
2.722:21
2.722:439
2.722:743
2.722:988
2.723:989
2.723:989
2.723:912
2.723:755
2.724:464
2.724:22
2.724:70
2.724:226
2.724:346
2.724:798
2.724:883
2.725:848
2.725:612
2.725:400
2.728:193
2.728:17
2.728:89
2.728:491
2.728:812
2.728:987
2.728:989
2.729:922
2.748:879
2.748:731
2.749:418
2.749:17
2.749:95
2.749:242
2.749:372
2.749:857
2.753:951
2.753:915
2.753:596
2.753:396
2.754:178
2.754:18
2.754:126
2.754:495
2.755:885
2.755:987
2.757:989
2.757:921
2.757:894
2.757:787
2.757:430
2.757:21
2.757:183
2.757:280
2.758:387
2.758:883
2.761:938
2.761:868
2.777:868
2.777:600
2.777:412
2.778:179
2.778:17
2.778:152
2.778:505
2.781:870
2.782:987
2.782:989
2.782:940
2.783:865
2.783:757
2.784:384
2.784:17
2.784:148
2.785:276
2.785:445
2.786:927
2.786:954
2.786:871
2.787:597
2.788:408
2.789:151
2.789:17
2.790:221
2.790:596
2.791:920
2.791:987
2.791:988
2.806:989
2.806:925
2.806:809
2.806:388
2.810:17
2.810:86
2.810:209
2.811:446
2.811:885
2.811:937
2.811:898
2.811:583
2.811:384
2.811:120
2.815:17
2.815:255
2.815:575
2.815:989
2.815:987
2.815:989
2.815:989
2.815:884
2.815:735
2.815:292
2.818:17
2.818:79
2.819:211
2.819:531
2.819:904
2.819:913
2.835:913
2.835:798
2.835:502
2.839:334
2.840:64
2.840:18
2.841:281
2.841:591
2.841:989
2.841:988
2.842:989
2.842:930
2.842:798
2.843:713
2.843:244
2.843:17
2.843:99
2.844:210
2.844:585
2.844:855
2.844:924
2.845:829
2.845:540
2.847:345
2.847:54
2.847:17
2.847:265
2.847:614
2.848:989
2.848:988
2.868:990
2.868:966
2.868:800
2.868:656
2.868:179
2.868:17
2.868:131
2.869:233
2.869:626
2.872:890
2.872:907
2.872:723
2.872:458
2.872:302
2.872:21
2.873:17
2.873:235
2.873:559
2.873:989
2.876:988
2.876:964
2.876:977
2.876:883
2.876:656
2.876:160
2.876:17
2.876:172
2.876:242
2.877:707
2.879:899
2.896:899
2.896:866
2.896:728
2.896:442
2.896:302
2.896:22
2.896:17
2.896:336
2.897:655
2.900:987
2.900:988
2.901:989
2.901:989
2.901:839
2.901:651
2.901:153
2.901:17
2.901:148
2.901:242
2.904:783
2.904:908
2.905:950
2.905:787
2.905:485
2.905:271
2.905:17
2.905:18
2.905:294
2.906:569
2.908:988
2.925:984
2.925:913
2.925:865
2.925:732
2.925:551
2.929:36
2.929:17
2.929:59
2.929:198
2.930:772
2.930:901
2.930:851
2.930:624
2.930:424
2.930:333
2.930:40
2.933:91
2.933:569
2.933:883
2.933:984
2.933:985
2.933:986
2.933:987
2.933:988
2.934:959
2.937:503
2.937:407
2.937:593
2.937:777
2.938:985
2.953:985
2.953:984
2.954:982
2.954:985
2.957:988
2.957:957
2.958:682
2.958:680
2.958:988
2.958:986
2.958:980
2.958:981
2.958:982
2.958:985
2.961:986
2.962:989
2.962:516
2.962:472
2.962:525
2.962:613
2.962:988
2.962:987
2.962:988
2.965:761
2.965:493
2.966:228
2.966:18
2.966:17
2.966:303
2.966:585
2.982:989
2.986:865
2.987:755
2.987:709
2.987:570
2.988:331
2.988:18
2.988:18
2.988:17
2.988:104
2.989:696
2.990:726
2.990:712
2.990:460
2.991:284
2.991:96
2.991:18
2.991:17
2.991:283
2.991:662
2.992:988
2.994:945
2.994:906
2.994:815
2.994:733
2.994:447
2.995:17
2.995:17
2.995:97
2.995:260
3.015:260
3.015:766
3.015:827
3.015:794
3.015:550
3.015:328
3.015:115
3.015:17
3.015:34
3.016:363
3.019:707
3.019:987
3.019:989
3.020:943
3.020:896
3.020:681
3.020:368
3.021:17
3.021:17
3.021:127
3.023:296
3.023:771
3.023:895
3.024:838
3.024:576
3.024:378
3.024:137
3.024:17
3.024:105
3.024:489
3.044:798
3.044:987
3.044:989
3.044:901
3.044:845
3.044:701
3.044:362
3.048:17
3.048:54
3.048:196
3.048:344
3.048:845
3.048:918
3.048:787
3.048:473
3.049:283
3.049:63
3.052:17
3.052:157
3.052:540
3.052:801
3.052:988
3.052:989
3.053:973
3.053:926
3.053:809
3.056:401
3.056:17
3.056:113
3.056:205
3.072:205
3.072:391
3.072:864
3.072:916
3.073:822
3.073:567
3.076:379
3.076:105
3.076:17
3.077:150
3.077:532
3.077:909
3.077:988
3.077:989
3.077:948
3.080:797
3.081:655
3.081:297
3.081:17
3.081:152
3.081:236
3.081:435
3.081:897
3.081:964
3.081:799
3.085:541
3.085:363
3.085:104
3.085:17
3.085:199
3.101:615
3.101:988
3.105:987
3.105:989
3.105:989
3.105:901
3.105:734
3.105:307
3.105:17
3.105:178
3.106:265
3.106:556
3.109:864
3.109:929
3.109:860
3.110:525
3.110:374
3.110:99
3.110:17
3.110:207
3.110:627
3.110:989
3.113:988
3.113:989
3.113:903
3.113:895
3.113:735
3.113:278
3.113:17
3.113:240
3.129:240
3.129:309
3.133:644
3.133:967
3.133:989
3.133:839
3.134:571
3.134:381
3.134:109
3.134:17
3.134:281
3.137:643
3.138:988
3.139:987
3.140:988
3.140:989
3.141:907
3.141:778
3.142:284
3.142:17
3.142:306
3.143:367
3.143:719
3.143:990
3.143:983
3.145:831
3.145:564
3.145:386
3.145:121
3.145:17
3.163:413
3.163:671
3.163:987
3.163:987
3.163:989
3.163:988
3.163:989
3.163:779
3.167:271
3.167:24
3.167:247
3.167:371
3.167:847
3.167:989
3.167:989
3.167:855
3.168:609
3.168:437
3.171:136
3.171:36
3.171:488
3.171:798
3.171:986
3.171:987
3.171:988
3.171:989
3.172:964
3.175:786
3.175:275
3.175:48
3.191:48
3.191:231
3.191:372
3.191:890
3.191:990
3.192:989
3.192:915
3.195:601
3.196:444
3.196:130
3.196:53
3.196:433
3.196:757
3.196:986
3.197:987
3.197:988
3.197:950
3.200:892
3.200:703
3.200:232
3.200:113
3.200:339
3.200:419
3.200:938
3.200:988
3.200:988
3.200:835
3.204:559
3.204:404
3.204:87
3.222:79
3.225:481
3.226:789
3.227:985
3.227:987
3.227:988
3.228:989
3.228:921
3.228:726
3.228:204
3.228:72
3.229:236
3.229:369
3.229:886
3.229:962
3.230:989
3.230:725
3.230:490
3.230:317
3.230:19
3.230:66
3.230:453
3.231:739
3.231:986
3.232:988
3.232:961
3.232:909
3.232:829
3.232:566
3.232:49
3.248:49
3.248:17
3.248:44
3.248:214
3.252:804
3.253:880
3.255:862
3.255:570
3.255:346
3.256:168
3.256:17
3.256:17
3.256:334
3.256:693
3.257:988
3.257:981
3.257:814
3.257:762
3.257:668
3.257:382
3.257:17
3.257:18
3.258:17
3.258:191
3.260:749
3.261:818
3.261:751
3.261:516
3.261:273
3.261:79
3.281:18
3.282:17
3.282:303
3.283:639
3.283:989
3.284:890
3.284:848
3.285:632
3.285:556
3.286:350
3.287:17
3.290:17
3.290:37
3.291:203
3.292:707
3.293:774
3.293:728
3.293:422
3.293:272
3.294:82
3.294:18
3.294:17
3.294:360
3.294:680
3.295:989
3.295:918
3.295:864
3.295:800
3.295:668
3.295:334
3.310:334
3.310:18
3.310:17
3.310:85
3.310:230
3.310:734
3.310:814
3.310:765
3.311:459
3.314:289
3.314:62
3.314:18
3.314:20
3.314:474
3.314:746
3.314:989
3.314:915
3.314:837
3.314:860
3.318:703
3.318:336
3.319:17
3.320:17
3.322:72
3.323:255
3.323:731
3.324:840
3.325:784
3.325:481
3.325:304
3.338:63
3.338:18
3.339:83
3.339:422
3.339:790
3.339:988
3.343:938
3.343:820
3.344:726
3.344:659
3.344:278
3.345:18
3.345:38
3.345:135
3.346:318
3.346:807
3.346:848
3.347:754
3.347:435
3.347:262
3.347:18
3.348:18
3.348:95
3.348:456
3.349:787
3.349:989
3.350:959
3.351:956
3.351:804
3.351:646
3.367:646
3.367:240
3.367:17
3.367:88
3.367:125
3.371:374
3.371:786
3.371:869
3.371:772
3.372:483
3.372:298
3.372:25
3.372:18
3.372:188
3.372:479
3.375:894
3.375:989
3.375:945
3.375:891
3.375:792
3.375:620
3.376:196
3.376:17
3.376:44
3.379:147
3.379:414
3.379:834
3.379:844
3.379:756
3.379:462
3.395:283
3.400:19
3.400:18
3.400:230
3.400:637
3.401:940
3.401:989
3.401:943
3.401:950
3.401:836
3.401:706
3.404:219
3.404:17
3.405:20
3.405:143
3.405:480
3.405:812
3.405:835
3.406:675
3.406:424
3.406:299
3.408:20
3.408:18
3.408:246
3.409:522
3.409:989
3.409:989
3.409:966
3.409:879
3.409:816
3.429:816
3.429:634
3.429:150
3.429:17
3.429:103
3.429:211
3.429:547
3.429:811
3.430:860
3.430:657
3.433:422
3.433:251
3.433:17
3.433:18
3.433:212
3.433:571
3.433:989
3.434:982
3.434:899
3.434:839
3.438:799
3.438:635
3.438:146
3.438:17
3.439:87
3.439:197
3.439:634
3.439:834
3.439:880
3.439:589
3.457:384
3.457:233
3.457:17
3.458:17
3.458:335
3.458:582
3.458:988
3.461:989
3.462:892
3.462:989
3.462:836
3.462:615
3.462:102
3.462:18
3.462:39
3.462:140
3.462:697
3.466:820
3.466:834
3.466:624
3.466:383
3.466:237
3.466:17
3.466:17
3.466:325
3.466:622
3.466:988
3.470:989
3.470:924
3.475:848
3.489:848
3.490:751
3.490:557
3.490:75
3.490:17
3.490:94
3.491:155
3.491:703
3.491:826
3.491:848
3.491:633
3.491:385
3.491:218
3.491:17
3.491:17
3.492:379
3.494:684
3.494:987
3.494:989
3.494:877
3.494:896
3.494:762
3.494:540
3.494:53
3.494:17
3.494:212
3.498:273
3.498:799
3.499:895
3.499:898
3.514:685
3.515:405
3.519:204
3.520:17
3.521:17
3.522:363
3.523:668
3.524:987
3.524:989
3.525:871
3.525:942
3.525:839
3.525:518
3.526:21
3.526:60
3.526:215
3.526:258
3.526:756
3.527:851
3.527:871
3.527:615
3.527:362
3.527:194
3.528:18
3.528:17
3.528:370
3.528:632
3.528:988
3.528:989
3.529:875
3.543:875
3.547:772
3.547:690
3.549:483
3.549:17
3.549:17
3.550:157
3.550:289
3.550:804
3.551:875
3.551:821
3.552:573
3.552:348
3.554:166
3.555:18
3.555:17
3.556:465
3.557:698
3.557:988
3.557:989
3.558:939
3.558:895
3.558:751
3.558:491
3.559:17
3.559:17
3.559:91
3.559:223
3.559:769
3.560:876
3.576:807
3.576:563
3.576:344
3.576:133
3.577:18
3.577:92
3.577:473
3.577:755
3.580:987
3.580:990
3.580:914
3.581:891
3.581:739
3.581:403
3.581:17
3.581:17
3.581:58
3.581:283
3.585:789
3.585:843
3.585:835
3.585:527
3.586:308
3.586:89
3.586:17
3.587:108
3.587:491
3.588:774
3.588:988
3.589:955
3.605:955
3.605:830
3.605:824
3.605:666
3.606:359
3.606:17
3.606:17
3.609:121
3.609:290
3.609:805
3.609:871
3.609:794
3.609:476
3.609:270
3.610:72
3.610:18
3.610:155
3.613:471
3.613:830
3.614:989
3.614:941
3.615:928
3.615:839
3.615:728
3.616:324
3.616:18
3.616:17
3.616:117
3.617:371
3.617:848
3.633:880
3.633:804
3.633:525
3.633:331
3.637:73
3.637:17
3.637:124
3.638:524
3.638:824
3.638:989
3.638:953
3.638:909
3.639:811
3.639:650
3.641:246
3.641:18
3.641:20
3.642:146
3.642:350
3.642:802
3.642:864
3.642:765
3.642:447
3.642:315
3.645:67
3.645:18
3.645:177
3.645:541
3.645:885
3.646:988
3.661:988
3.662:944
3.662:913
3.666:761
3.666:641
3.666:222
3.666:18
3.666:78
3.666:172
3.666:457
3.666:798
3.666:850
3.666:759
3.670:455
3.670:291
3.670:23
3.670:18
3.670:170
3.671:606
3.671:988
3.671:988
3.671:971
3.671:896
3.674:778
3.674:646
3.674:193
3.674:17
3.674:162
3.674:198
3.674:502
3.694:803
3.695:857
3.695:698
3.695:451
3.695:269
3.695:16
3.695:18
3.695:225
3.695:601
3.699:989
3.699:989
3.699:972
3.699:984
3.699:884
3.699:675
3.700:178
3.700:17
3.700:17
3.700:133
3.704:578
3.705:787
3.706:851
3.706:746
3.707:450
3.707:266
3.708:17
3.708:17
3.709:321
3.710:587
3.710:988
3.723:988
3.723:988
3.723:973
3.723:893
3.723:768
3.723:615
3.724:129
3.724:18
3.724:51
3.727:179
3.727:651
3.727:830
3.727:856
3.727:676
3.728:467
3.728:284
3.728:17
3.728:17
3.728:294
3.731:537
3.731:988
3.731:989
3.731:924
3.731:989
3.731:843
3.732:637
3.732:116
3.732:17
3.735:108
3.735:183
3.752:711
3.752:856
3.752:904
3.755:702
3.755:448
3.756:253
3.756:17
3.756:17
3.756:238
3.756:579
3.756:988
3.756:989
3.756:942
3.756:965
3.756:833
3.761:559
3.761:88
3.761:17
3.761:175
3.761:269
3.761:800
3.761:874
3.762:888
3.762:705
3.762:422
3.764:219
3.764:17
3.765:17
3.765:402
3.765:615
3.781:615
3.781:987
3.781:989
3.781:951
3.785:849
3.785:761
3.785:545
3.786:47
3.786:18
3.786:66
3.786:233
3.786:778
3.787:850
3.787:870
3.789:709
3.789:438
3.789:240
3.789:17
3.790:17
3.790:358
3.790:601
3.790:988
3.790:961
3.790:890
3.793:896
3.793:737
3.793:479
3.794:17
3.794:18
3.794:49
3.809:205
3.814:689
3.814:827
3.815:854
3.815:486
3.815:295
3.816:128
3.816:18
3.816:17
3.816:358
3.817:748
3.818:988
3.818:982
3.820:895
3.821:783
3.822:672
3.822:400
3.823:17
3.823:18
3.823:66
3.823:204
3.824:749
3.824:824
3.824:820
3.824:547
3.824:317
3.825:116
3.825:18
3.825:17
3.825:425
3.842:425
3.842:732
3.842:988
3.842:969
3.842:864
3.842:762
3.842:654
3.842:426
3.843:17
3.843:17
3.846:74
3.846:241
3.846:737
3.846:811
3.846:774
3.846:533
3.846:327
3.847:107
3.847:18
3.847:17
3.851:399
3.851:747
3.851:988
3.851:962
3.851:868
3.851:787
3.851:706
3.851:391
3.851:17
3.851:17
3.870:130
3.871:263
3.871:769
3.871:837
3.871:815
3.871:524
3.875:306
3.875:68
3.875:18
3.875:17
3.875:341
3.875:658
3.875:978
3.875:890
3.875:771
3.875:705
3.879:614
3.879:273
3.879:18
3.879:21
3.880:155
3.880:258
3.880:706
3.880:790
3.880:738
3.881:472
3.883:244
3.883:29
3.883:18
3.883:30
3.899:30
3.899:456
3.899:825
3.899:988
3.899:989
3.899:989
3.903:978
3.903:880
3.904:534
3.904:172
3.904:424
3.904:528
3.904:705
3.904:987
3.904:985
3.907:987
3.907:989
3.908:845
3.908:654
3.908:474
3.908:784
3.908:987
3.908:982
3.909:979
3.909:981
3.911:983
3.911:985
3.911:986
3.911:809
3.912:406
3.928:546
3.928:651
3.932:793
3.932:987
3.932:986
3.932:988
3.932:796
3.932:541
3.932:208
3.932:17
3.933:283
3.933:502
3.936:874
3.936:971
3.936:825
3.936:769
3.936:675
3.937:539
3.937:96
3.937:18
3.937:18
3.937:17
3.941:183
3.941:588
3.941:619
3.941:525
3.941:290
3.941:83
3.941:18
3.942:19
3.957:19
3.957:75
3.962:427
3.964:802
3.967:901
3.968:826
3.968:750
3.968:654
3.968:485
3.978:45
3.979:18
3.979:18
3.979:17
3.980:371
3.980:708
3.980:752
3.980:632
3.981:345
3.981:173
3.981:17
3.981:18
3.981:200
3.982:522
3.982:898
3.982:923
3.982:781
3.982:713
3.983:649
3.983:553
3.983:66
3.999:18
3.999:17
