0.000:
0.001:865
0.001:553
0.001:405
0.001:167
0.006:17
0.008:17
0.008:103
0.009:510
0.009:842
0.010:987
0.011:989
0.011:951
0.011:864
0.011:759
0.011:435
0.011:22
0.011:17
0.012:195
0.012:355
0.012:861
0.012:917
0.012:852
0.012:861
0.012:908
0.012:865
0.013:553
0.013:405
0.013:167
0.013:17
0.013:17
0.013:103
0.013:510
0.013:842
0.013:987
0.013:989
0.013:951
0.014:864
0.014:759
0.014:435
0.014:22
0.014:17
0.014:195
0.014:355
0.014:861
0.014:917
0.014:852
0.015:896
0.015:896
0.015:682
0.015:434
0.015:17
0.016:18
0.016:17
0.016:131
0.016:728
0.016:803
0.016:792
0.016:517
0.016:274
0.016:89
0.016:18
0.016:18
0.017:250
0.017:561
0.017:988
0.017:940
0.017:851
0.017:771
0.017:629
0.017:397
0.017:17
0.017:18
0.017:17
0.018:121
0.018:755
0.018:755
0.018:836
0.023:772
0.024:524
0.025:272
0.025:103
0.025:18
0.025:17
0.026:271
0.026:586
0.026:988
0.026:947
0.026:876
0.026:805
0.027:662
0.027:427
0.027:17
0.027:18
0.027:17
0.027:114
0.027:702
0.028:768
0.028:759
0.028:503
0.028:261
0.028:73
0.028:18
0.029:18
0.029:222
0.029:508
0.029:989
0.029:893
0.029:840
0.029:825
0.029:671
0.029:464
0.029:17
0.030:18
0.030:19
0.030:120
0.030:713
0.030:793
0.030:743
0.030:489
0.030:273
0.030:105
0.030:18
0.030:18
0.031:249
0.031:550
0.032:989
0.032:899
0.032:817
0.032:859
0.032:669
0.032:412
0.032:17
0.033:18
0.033:17
0.033:113
0.033:113
0.033:678
0.033:795
0.033:765
0.033:584
0.033:313
0.033:97
0.033:17
0.034:18
0.034:272
0.034:528
0.034:988
0.034:910
0.034:863
0.034:881
0.034:681
0.034:415
0.034:17
0.035:18
0.041:17
0.041:145
0.042:722
0.042:764
0.042:742
0.042:480
0.042:260
0.042:110
0.043:18
0.043:18
0.043:261
0.043:538
0.043:989
0.043:899
0.043:807
0.044:803
0.044:661
0.044:428
0.044:17
0.044:18
0.045:17
0.045:145
0.045:677
0.045:734
0.045:743
0.045:512
0.045:274
0.045:96
0.045:18
0.045:18
0.045:244
0.046:562
0.046:989
0.046:870
0.046:781
0.046:793
0.046:681
0.046:450
0.046:17
0.046:18
0.046:20
0.046:20
0.047:118
0.047:681
0.047:744
0.047:812
0.047:537
0.047:291
0.047:119
0.047:18
0.047:18
0.047:254
0.047:550
0.048:988
0.048:939
0.048:827
0.048:740
0.048:615
0.048:404
0.048:17
0.048:18
0.048:17
0.048:156
0.048:685
0.049:766
0.049:775
0.049:466
0.049:266
0.049:111
0.049:18
0.049:18
0.049:287
0.049:587
0.049:988
0.049:928
0.050:834
0.050:816
0.050:670
0.050:416
0.050:17
0.050:18
0.050:17
0.050:137
0.050:691
0.050:794
0.050:793
0.051:544
0.051:345
0.051:134
0.051:18
0.051:18
0.051:316
0.059:628
0.059:988
0.060:962
0.060:833
0.061:756
0.061:685
0.061:420
0.061:17
0.061:18
0.061:18
0.061:17
0.061:114
0.061:644
0.062:756
0.062:744
0.062:540
0.062:296
0.062:115
0.063:18
0.063:18
0.063:291
0.063:620
0.063:987
0.063:956
0.063:880
0.063:867
0.063:687
0.064:427
0.064:17
0.064:18
0.064:17
0.064:121
0.064:733
0.064:812
0.064:813
0.064:539
0.064:310
0.064:123
0.065:18
0.065:18
0.065:304
0.065:629
0.065:988
0.065:962
0.065:864
0.065:877
0.065:706
0.065:479
0.065:17
0.066:18
0.066:18
0.066:118
0.066:662
0.066:752
0.066:754
0.066:528
0.066:310
0.066:120
0.066:18
0.066:18
0.066:257
0.067:611
0.067:988
0.067:972
0.067:848
0.067:860
0.067:698
0.067:503
0.067:17
0.067:17
0.067:18
0.067:17
0.068:143
0.068:751
0.068:781
0.071:808
0.074:584
0.075:336
0.075:151
0.075:18
0.075:17
0.075:362
0.076:642
0.076:988
0.076:950
0.076:878
0.076:850
0.076:709
0.076:509
0.076:17
0.076:17
0.076:22
0.076:149
0.076:742
0.077:805
0.077:805
0.077:528
0.077:314
0.077:127
0.077:18
0.077:18
0.077:261
0.077:537
0.077:988
0.078:987
0.078:884
0.078:830
0.078:680
0.078:451
0.078:17
0.078:18
0.078:23
0.078:180
0.078:713
0.078:814
0.078:819
0.079:582
0.079:368
0.079:170
0.079:17
0.079:17
0.079:290
0.079:587
0.079:988
0.079:969
0.079:913
0.080:830
0.080:747
0.080:476
0.080:476
0.080:17
0.080:18
0.080:98
0.080:218
0.080:770
0.080:844
0.080:867
0.081:595
0.081:382
0.081:209
0.081:18
0.081:17
0.081:333
0.081:585
0.081:987
0.081:989
0.081:894
0.081:894
0.082:748
0.082:515
0.082:36
0.082:17
0.082:70
0.082:226
0.082:796
0.082:854
0.082:910
0.082:655
0.082:410
0.083:198
0.083:17
0.083:17
0.083:333
0.083:656
0.083:987
0.083:989
0.083:941
0.083:830
0.083:773
0.083:511
0.084:31
0.084:17
0.084:123
0.084:273
0.084:855
0.084:901
0.084:914
0.084:598
0.084:386
0.084:233
0.084:17
0.093:17
0.093:314
0.093:650
0.093:987
0.093:989
0.093:990
0.094:898
0.094:782
0.094:782
0.094:580
0.094:68
0.094:18
0.094:108
0.094:265
0.094:841
0.094:941
0.094:972
0.095:716
0.095:474
0.095:300
0.095:17
0.095:17
0.095:379
0.095:719
0.095:986
0.095:988
0.096:989
0.096:938
0.096:795
0.096:592
0.096:100
0.096:17
0.096:147
0.096:288
0.096:888
0.096:929
0.097:939
0.097:683
0.097:471
0.097:292
0.097:17
0.097:17
0.097:434
0.097:718
0.097:986
0.097:988
0.097:989
0.098:989
0.098:841
0.098:587
0.098:89
0.098:17
0.098:177
0.098:310
0.099:898
0.099:972
0.099:967
0.099:681
0.099:436
0.099:259
0.099:17
0.100:17
0.100:405
0.100:741
0.100:986
0.100:988
0.100:959
0.100:950
0.100:950
0.100:745
0.100:556
0.100:53
0.101:17
0.101:120
0.101:238
0.101:792
0.101:882
0.101:902
0.108:674
0.109:458
0.109:247
0.110:17
0.110:17
0.110:407
0.110:667
0.110:987
0.110:989
0.110:989
0.111:966
0.111:823
0.111:533
0.111:40
0.111:17
0.111:83
0.111:245
0.111:810
0.112:884
0.112:871
0.112:698
0.112:460
0.112:261
0.112:17
0.112:17
0.112:376
0.112:638
0.112:986
0.112:988
0.113:989
0.113:989
0.113:836
0.113:566
0.113:59
0.113:17
0.113:95
0.113:284
0.113:820
0.113:884
0.113:891
0.114:685
0.114:429
0.114:274
0.114:17
0.114:17
0.114:374
0.114:661
0.114:987
0.114:988
0.114:963
0.114:963
0.115:885
0.115:772
0.115:545
0.115:70
0.115:17
0.115:115
0.115:277
0.115:871
0.115:942
0.115:908
0.115:688
0.116:466
0.116:283
0.116:17
0.116:17
0.116:437
0.116:687
0.116:987
0.116:988
0.116:989
0.116:955
0.116:819
0.116:595
0.117:48
0.117:17
0.117:103
0.117:213
0.117:800
0.117:879
0.117:903
0.117:691
0.117:410
0.117:262
0.117:17
0.118:17
0.118:406
0.126:761
0.126:986
0.127:987
0.127:988
0.127:988
0.127:966
0.128:770
0.128:319
0.128:213
0.128:446
0.128:622
0.129:986
0.129:985
0.129:984
0.129:987
0.129:989
0.130:890
0.130:640
0.130:681
0.130:988
0.130:985
0.131:978
0.131:981
0.131:981
0.131:983
0.131:982
0.132:984
0.132:988
0.132:596
0.132:420
0.132:582
0.132:683
0.132:987
0.133:986
0.133:987
0.133:947
0.133:640
0.133:383
0.133:46
0.133:17
0.133:370
0.133:675
0.133:987
0.133:940
0.134:813
0.134:781
0.134:603
0.134:381
0.134:17
0.134:18
0.134:17
0.134:104
0.134:670
0.134:772
0.141:780
0.142:546
0.142:275
0.142:106
0.142:18
0.142:17
0.142:204
0.142:487
0.142:989
0.143:933
0.143:826
0.143:882
0.143:723
0.143:529
0.143:56
0.143:17
0.143:104
0.143:247
0.143:821
0.144:923
0.144:923
0.144:653
0.144:431
0.144:284
0.144:17
0.144:17
0.144:403
0.144:662
0.144:987
0.145:987
0.145:988
0.145:989
0.145:868
0.145:772
0.145:573
0.145:76
0.145:17
0.145:93
0.145:275
0.145:859
0.145:912
0.146:921
0.146:710
0.146:457
0.146:280
0.146:17
0.146:17
0.146:395
0.146:682
0.146:987
0.146:988
0.146:989
0.147:985
0.147:832
0.147:591
0.147:109
0.147:17
0.147:178
0.147:320
0.147:885
0.147:971
0.147:962
0.147:702
0.148:535
0.148:340
0.148:35
0.148:43
0.148:442
0.148:773
0.148:985
0.148:987
0.148:989
0.148:989
0.148:901
0.149:684
0.149:176
0.149:22
0.149:196
0.149:374
0.149:895
0.149:951
0.149:962
0.149:703
0.149:480
0.149:326
0.150:19
0.150:23
0.150:475
0.150:789
0.150:789
0.150:986
0.150:988
0.150:989
0.150:988
0.150:974
0.150:678
0.151:177
0.151:47
0.151:215
0.151:363
0.151:938
0.158:989
0.158:989
0.158:768
0.158:545
0.159:354
0.159:61
0.159:41
0.159:523
0.159:812
0.159:985
0.159:987
0.159:988
0.159:951
0.159:881
0.160:668
0.160:188
0.160:49
0.160:223
0.160:355
0.160:907
0.160:989
0.160:989
0.160:845
0.160:631
0.161:419
0.161:113
0.161:96
0.161:543
0.161:847
0.161:985
0.161:986
0.161:988
0.161:988
0.161:978
0.161:713
0.162:228
0.162:92
0.162:278
0.162:428
0.162:938
0.162:989
0.162:989
0.162:781
0.162:563
0.162:398
0.162:86
0.162:89
0.163:491
0.163:491
0.163:821
0.163:985
0.163:987
0.163:988
0.163:988
0.163:944
0.163:773
0.163:256
0.164:107
0.164:280
0.164:415
0.164:968
0.164:988
0.164:988
0.164:872
0.164:611
0.164:441
0.164:138
0.165:116
0.165:559
0.165:838
0.165:985
0.165:987
0.165:988
0.165:988
0.165:989
0.165:758
0.165:271
0.165:131
0.166:332
0.166:463
0.166:988
0.166:988
0.166:988
0.166:895
0.166:665
0.166:490
0.166:186
0.166:187
0.166:597
0.167:946
0.167:984
0.167:985
0.167:987
0.167:987
0.167:989
0.167:787
0.167:296
0.167:186
0.167:364
0.167:507
0.168:989
0.174:987
0.174:987
0.174:900
0.175:667
0.175:491
0.175:206
0.175:203
0.175:203
0.175:650
0.175:962
0.175:983
0.175:985
0.176:987
0.176:988
0.176:990
0.176:832
0.176:319
0.176:192
0.176:361
0.176:486
0.176:988
0.176:987
0.177:987
0.177:937
0.177:703
0.177:527
0.177:218
0.177:192
0.177:653
0.177:894
0.177:984
0.177:986
0.177:987
0.178:986
0.178:988
0.178:781
0.178:297
0.178:162
0.178:379
0.178:465
0.178:989
0.178:988
0.178:988
0.178:872
0.179:636
0.179:452
0.179:140
0.179:160
0.179:537
0.179:820
0.179:984
0.179:986
0.179:987
0.179:987
0.179:982
0.180:694
0.180:186
0.180:51
0.180:229
0.180:378
0.180:967
0.180:989
0.180:989
0.180:810
0.180:578
0.181:339
0.181:29
0.181:29
0.181:51
0.181:406
0.181:726
0.181:986
0.181:988
0.181:978
0.181:945
0.181:825
0.181:599
0.182:77
0.182:17
0.182:132
0.182:232
0.182:779
0.182:906
0.182:904
0.182:699
0.182:421
0.182:251
0.182:17
0.183:17
0.183:341
0.183:572
0.183:987
0.183:989
0.183:862
0.183:821
0.183:708
0.183:501
0.183:22
0.183:17
0.184:31
0.184:205
0.184:790
0.184:830
0.184:884
0.184:586
0.184:345
0.184:190
0.184:17
0.192:17
0.192:273
0.192:613
0.192:988
0.192:984
0.192:935
0.193:813
0.193:716
0.193:496
0.193:17
0.193:18
0.193:38
0.193:198
0.193:755
0.193:862
0.193:858
0.193:585
0.194:350
0.194:177
0.194:177
0.194:17
0.194:17
0.194:321
0.194:736
0.194:987
0.194:989
0.194:941
0.194:848
0.195:708
0.195:483
0.195:26
0.195:17
0.195:70
0.195:257
0.195:804
0.195:862
0.195:865
0.195:608
0.195:395
0.196:219
0.196:17
0.196:17
0.196:379
0.196:659
0.196:987
0.196:989
0.196:937
0.196:909
0.196:799
0.196:555
0.197:63
0.197:17
0.197:154
0.197:269
0.197:832
0.197:944
0.197:897
0.197:650
0.197:408
0.197:201
0.197:17
0.198:17
0.198:311
0.198:633
0.198:987
0.198:989
0.198:940
0.198:887
0.198:798
0.198:563
0.198:73
0.198:17
0.198:86
0.199:227
0.199:781
0.199:900
0.199:920
0.199:716
0.199:479
0.199:479
0.199:265
0.199:17
0.199:17
0.199:378
0.200:720
0.200:986
0.200:989
0.200:984
0.200:902
0.200:783
0.200:526
0.200:48
0.200:17
0.200:121
0.200:273
0.201:813
0.201:914
0.201:923
0.201:616
0.207:433
0.208:270
0.208:17
0.208:17
0.208:410
0.208:706
0.208:987
0.208:988
0.209:977
0.209:890
0.209:806
0.209:541
0.209:81
0.209:17
0.209:140
0.209:260
0.209:825
0.209:919
0.209:966
0.210:667
0.210:467
0.210:282
0.210:17
0.210:17
0.210:436
0.210:756
0.210:986
0.210:987
0.210:989
0.210:988
0.211:879
0.211:604
0.211:107
0.211:17
0.211:140
0.211:268
0.211:870
0.211:937
0.211:872
0.212:622
0.212:622
0.212:382
0.212:257
0.212:17
0.212:17
0.212:391
0.212:717
0.212:987
0.212:988
0.213:989
0.213:907
0.213:827
0.213:584
0.213:97
0.213:17
0.213:142
0.213:280
0.213:881
0.213:946
0.213:913
0.214:702
0.214:460
0.214:284
0.214:17
0.214:17
0.214:401
0.214:657
0.214:987
0.214:988
0.214:988
0.215:956
0.215:830
0.215:608
0.215:96
0.215:17
0.215:105
0.215:244
0.215:823
0.215:969
0.215:940
0.215:735
0.216:476
0.216:292
0.216:17
0.216:17
0.216:436
0.216:766
0.216:986
0.216:988
0.216:989
0.216:989
0.216:851
0.216:608
0.217:103
0.217:17
0.217:128
0.217:248
0.217:836
0.217:940
0.217:933
0.217:933
0.217:663
0.217:451
0.218:327
0.224:17
0.224:17
0.224:372
0.225:767
0.225:987
0.225:988
0.225:968
0.225:938
0.225:813
0.226:541
0.226:72
0.226:17
0.226:109
0.226:258
0.226:841
0.226:908
0.226:950
0.226:670
0.226:416
0.226:248
0.227:17
0.227:17
0.227:363
0.227:698
0.227:987
0.227:989
0.227:989
0.227:855
0.227:797
0.227:567
0.227:82
0.228:17
0.228:156
0.228:288
0.228:856
0.228:915
0.228:916
0.228:664
0.228:444
0.228:274
0.228:17
0.229:17
0.229:365
0.229:753
0.229:986
0.229:988
0.229:976
0.229:989
0.229:801
0.229:578
0.229:84
0.229:17
0.230:138
0.230:287
0.230:810
0.230:936
0.230:936
0.230:939
0.230:663
0.230:464
0.230:277
0.231:17
0.231:17
0.231:390
0.231:695
0.231:986
0.231:989
0.231:981
0.231:943
0.232:811
0.232:623
0.232:97
0.232:17
0.232:169
0.232:251
0.232:813
0.232:882
0.232:945
0.232:707
0.232:443
0.233:255
0.233:17
0.233:17
0.233:414
0.233:660
0.233:987
0.233:988
0.233:974
0.233:935
0.233:863
0.233:589
0.234:103
0.234:17
0.234:145
0.234:261
0.234:779
0.234:894
0.234:885
0.237:683
0.241:439
0.242:267
0.242:17
0.242:17
0.242:387
0.243:777
0.243:986
0.243:988
0.243:989
0.243:918
0.243:842
0.243:608
0.243:99
0.243:17
0.243:138
0.243:271
0.244:825
0.244:825
0.244:911
0.244:891
0.244:688
0.244:439
0.244:270
0.244:17
0.244:17
0.244:403
0.244:703
0.245:986
0.245:988
0.245:981
0.245:990
0.245:827
0.245:634
0.245:104
0.245:17
0.245:155
0.245:278
0.245:848
0.246:921
0.246:949
0.246:750
0.246:481
0.246:273
0.246:17
0.246:17
0.246:358
0.246:693
0.246:987
0.246:988
0.247:951
0.247:947
0.247:833
0.247:578
0.247:89
0.247:17
0.247:91
0.247:257
0.247:839
0.247:937
0.247:962
0.248:686
0.248:454
0.248:283
0.248:17
0.248:17
0.248:361
0.248:638
0.248:987
0.248:989
0.248:989
0.248:944
0.248:822
0.249:542
0.249:84
0.249:17
0.249:155
0.249:287
0.249:287
0.249:835
0.249:906
0.249:916
0.249:666
0.249:432
0.250:262
0.250:17
0.250:17
0.250:354
0.250:699
0.250:986
0.250:988
0.250:989
0.250:866
0.250:780
0.251:637
0.251:118
0.257:17
0.258:142
0.258:263
0.258:828
0.258:959
0.258:949
0.259:761
0.259:503
0.259:303
0.259:17
0.259:17
0.259:378
0.259:670
0.259:986
0.259:988
0.259:989
0.260:901
0.260:838
0.260:525
0.260:68
0.260:17
0.260:117
0.260:286
0.260:862
0.260:948
0.261:937
0.261:675
0.261:436
0.261:276
0.261:17
0.261:17
0.261:456
0.261:701
0.261:986
0.262:988
0.262:989
0.262:908
0.262:813
0.262:563
0.262:94
0.262:17
0.262:152
0.262:152
0.262:285
0.262:884
0.263:961
0.263:986
0.263:702
0.263:473
0.263:296
0.263:17
0.263:17
0.263:383
0.263:679
0.263:986
0.263:988
0.264:989
0.264:989
0.264:922
0.264:643
0.264:113
0.264:17
0.264:109
0.264:237
0.265:825
0.265:973
0.265:975
0.265:727
0.265:492
0.265:316
0.265:19
0.265:32
0.265:485
0.265:783
0.265:986
0.266:988
0.266:989
0.266:988
0.266:919
0.266:646
0.266:125
0.266:17
0.266:108
0.266:245
0.266:816
0.267:931
0.267:945
0.267:707
0.267:462
0.267:280
0.267:17
0.267:17
0.267:419
0.267:764
0.267:987
0.268:988
0.274:947
0.274:927
0.275:773
0.275:580
0.275:59
0.275:17
0.275:17
0.275:69
0.276:207
0.276:743
0.276:905
0.276:901
0.276:612
0.276:396
0.276:217
0.276:17
0.276:17
0.276:312
0.276:607
0.277:987
0.277:989
0.277:946
0.277:859
0.277:783
0.277:525
0.277:65
0.277:17
0.277:105
0.277:262
0.277:822
0.278:919
0.278:911
0.278:616
0.278:388
0.278:202
0.278:17
0.278:17
0.278:312
0.278:655
0.278:987
0.278:989
0.279:931
0.279:897
0.279:763
0.279:566
0.279:80
0.279:17
0.279:71
0.279:218
0.279:788
0.279:909
0.279:873
0.279:609
0.280:390
0.280:220
0.280:17
0.280:17
0.280:363
0.280:739
0.280:987
0.281:989
0.281:955
0.281:913
0.281:812
0.281:579
0.281:77
0.281:77
0.281:17
0.281:85
0.281:234
0.281:802
0.282:928
0.282:875
0.282:645
0.282:435
0.282:217
0.282:17
0.282:17
0.282:398
0.282:707
0.282:987
0.282:989
0.283:985
0.283:828
0.283:703
0.283:470
0.283:17
0.283:18
0.283:38
0.283:159
0.283:764
0.283:823
0.283:843
0.284:582
0.284:322
0.284:150
0.284:17
0.284:17
0.284:301
0.284:667
0.285:987
0.289:989
0.291:989
0.291:959
0.292:872
0.292:688
0.292:197
0.292:87
0.292:314
0.293:453
0.293:988
0.293:987
0.293:986
0.293:988
0.293:825
0.293:663
0.294:406
0.294:471
0.294:896
0.294:987
0.294:980
0.294:980
0.295:980
0.295:980
0.295:982
0.295:985
0.295:985
0.295:778
0.296:577
0.296:719
0.296:874
0.296:985
0.296:984
0.296:984
0.297:988
0.297:894
0.297:695
0.297:346
0.297:290
0.297:669
0.297:965
0.298:984
0.298:987
0.298:989
0.298:934
0.298:726
0.298:472
0.299:17
0.299:18
0.299:17
0.299:48
0.299:610
0.299:708
0.299:712
0.300:439
0.300:191
0.300:22
0.300:18
0.300:18
0.300:110
0.301:445
0.301:989
0.307:891
0.307:812
0.308:819
0.308:672
0.308:424
0.308:17
0.308:18
0.308:17
0.308:161
0.308:721
0.309:795
0.309:839
0.309:551
0.309:324
0.309:159
0.309:18
0.309:17
0.309:399
0.309:671
0.309:987
0.310:989
0.310:878
0.310:926
0.310:794
0.310:794
0.310:563
0.311:20
0.311:17
0.311:25
0.311:182
0.311:738
0.311:843
0.311:867
0.311:607
0.311:363
0.311:191
0.311:17
0.312:18
0.312:289
0.312:571
0.312:987
0.312:971
0.312:888
0.312:884
0.312:772
0.312:518
0.312:24
0.312:18
0.312:57
0.313:218
0.313:755
0.313:838
0.313:893
0.313:674
0.313:412
0.313:225
0.313:17
0.313:17
0.313:416
0.313:746
0.314:987
0.314:989
0.314:902
0.314:886
0.314:777
0.314:565
0.314:48
0.314:17
0.314:70
0.314:248
0.314:773
0.315:864
0.315:928
0.315:619
0.315:404
0.315:250
0.315:17
0.315:17
0.315:341
0.315:644
0.315:987
0.315:989
0.316:919
0.316:823
0.316:823
0.316:729
0.316:534
0.316:43
0.316:17
0.316:82
0.316:253
0.316:838
0.316:947
0.317:931
0.317:683
0.317:447
0.317:279
0.317:17
0.317:17
0.317:392
0.317:686
0.317:986
0.317:988
0.323:961
0.324:989
0.324:857
0.325:599
0.325:83
0.325:17
0.325:108
0.325:267
0.325:777
0.325:913
0.325:939
0.325:699
0.326:464
0.326:274
0.326:17
0.326:17
0.326:434
0.326:740
0.326:987
0.326:988
0.326:989
0.326:932
0.327:813
0.327:584
0.327:97
0.327:17
0.327:178
0.327:287
0.327:822
0.327:937
0.327:983
0.327:680
0.327:473
0.328:295
0.328:17
0.328:17
0.328:406
0.328:728
0.328:986
0.328:988
0.328:989
0.328:989
0.328:988
0.328:916
0.329:666
0.329:156
0.329:17
0.329:171
0.329:320
0.329:831
0.329:914
0.329:990
0.329:714
0.329:493
0.330:317
0.330:35
0.330:37
0.330:462
0.330:762
0.330:986
0.330:987
0.330:989
0.330:954
0.331:843
0.331:610
0.331:136
0.331:17
0.331:184
0.331:349
0.331:908
0.331:989
0.331:989
0.331:799
0.332:534
0.332:365
0.332:83
0.332:79
0.332:477
0.332:779
0.332:985
0.332:987
0.332:989
0.332:988
0.332:961
0.333:694
0.333:196
0.333:40
0.333:226
0.333:395
0.333:944
0.333:989
0.333:989
0.333:813
0.333:608
0.333:417
0.334:117
0.334:113
0.334:535
0.334:852
0.334:985
0.334:986
0.339:986
0.341:988
0.341:988
0.341:940
0.341:712
0.342:220
0.342:106
0.342:278
0.342:401
0.342:989
0.342:988
0.342:989
0.342:854
0.342:604
0.342:419
0.343:126
0.343:105
0.343:527
0.343:826
0.343:984
0.343:987
0.343:988
0.343:988
0.343:938
0.343:733
0.344:227
0.344:58
0.344:255
0.344:358
0.344:940
0.344:989
0.344:989
0.344:803
0.344:549
0.344:356
0.344:64
0.345:65
0.345:476
0.345:810
0.345:985
0.345:987
0.345:988
0.345:986
0.345:871
0.345:650
0.345:145
0.345:17
0.346:188
0.346:285
0.346:876
0.346:942
0.346:931
0.346:685
0.346:468
0.346:273
0.346:17
0.346:17
0.346:361
0.347:650
0.347:987
0.347:987
0.347:989
0.347:989
0.347:917
0.347:761
0.347:514
0.347:20
0.347:17
0.348:37
0.348:170
0.348:768
0.348:826
0.348:833
0.348:562
0.348:351
0.348:171
0.348:18
0.348:18
0.348:236
0.348:514
0.349:989
0.349:947
0.349:843
0.349:839
0.349:721
0.349:473
0.349:17
0.349:18
0.349:17
0.350:81
0.350:683
0.350:785
0.350:755
0.350:542
0.350:279
0.350:103
0.350:18
0.350:18
0.350:248
0.350:486
0.351:989
0.356:912
0.357:833
0.357:688
0.357:610
0.357:385
0.357:18
0.358:18
0.358:17
0.358:151
0.358:693
0.358:781
0.358:765
0.358:490
0.358:283
0.358:98
0.358:18
0.358:18
0.359:220
0.359:462
0.359:462
0.359:988
0.359:918
0.359:815
0.359:870
0.359:707
0.360:457
0.360:17
0.360:18
0.360:17
0.360:137
0.360:687
0.360:796
0.360:819
0.360:526
0.360:307
0.361:135
0.361:18
0.361:18
0.361:346
0.361:566
0.361:987
0.361:989
0.361:876
0.361:890
0.361:706
0.361:456
0.362:17
0.362:18
0.362:17
0.362:160
0.362:775
0.362:845
0.362:832
0.362:551
0.362:328
0.362:176
0.362:18
0.362:18
0.363:326
0.363:598
0.363:988
0.363:965
0.363:902
0.363:786
0.363:652
0.363:446
0.363:17
0.363:18
0.363:25
0.364:190
0.364:735
0.364:809
0.364:871
0.364:530
0.364:348
0.364:176
0.364:18
0.364:18
0.364:278
0.364:278
0.365:604
0.365:987
0.365:990
0.365:949
0.365:785
0.365:670
0.365:516
0.365:19
0.365:18
0.365:18
0.365:191
0.366:780
0.366:869
0.366:830
0.366:621
0.366:390
0.366:218
0.366:17
0.367:17
0.367:311
0.367:587
0.367:988
0.367:988
0.367:887
0.367:874
0.367:743
0.367:516
0.374:19
0.375:18
0.375:46
0.375:202
0.375:843
0.375:891
0.376:884
0.376:632
0.376:393
0.376:206
0.376:17
0.376:17
0.377:328
0.377:630
0.377:987
0.377:989
0.377:935
0.378:849
0.378:707
0.378:504
0.378:19
0.378:18
0.378:45
0.379:229
0.379:743
0.379:860
0.379:830
0.379:626
0.380:391
0.380:200
0.380:17
0.380:17
0.380:17
0.380:348
0.381:655
0.381:987
0.381:985
0.381:902
0.381:840
0.382:746
0.382:532
0.382:39
0.382:17
0.382:90
0.383:241
0.383:786
0.383:870
0.383:895
0.383:618
0.383:385
0.384:192
0.384:17
0.391:17
0.391:407
0.391:691
0.392:987
0.392:989
0.392:949
0.392:870
0.392:765
0.393:525
0.393:26
0.393:17
0.393:82
0.393:199
0.393:756
0.394:844
0.394:884
0.394:622
0.394:384
0.394:214
0.395:17
0.395:17
0.395:404
0.395:703
0.395:987
0.395:989
0.396:948
0.396:821
0.396:703
0.396:527
0.396:25
0.397:17
0.397:41
0.397:181
0.397:812
0.397:889
0.397:896
0.397:662
0.397:415
0.397:259
0.397:17
0.398:17
0.398:17
0.398:288
0.398:686
0.398:986
0.398:988
0.398:977
0.398:868
0.398:746
0.398:518
0.399:34
0.399:17
0.399:81
0.399:243
0.399:879
0.399:917
0.399:892
0.399:590
0.399:379
0.399:192
0.399:18
0.400:17
0.400:315
0.400:646
0.400:987
0.400:989
0.400:936
0.400:816
0.400:733
0.400:536
0.400:38
0.400:18
0.401:98
0.406:215
0.407:810
0.408:872
0.409:903
0.410:651
0.410:424
0.410:222
0.410:17
0.410:17
0.410:359
0.410:627
0.410:986
0.412:988
0.412:989
0.412:989
0.413:818
0.413:524
0.413:22
0.413:18
0.414:38
0.414:184
0.414:800
0.414:879
0.415:845
0.415:583
0.415:374
0.415:196
0.415:196
0.415:17
0.416:17
0.416:324
0.416:715
0.416:986
0.416:988
0.417:989
0.417:945
0.417:771
0.417:518
0.417:30
0.425:17
0.426:62
0.426:213
0.426:794
0.427:889
0.427:908
0.427:651
0.428:433
0.428:231
0.429:17
0.429:17
0.429:410
0.430:740
0.430:987
0.431:988
0.431:963
0.432:913
0.432:765
0.433:496
0.434:27
0.441:17
0.442:93
0.442:215
0.443:823
0.443:890
0.444:905
0.444:639
0.445:392
0.445:222
0.445:17
0.445:17
0.446:397
0.446:696
0.446:987
0.446:989
0.446:943
0.447:926
0.447:800
0.447:506
0.447:24
0.447:17
0.447:50
0.448:182
0.448:747
0.448:868
0.448:827
0.448:599
0.449:376
0.449:376
0.449:202
0.449:17
0.449:17
0.449:412
0.449:677
0.449:987
0.450:989
0.450:944
0.450:868
0.450:727
0.450:524
0.450:25
0.450:17
0.450:46
0.450:183
0.458:697
0.458:818
0.458:795
0.459:625
0.459:437
0.459:271
0.459:17
0.459:17
0.460:397
0.460:662
0.460:988
0.460:989
0.460:989
0.461:869
0.461:736
0.461:526
0.461:37
0.461:17
0.461:128
0.462:246
0.462:782
0.462:880
0.462:894
0.462:655
0.463:408
0.463:233
0.463:17
0.463:17
0.463:348
0.463:616
0.464:988
0.464:989
0.464:964
0.464:952
0.464:776
0.464:547
0.465:42
0.465:17
0.465:70
0.465:272
0.465:813
0.466:881
0.466:904
0.466:642
0.466:642
0.466:369
0.467:198
0.467:17
0.467:17
0.467:358
0.471:679
0.474:988
0.474:989
0.475:919
0.475:928
0.475:767
0.475:532
0.475:53
0.475:17
0.475:96
0.476:299
0.476:828
0.476:934
0.476:867
0.476:609
0.476:414
0.476:227
0.476:17
0.476:17
0.476:393
0.477:706
0.477:987
0.477:989
0.477:953
0.477:838
0.477:765
0.477:517
0.477:32
0.477:18
0.478:97
0.478:228
0.478:774
0.479:874
0.479:878
0.479:673
0.479:452
0.479:241
0.480:17
0.480:17
0.480:396
0.480:716
0.480:987
0.481:989
0.481:950
0.481:891
0.481:790
0.481:590
0.482:93
0.482:17
0.482:150
0.482:261
0.482:755
0.482:903
0.483:934
0.483:934
0.483:681
0.483:457
0.483:270
0.484:17
0.484:17
0.491:470
0.491:781
0.492:987
0.492:988
0.492:988
0.493:966
0.493:809
0.493:578
0.493:65
0.493:17
0.493:141
0.494:245
0.494:804
0.494:900
0.494:884
0.494:619
0.495:411
0.495:244
0.495:17
0.495:17
0.495:410
0.495:720
0.496:987
0.496:989
0.496:952
0.496:934
0.496:762
0.497:494
0.497:17
0.497:18
0.497:53
0.497:192
0.498:702
0.498:840
0.498:837
0.498:572
0.498:344
0.499:180
0.499:18
0.499:18
0.499:330
0.499:663
0.499:988
0.500:989
0.500:974
0.500:937
0.500:784
0.500:529
0.507:30
0.507:17
0.507:48
0.508:207
0.508:699
0.508:857
0.509:857
0.509:871
0.509:571
0.509:360
0.509:202
0.510:17
0.510:17
0.510:410
0.510:662
0.510:988
0.511:968
0.511:947
0.511:829
0.511:757
0.511:498
0.512:17
0.512:18
0.512:64
0.512:213
0.512:755
0.512:906
0.513:845
0.513:575
0.513:358
0.513:175
0.514:17
0.514:17
0.514:285
0.514:657
0.514:988
0.514:990
0.515:944
0.515:939
0.515:773
0.515:515
0.515:26
0.516:17
0.516:99
0.516:214
0.516:765
0.516:904
0.516:890
0.517:654
0.517:390
0.517:204
0.524:17
0.524:17
0.524:353
0.525:636
0.525:988
0.525:989
0.525:908
0.525:832
0.526:721
0.526:457
0.526:17
0.526:18
0.526:17
0.526:110
0.527:690
0.527:690
0.527:796
0.527:796
0.528:506
0.528:323
0.528:143
0.528:18
0.528:18
0.528:317
0.528:582
0.528:988
0.528:977
0.528:886
0.529:870
0.529:741
0.529:530
0.529:57
0.529:17
0.529:175
0.529:318
0.529:955
0.529:989
0.529:988
0.530:940
0.530:714
0.530:562
0.530:282
0.530:315
0.530:788
0.530:986
0.530:981
0.530:982
0.530:983
0.531:983
0.531:984
0.531:986
0.531:787
0.531:669
0.531:806
0.531:923
0.531:984
0.531:983
0.531:983
0.532:987
0.532:938
0.532:723
0.532:393
0.532:422
0.532:848
0.532:989
0.532:983
0.533:985
0.533:987
0.533:989
0.533:843
0.533:551
0.533:17
0.533:18
0.533:17
0.533:63
0.533:63
0.533:580
0.533:654
0.534:659
0.541:428
0.541:163
0.542:17
0.542:19
0.542:18
0.542:159
0.542:548
0.542:964
0.543:786
0.543:704
0.543:686
0.543:545
0.543:324
0.543:17
0.544:18
0.544:17
0.544:128
0.544:681
0.544:741
0.545:7366
0.545:736
0.545:487
0.545:332
0.545:110
0.545:17
0.546:95
0.546:429
0.546:714
0.546:963
0.546:891
0.547:785
0.547:660
0.547:
0.547:397
0.547:666
0.548:947
0.548:870
0.548:771
0.548:700
0.548:579
0.548:297
0.549:17
0.549:27
0.549:181
0.549:327
0.549:768
0.549:826
0.550:736
0.550:487
0.550:332
0.554:110
0.557:17
0.557:95
0.558:429
0.558:714
0.558:963
0.558:891
0.558:785
0.558:660
0.558:
0.558:397
0.559:666
0.559:947
0.559:870
0.559:771
0.559:700
0.559:579
0.559:297
0.559:17
0.559:27
0.559:181
0.559:327
0.560:768
0.560:826
0.560:736
0.560:487
0.560:332
0.560:110
0.560:17
0.560:95
0.560:429
0.560:714
0.560:963
0.561:891
0.561:785
0.561:660
0.561:660
0.561:597
0.561:244
0.561:17
0.561:17
0.561:113
0.561:330
0.561:750
0.562:811
0.562:702
0.562:463
0.562:332
0.562:94
0.562:17
0.563:137
0.563:445
0.563:768
0.563:957
0.563:858
0.563:817
0.563:696
0.564:581
0.564:235
0.564:17
0.564:17
0.564:105
0.564:360
0.564:761
0.564:777
0.564:736
0.564:465
0.564:310
0.565:65
0.565:17
0.565:161
0.565:478
0.565:814
0.565:917
0.565:847
0.565:794
0.565:691
0.565:561
0.565:194
0.566:17
0.566:24
0.566:154
0.566:440
0.566:783
0.566:821
0.566:738
0.566:442
0.567:316
0.567:52
0.574:18
0.574:192
0.575:482
0.575:837
0.575:935
0.575:844
0.575:803
0.575:803
0.575:697
0.576:610
0.576:186
0.576:17
0.576:80
0.576:198
0.576:522
0.576:778
0.577:821
0.577:650
0.577:418
0.577:289
0.577:30
0.577:18
0.577:179
0.577:460
0.578:947
0.578:983
0.578:884
0.578:866
0.578:718
0.578:576
0.578:152
0.578:17
0.578:65
0.578:168
0.579:549
0.579:782
0.579:823
0.579:637
0.579:408
0.579:241
0.579:17
0.579:17
0.579:294
0.579:541
0.579:952
0.580:959
0.580:879
0.580:834
0.580:689
0.580:509
0.580:99
0.580:17
0.580:89
0.580:199
0.580:686
0.580:856
0.581:850
0.581:696
0.581:440
0.581:299
0.581:25
0.581:17
0.581:267
0.581:505
0.581:990
0.581:945
0.581:876
0.582:876
0.582:855
0.582:740
0.582:563
0.582:121
0.582:17
0.582:169
0.582:241
0.582:751
0.582:843
0.583:845
0.583:678
0.583:422
0.583:255
0.583:17
0.583:17
0.583:286
0.583:546
0.583:988
0.583:938
0.583:881
0.584:749
0.590:659
0.591:493
0.591:69
0.591:17
0.591:102
0.591:271
0.591:719
0.592:846
0.592:813
0.592:674
0.592:483
0.592:309
0.592:20
0.592:39
0.592:422
0.592:598
0.593:988
0.593:982
0.593:928
0.593:858
0.593:731
0.593:494
0.593:76
0.593:17
0.593:99
0.593:215
0.593:716
0.594:832
0.594:867
0.594:603
0.594:395
0.594:250
0.594:17
0.594:39
0.594:405
0.594:625
0.594:988
0.595:963
0.595:963
0.595:910
0.595:780
0.595:669
0.595:441
0.595:36
0.595:17
0.595:100
0.595:260
0.595:759
0.596:807
0.596:782
0.596:575
0.596:363
0.596:190
0.596:17
0.597:17
0.597:385
0.597:592
0.597:989
0.597:885
0.597:828
0.597:731
0.597:617
0.597:399
0.597:17
0.598:17
0.598:105
0.598:235
0.598:771
0.598:833
0.598:787
0.598:594
0.598:367
0.598:185
0.598:17
0.599:32
0.599:360
0.599:612
0.599:989
0.599:891
0.599:799
0.599:795
0.599:640
0.599:353
0.599:17
0.599:17
0.600:133
0.600:235
0.600:715
0.600:792
0.600:768
0.600:548
0.603:357
0.606:137
0.607:18
0.607:36
0.607:413
0.608:664
0.608:989
0.608:989
0.608:904
0.608:772
0.609:725
0.609:607
0.609:339
0.609:17
0.609:49
0.609:151
0.610:302
0.610:774
0.610:803
0.610:744
0.610:533
0.610:339
0.611:107
0.611:17
0.611:63
0.611:354
0.611:653
0.611:989
0.611:919
0.612:825
0.612:775
0.612:649
0.612:318
0.612:17
0.612:74
0.613:194
0.613:373
0.613:797
0.613:819
0.613:768
0.613:494
0.614:314
0.614:96
0.614:17
0.614:82
0.614:388
0.614:619
0.615:932
0.615:844
0.615:789
0.615:701
0.615:536
0.615:177
0.615:18
0.616:17
0.616:52
0.616:269
0.616:674
0.616:731
0.617:661
0.622:446
0.623:314
0.624:98
0.624:17
0.624:274
0.624:586
0.624:989
0.624:989
0.624:987
0.625:988
0.625:988
0.625:988
0.625:989
0.625:639
0.625:360
0.625:493
0.625:647
0.625:918
0.626:985
0.626:984
0.626:985
0.626:987
0.626:989
0.626:821
0.626:671
0.626:941
0.627:986
0.627:982
0.627:981
0.627:982
0.627:984
0.627:986
0.627:987
0.627:763
0.627:443
0.627:580
0.628:663
0.628:888
0.628:987
0.628:987
0.628:982
0.628:658
0.628:434
0.628:131
0.628:17
0.628:256
0.628:440
0.629:789
0.629:854
0.629:713
0.629:701
0.629:547
0.629:409
0.629:17
0.629:18
0.629:18
0.629:17
0.629:280
0.630:594
0.630:624
0.630:476
0.630:247
0.630:122
0.630:18
0.630:18
0.630:114
0.630:397
0.630:397
0.630:877
0.631:926
0.631:823
0.631:756
0.631:640
0.631:501
0.631:86
0.631:18
0.631:41
0.631:126
0.631:543
0.631:776
0.632:763
0.632:614
0.632:369
0.632:219
0.632:17
0.632:17
0.632:261
0.632:462
0.632:938
0.632:947
0.632:835
0.633:785
0.633:672
0.633:487
0.633:74
0.633:18
0.633:33
0.633:162
0.633:664
0.633:778
0.633:858
0.634:655
0.640:409
0.640:258
0.640:17
0.640:18
0.640:271
0.641:556
0.641:988
0.641:988
0.641:855
0.641:789
0.641:738
0.641:518
0.641:99
0.642:17
0.642:71
0.642:196
0.642:718
0.642:858
0.642:858
0.642:659
0.642:411
0.642:276
0.642:17
0.642:17
0.643:346
0.643:346
0.643:580
0.643:988
0.643:980
0.643:891
0.643:879
0.643:752
0.643:573
0.643:133
0.643:17
0.644:129
0.644:281
0.644:809
0.644:906
0.644:859
0.644:640
0.644:428
0.644:269
0.644:17
0.644:17
0.644:371
0.645:636
0.645:987
0.645:989
0.645:946
0.645:870
0.645:738
0.645:581
0.645:114
0.646:19
0.646:189
0.646:294
0.646:806
0.646:880
0.646:867
0.646:652
0.646:432
0.646:263
0.646:18
0.646:33
0.647:425
0.647:750
0.647:987
0.647:989
0.647:980
0.647:989
0.647:804
0.647:543
0.647:106
0.647:50
0.647:218
0.648:299
0.648:838
0.648:933
0.648:902
0.648:654
0.648:457
0.648:285
0.648:31
0.648:93
0.658:93
0.663:456
0.664:735
0.664:987
0.664:989
0.664:965
0.664:960
0.664:790
0.665:519
0.665:103
0.665:69
0.667:213
0.667:383
0.667:921
0.667:982
0.668:938
0.668:724
0.668:494
0.668:304
0.669:64
0.669:153
0.674:504
0.674:759
0.674:987
0.675:989
0.675:989
0.675:902
0.676:769
0.676:501
0.676:125
0.691:140
0.691:307
0.691:446
0.692:927
0.692:952
0.692:897
0.692:670
0.695:518
0.695:306
0.696:82
0.696:242
0.696:616
0.696:865
0.696:987
0.696:988
0.696:989
0.696:935
0.699:806
0.699:509
0.700:146
0.700:228
0.700:343
0.700:512
0.700:987
0.700:989
0.700:942
0.704:653
0.707:519
0.707:314
0.707:112
0.723:112
0.723:286
0.724:635
0.724:936
0.724:987
0.725:987
0.725:988
0.725:989
0.725:870
0.725:564
0.725:195
0.725:261
0.725:410
0.726:584
0.726:989
0.726:988
0.728:989
0.728:759
0.728:570
0.728:338
0.728:128
0.728:348
0.729:697
0.729:977
0.729:986
0.732:987
0.732:988
0.733:989
0.733:859
0.733:530
0.749:200
0.749:272
0.749:399
0.753:582
0.753:989
0.754:988
0.754:989
0.755:768
0.755:597
0.756:352
0.756:138
0.756:407
0.757:676
0.757:989
0.757:987
0.758:988
0.758:988
0.758:989
0.759:902
0.759:493
0.759:159
0.759:261
0.761:370
0.761:563
0.761:968
0.762:989
0.762:935
0.762:675
0.763:499
0.763:231
0.778:231
0.778:33
0.781:300
0.782:598
0.782:989
0.782:987
0.782:988
0.782:969
0.783:862
0.783:683
0.783:305
0.783:22
0.787:180
0.789:297
0.790:537
0.790:898
0.790:918
0.790:772
0.790:501
0.790:340
0.790:88
0.790:17
0.791:239
0.791:517
0.791:917
0.791:989
0.791:906
0.792:854
0.792:756
0.792:647
0.810:208
0.810:17
0.810:36
0.810:174
0.810:483
0.810:790
0.810:808
0.810:681
0.811:414
0.814:260
0.814:17
0.814:18
0.814:195
0.814:511
0.814:967
0.815:962
0.815:868
0.815:774
0.815:644
0.823:504
0.824:96
0.824:18
0.824:17
0.824:136
0.824:529
0.824:775
0.825:787
0.825:636
0.825:385
0.825:228
0.840:228
0.840:17
0.840:18
0.840:171
0.840:474
0.841:952
0.841:915
0.841:860
0.843:851
0.843:691
0.843:513
0.843:90
0.843:17
0.843:43
0.843:174
0.843:612
0.843:813
0.843:814
0.847:644
0.847:391
0.847:246
0.847:17
0.847:17
0.847:241
0.847:487
0.847:979
0.847:935
0.848:862
0.851:829
0.851:712
0.867:560
0.868:95
0.871:17
0.872:143
0.872:216
0.873:703
0.873:835
0.874:843
0.874:624
0.874:395
0.874:249
0.874:17
0.874:17
0.874:283
0.874:578
0.875:988
0.875:990
0.876:898
0.876:882
0.876:700
0.876:501
0.876:63
0.876:17
0.876:75
0.876:223
0.879:727
0.880:862
0.880:874
0.880:699
0.881:443
0.896:443
0.896:258
0.896:17
0.896:17
0.901:373
0.902:670
0.902:988
0.906:979
0.908:905
0.908:858
0.908:694
0.909:488
0.910:63
0.910:17
0.910:108
0.910:223
0.911:719
0.911:850
0.911:840
0.911:629
0.912:417
0.912:260
0.912:17
0.912:44
0.913:384
0.913:667
0.913:987
0.913:989
0.914:913
0.914:811
0.929:709
0.929:481
0.929:48
0.930:17
0.930:172
0.930:296
0.931:793
0.931:874
0.931:859
0.932:635
0.933:440
0.934:269
0.935:17
0.935:58
0.938:410
0.940:659
0.941:988
0.943:989
0.943:923
0.943:784
0.944:707
0.944:479
0.944:65
0.945:55
0.945:203
0.945:329
0.946:836
0.946:882
0.947:851
0.947:636
0.958:636
0.958:434
0.959:231
0.959:17
0.959:103
0.960:425
0.960:727
0.960:988
0.961:977
0.961:934
0.962:888
0.962:734
0.962:470
0.962:70
0.962:82
0.962:231
0.962:353
0.963:819
0.963:861
0.965:863
0.966:639
0.966:464
0.966:234
0.967:17
0.968:94
0.968:439
0.970:772
0.971:988
0.973:989
0.973:917
0.988:845
0.989:694
0.990:401
0.990:41
0.990:80
0.990:186
0.990:340
0.990:777
0.990:871
0.990:807
0.991:602
0.991:413
0.991:203
0.991:17
0.991:124
0.991:460
0.994:804
0.994:988
0.995:974
0.995:892
0.995:902
0.995:745
0.995:402
0.995:26
0.995:35
0.995:176
0.998:382
0.998:851
0.998:869
0.998:849
1.014:849
1.015:607
1.015:413
1.015:186
1.015:17
1.020:219
1.022:537
1.023:895
1.023:988
1.023:983
1.023:910
1.024:896
1.024:737
1.024:378
1.024:23
1.024:57
1.024:235
1.025:419
1.025:885
1.025:886
1.025:832
1.025:585
1.025:406
1.026:151
1.026:17
1.027:163
1.027:495
1.027:842
1.027:988
1.030:979
1.043:924
1.043:848
1.047:701
1.048:320
1.048:17
1.048:135
1.049:241
1.049:443
1.051:886
1.055:922
1.057:811
1.057:549
1.057:413
1.057:151
1.058:17
1.058:215
1.058:553
1.058:884
1.059:989
1.059:951
1.059:884
1.059:786
1.059:660
1.059:282
1.059:17
1.059:194
1.059:262
1.060:497
1.060:868
1.060:872
1.072:872
1.076:762
1.076:511
1.076:352
1.077:115
1.077:17
1.077:234
1.077:547
1.077:964
1.077:988
1.080:968
1.080:852
1.080:785
1.080:625
1.080:245
1.081:17
1.081:196
1.081:294
1.081:566
1.081:843
1.084:901
1.086:737
1.088:485
1.090:354
1.090:101
1.090:17
1.090:252
1.090:558
1.090:933
1.091:989
1.106:938
1.106:934
1.106:808
1.106:641
1.107:227
1.107:17
1.107:113
1.109:219
1.109:637
1.110:854
1.110:839
1.110:748
1.111:489
1.111:347
1.111:92
1.112:17
1.112:354
1.113:637
1.113:988
1.114:988
1.114:939
1.114:862
1.115:766
1.115:621
1.115:194
1.116:17
1.116:96
1.117:244
1.118:694
1.121:871
1.134:871
1.134:918
1.134:749
1.135:515
1.137:353
1.138:84
1.140:17
1.140:289
1.141:659
1.141:988
1.141:989
1.141:948
1.142:890
1.142:747
1.142:607
1.142:178
1.142:17
1.142:147
1.142:278
1.143:767
1.143:895
1.143:931
1.143:691
1.143:442
1.143:323
1.143:54
1.145:17
1.145:377
1.146:626
1.146:987
1.162:989
1.162:926
1.162:879
1.168:752
1.171:565
1.173:141
1.175:17
1.176:172
1.176:299
1.177:777
1.178:906
1.178:918
1.179:697
1.179:469
1.180:323
1.180:42
1.180:17
1.180:352
1.181:606
1.181:987
1.181:989
1.181:931
1.182:932
1.182:779
1.182:566
1.182:122
1.182:17
1.183:190
1.183:262
1.184:782
1.191:782
1.191:827
1.195:856
1.195:622
1.195:436
1.195:289
1.195:22
1.195:18
1.196:427
1.196:663
1.196:988
1.196:989
1.199:944
1.199:922
1.199:808
1.200:560
1.200:106
1.200:17
1.200:188
1.201:301
1.202:824
1.206:858
1.206:861
1.207:618
1.207:429
1.207:275
1.207:17
1.207:84
1.207:444
1.208:692
1.223:988
1.224:989
1.224:979
1.224:804
1.224:736
1.224:491
1.225:76
1.225:17
1.225:161
1.228:339
1.228:826
1.228:914
1.228:846
1.228:632
1.228:427
1.228:265
1.228:17
1.229:123
1.232:442
1.232:702
1.232:988
1.232:969
1.232:922
1.232:835
1.232:748
1.232:502
1.232:80
1.232:33
1.236:212
1.238:303
1.256:303
1.256:852
1.256:912
1.256:862
1.256:623
1.256:430
1.256:247
1.257:17
1.257:133
1.257:500
1.257:802
1.257:987
1.257:989
1.257:930
1.257:833
1.258:715
1.258:429
1.260:53
1.260:128
1.260:268
1.261:408
1.261:873
1.261:905
1.261:869
1.261:582
1.261:404
1.261:198
1.264:17
1.265:118
1.265:487
1.281:795
1.281:988
1.281:989
1.281:907
1.286:892
1.290:744
1.290:400
1.290:30
1.291:98
1.291:209
1.291:380
1.291:862
1.291:898
1.292:856
1.292:621
1.292:431
1.292:200
1.292:17
1.292:160
1.292:519
1.292:800
1.293:988
1.293:989
1.293:950
1.293:893
1.293:782
1.293:416
1.293:57
1.294:67
1.294:211
1.309:211
1.310:378
1.310:884
1.314:898
1.314:837
1.315:530
1.315:420
1.315:174
1.316:17
1.318:221
1.319:532
1.321:858
1.323:989
1.324:935
1.325:921
1.325:857
1.326:678
1.326:329
1.326:18
1.327:53
1.327:203
1.328:459
1.328:895
1.329:910
1.329:829
1.330:581
1.330:389
1.331:134
1.331:17
1.331:249
1.342:535
1.342:892
1.342:989
1.343:891
1.343:865
1.343:755
1.343:672
1.343:273
1.343:17
1.343:23
1.346:161
1.346:391
1.347:805
1.347:810
1.347:717
1.347:494
1.348:318
1.348:86
1.348:17
1.348:207
1.355:543
1.356:931
1.359:989
1.359:920
1.359:899
1.359:799
1.359:609
1.360:222
1.360:17
1.360:81
1.372:81
1.372:219
1.372:511
1.372:842
1.374:849
1.374:738
1.374:472
1.375:307
1.375:53
1.375:18
1.375:197
1.375:492
1.376:876
1.376:978
1.376:906
1.376:831
1.376:741
1.376:585
1.376:176
1.379:17
1.379:116
1.379:255
1.379:598
1.379:873
1.379:837
1.380:732
1.380:450
1.380:298
1.380:40
1.383:17
1.400:264
1.401:567
1.403:989
1.406:989
1.407:919
1.407:847
1.407:762
1.407:605
1.408:180
1.408:17
1.408:124
1.408:230
1.408:626
1.409:848
1.409:843
1.409:732
1.409:458
1.409:324
1.409:48
1.409:17
1.409:351
1.409:621
1.409:988
1.409:989
1.410:876
1.412:779
1.412:663
1.412:508
1.412:69
1.412:18
1.428:18
1.428:17
1.428:133
1.428:591
1.428:725
1.433:802
1.433:625
1.433:374
1.433:227
1.434:17
1.435:17
1.439:289
1.439:572
1.439:989
1.440:990
1.440:953
1.440:958
1.440:875
1.440:681
1.440:297
1.440:146
1.441:334
1.441:475
1.441:988
1.441:987
1.441:986
1.441:989
1.441:885
1.441:773
1.441:558
1.457:589
1.461:989
1.461:986
1.461:978
1.461:979
1.461:980
1.461:981
1.462:982
1.462:986
1.462:790
1.462:593
1.465:710
1.465:836
1.465:985
1.465:985
1.466:985
1.466:988
1.467:832
1.467:630
1.467:312
1.470:253
1.471:586
1.472:754
1.472:986
1.472:989
1.473:858
1.473:747
1.473:592
1.473:372
1.473:17
1.489:17
1.490:18
1.490:17
1.490:67
1.490:567
1.490:659
1.490:646
1.490:402
1.490:177
1.490:32
1.490:18
1.491:18
1.494:130
1.494:434
1.494:931
1.494:798
1.494:740
1.494:647
1.494:574
1.494:380
1.495:17
1.495:17
1.498:79
1.498:204
1.498:726
1.498:761
1.498:739
1.498:506
1.498:298
1.498:144
1.520:18
1.520:17
1.524:302
1.524:584
1.524:989
1.524:881
1.525:782
1.525:688
1.525:599
1.525:350
1.525:17
1.525:17
1.525:68
1.526:247
1.526:729
1.526:808
1.526:741
1.527:548
1.527:382
1.527:146
1.527:17
1.527:17
1.527:326
1.527:657
1.528:989
1.528:919
1.528:851
1.530:747
1.530:619
1.530:352
1.547:352
1.547:17
1.547:18
1.547:65
1.547:258
1.548:743
1.548:838
1.553:768
1.555:495
1.555:327
1.556:141
1.556:17
1.556:90
1.556:453
1.556:742
1.557:989
1.557:925
1.557:821
1.557:753
1.557:606
1.557:336
1.558:17
1.558:17
1.558:166
1.558:298
1.558:750
1.559:813
1.559:774
1.559:523
1.559:344
1.575:140
1.576:17
1.576:51
1.580:440
1.580:729
1.580:988
1.580:949
1.580:839
1.580:784
1.580:664
1.580:334
1.580:17
1.581:88
1.585:209
1.588:346
1.589:789
1.589:881
1.589:762
1.590:507
1.590:367
1.590:125
1.590:17
1.590:122
1.590:459
1.590:755
1.590:989
1.590:983
1.590:924
1.591:813
1.591:714
1.605:714
1.606:348
1.608:17
1.608:98
1.609:203
1.609:430
1.609:816
1.609:878
1.609:755
1.609:525
1.609:363
1.609:135
1.612:17
1.613:189
1.613:523
1.613:822
1.613:989
1.613:990
1.613:961
1.613:861
1.613:682
1.613:307
1.620:17
1.620:33
1.622:177
1.622:408
1.623:849
1.623:863
1.623:771
1.623:532
1.641:372
1.641:124
1.642:17
1.643:253
1.643:551
1.643:867
1.644:989
1.644:989
1.644:984
1.644:900
1.644:722
1.644:313
1.645:19
1.645:124
1.645:246
1.645:525
1.645:870
1.645:907
1.645:790
1.645:536
1.645:390
1.646:140
1.646:17
1.646:238
1.646:604
1.646:989
1.646:988
1.646:989
1.650:897
1.652:790
1.666:790
1.674:697
1.674:294
1.674:27
1.674:179
1.675:344
1.675:627
1.675:930
1.675:967
1.675:837
1.675:588
1.675:419
1.675:168
1.675:18
1.676:350
1.676:656
1.676:988
1.676:988
1.676:989
1.676:989
1.676:893
1.676:783
1.676:333
1.676:76
1.676:289
1.677:376
1.677:738
1.678:973
1.678:990
1.678:880
1.694:609
1.694:443
1.694:187
1.694:68
1.698:391
1.698:667
1.699:988
1.699:987
1.699:989
1.700:989
1.700:930
1.706:739
1.706:307
1.706:98
1.706:319
1.707:396
1.707:850
1.707:989
1.707:989
1.707:888
1.707:624
1.708:463
1.708:191
1.708:84
1.708:430
1.708:710
1.708:987
1.708:987
1.709:989
1.709:989
1.723:989
1.723:902
1.723:683
1.727:243
1.727:39
1.727:204
1.727:326
1.727:801
1.728:939
1.728:986
1.728:732
1.728:525
1.728:366
1.731:108
1.732:91
1.735:446
1.736:673
1.739:987
1.741:988
1.741:954
1.741:916
1.741:787
1.742:625
1.742:170
1.742:17
1.742:182
1.742:279
1.743:772
1.743:874
1.743:837
1.756:637
1.756:390
1.756:246
1.756:17
1.756:17
1.757:296
1.757:589
1.757:989
1.757:928
1.757:862
1.760:843
1.760:674
1.760:480
1.760:25
1.760:18
1.760:68
1.760:194
1.760:704
1.761:759
1.761:769
1.764:547
1.764:318
1.764:164
1.764:17
1.764:17
1.764:221
1.764:559
1.765:989
1.765:838
1.765:767
1.788:767
1.788:727
1.789:586
1.789:391
1.789:17
1.789:18
1.789:17
1.790:136
1.790:670
1.790:741
1.790:704
1.790:462
1.790:259
1.790:77
1.790:18
1.790:17
1.791:242
1.791:526
1.791:915
1.793:791
1.793:730
1.793:636
1.793:540
1.793:307
1.793:17
1.793:18
1.793:17
1.793:179
1.793:704
1.793:727
1.813:683
1.813:495
1.813:290
1.813:93
1.813:18
1.813:17
1.819:297
1.822:535
1.822:966
1.823:827
1.823:756
1.823:648
1.823:565
1.823:293
1.823:18
1.824:17
1.824:90
1.824:202
1.824:677
1.824:693
1.824:672
1.824:450
1.824:260
1.824:76
1.824:18
1.824:17
1.825:326
1.825:599
1.825:957
1.825:872
1.842:872
1.842:764
1.842:690
1.842:563
1.842:259
1.846:17
1.846:17
1.846:84
1.846:227
1.846:733
1.846:762
1.846:711
1.846:465
1.847:294
1.847:102
1.853:18
1.855:21
1.855:345
1.856:677
1.856:989
1.856:867
1.856:770
1.856:787
1.856:606
1.857:307
1.857:17
1.857:17
1.857:73
1.858:283
1.858:723
1.872:781
1.874:745
1.875:415
1.875:282
1.875:71
1.875:18
1.875:77
1.875:477
1.875:738
1.875:989
1.875:891
1.879:747
1.879:729
1.879:607
1.879:282
1.879:17
1.879:17
1.879:103
1.879:265
1.879:738
1.880:818
1.883:758
1.883:495
1.885:322
1.886:94
1.888:18
1.888:79
1.888:393
1.888:722
1.889:989
1.903:989
1.903:866
1.903:806
1.904:682
1.904:563
1.904:239
1.904:18
1.904:17
1.904:138
1.904:378
1.907:766
1.907:766
1.907:736
1.907:482
1.908:325
1.908:76
1.908:17
1.908:97
1.908:436
1.908:789
1.908:989
1.911:921
1.911:843
1.911:764
1.912:603
1.912:219
1.912:17
1.912:72
1.912:174
1.912:398
1.933:772
1.933:803
1.934:727
1.934:465
1.934:266
1.934:38
1.934:18
1.936:92
1.936:445
1.936:815
1.936:969
1.936:861
1.936:803
1.936:681
1.937:592
1.937:207
1.937:17
1.940:110
1.940:212
1.940:491
1.940:792
1.940:800
1.941:703
1.941:455
1.941:294
1.941:32
1.941:18
1.944:176
1.944:507
1.944:925
1.960:925
1.960:989
1.961:894
1.961:905
1.961:777
1.961:573
1.965:153
1.965:17
1.965:35
1.965:135
1.965:495
1.966:798
1.966:843
1.966:663
1.970:419
1.970:289
1.971:25
1.971:18
1.971:222
1.972:525
1.972:955
1.972:989
1.972:942
1.972:871
1.972:766
1.972:649
1.973:180
1.973:17
1.973:27
1.973:164
1.989:579
1.989:787
1.989:798
1.993:661
1.994:412
1.994:263
1.994:17
1.994:17
1.994:257
1.994:546
1.994:989
1.995:990
1.995:892
1.997:836
1.998:709
1.998:548
1.998:117
1.998:17
1.999:71
1.999:189
2.000:678
2.000:823
2.001:867
2.001:669
2.001:401
2.002:253
2.002:17
2.002:18
2.002:227
2.002:462
2.018:462
2.018:983
2.022:969
2.022:904
2.022:792
2.022:706
2.022:495
2.022:67
2.022:18
2.023:90
2.023:180
2.023:663
2.026:783
2.026:838
2.026:661
2.026:421
2.026:264
2.026:17
2.027:17
2.027:290
2.027:578
2.027:988
2.030:989
2.030:900
2.030:847
2.030:743
2.030:565
2.030:103
2.031:17
2.031:78
2.051:232
2.051:769
2.051:850
2.051:815
2.051:643
2.051:418
2.051:246
2.051:17
2.055:17
2.055:293
2.055:582
2.055:987
2.055:978
2.055:888
2.055:802
2.055:705
2.055:474
2.055:47
2.059:17
2.059:144
2.059:253
2.059:737
2.059:812
2.059:794
2.059:587
2.059:379
2.059:213
2.060:17
2.063:17
2.063:364
2.079:364
2.079:603
2.079:988
2.079:968
2.080:886
2.080:785
2.080:642
2.084:468
2.084:33
2.084:17
2.084:116
2.084:247
2.084:762
2.084:838
2.084:852
2.084:597
2.084:386
2.088:210
2.088:17
2.088:17
2.088:319
2.088:619
2.088:988
2.088:952
2.088:885
2.089:844
2.089:696
2.092:474
2.092:34
2.092:17
2.108:96
2.108:242
2.108:768
2.108:830
2.112:795
2.112:571
2.112:347
2.112:175
2.112:17
2.112:39
2.112:351
2.112:701
2.113:988
2.113:922
2.119:863
2.119:793
2.122:643
2.122:375
2.122:17
2.122:17
2.122:96
2.122:246
2.122:763
2.122:774
2.122:751
2.122:517
2.122:330
2.122:146
2.123:17
2.123:19
2.136:19
2.136:413
2.136:722
2.141:988
2.141:979
2.141:910
2.141:858
2.141:695
2.141:382
2.141:17
2.141:17
2.141:142
2.141:306
2.145:807
2.145:853
2.146:778
2.146:553
2.146:357
2.146:144
2.146:17
2.146:51
2.146:434
2.146:708
2.149:989
2.149:936
2.150:835
2.150:775
2.150:628
2.150:325
2.151:17
2.170:17
2.170:123
2.170:309
2.170:773
2.170:815
2.170:779
2.170:505
2.170:354
2.170:118
2.171:17
2.174:126
2.174:478
2.174:769
2.174:989
2.174:923
2.174:820
2.174:766
2.174:648
2.174:310
2.175:17
2.178:17
2.178:141
2.178:321
2.178:794
2.178:826
2.178:759
2.179:488
2.179:335
2.179:99
2.179:18
2.199:18
2.199:112
2.199:432
2.200:754
2.200:989
2.200:855
2.200:806
2.200:782
2.201:641
2.203:267
2.203:17
2.203:17
2.203:160
2.203:349
2.203:809
2.203:827
2.204:732
2.204:509
2.204:350
2.207:94
2.207:18
2.207:126
2.207:487
2.207:833
2.208:989
2.208:932
2.208:914
2.208:778
2.208:637
2.210:238
2.227:17
2.227:53
2.227:180
2.227:399
2.227:824
2.227:860
2.231:719
2.231:472
2.234:314
2.234:59
2.234:18
2.235:171
2.235:476
2.238:888
2.238:989
2.239:927
2.239:872
2.239:768
2.239:638
2.239:215
2.240:17
2.240:99
2.240:184
2.240:492
2.240:783
2.241:810
2.241:747
2.241:507
2.241:329
2.242:62
2.256:62
2.256:17
2.257:186
2.257:528
2.257:934
2.260:989
2.260:962
2.260:886
2.261:753
2.261:631
2.261:198
2.261:17
2.262:139
2.262:238
2.262:574
2.264:845
2.264:885
2.264:688
2.267:461
2.271:323
2.271:64
2.273:17
2.273:225
2.273:486
2.274:956
2.274:989
2.274:928
2.274:889
2.274:783
2.275:579
2.288:159
2.288:17
2.288:131
2.289:212
2.289:637
2.289:888
2.289:841
2.290:686
2.290:426
2.290:271
2.290:19
2.292:17
2.292:259
2.293:483
2.293:949
2.293:965
2.293:878
2.293:847
2.294:711
2.294:552
2.294:88
2.296:17
2.296:29
2.296:153
2.297:609
2.297:748
2.297:794
2.297:619
2.297:380
2.297:226
2.318:226
2.320:17
2.321:18
2.321:240
2.321:491
2.321:981
2.321:937
2.321:848
2.321:730
2.321:637
2.322:501
2.322:66
2.322:18
2.322:61
2.322:168
2.322:687
2.322:819
2.322:849
2.322:590
2.322:336
2.325:193
2.325:17
2.325:18
2.325:268
2.325:547
2.325:988
2.325:973
2.326:855
2.326:777
2.326:661
2.345:499
2.345:45
2.346:17
2.346:41
2.346:187
2.346:670
2.346:771
2.350:826
2.350:520
2.350:319
2.350:185
2.350:17
2.350:17
2.350:294
2.350:598
2.350:988
2.350:950
2.354:878
2.354:774
2.354:623
2.354:450
2.354:23
2.354:17
2.354:126
2.354:242
2.354:725
2.354:803
2.357:784
2.357:554
2.357:351
2.374:351
2.374:208
2.374:17
2.374:17
2.374:338
2.374:586
2.378:988
2.378:951
2.378:833
2.378:748
2.378:646
2.378:419
2.379:17
2.379:18
2.379:17
2.379:120
2.382:703
2.382:756
2.382:716
2.383:474
2.383:252
2.383:82
2.383:18
2.383:17
2.383:271
2.383:492
2.387:990
2.387:876
2.387:784
2.387:759
2.403:680
2.403:485
2.403:56
2.407:19
2.407:234
2.407:388
2.407:990
2.408:989
2.408:988
2.408:823
2.408:641
2.408:480
2.411:270
2.411:435
2.412:845
2.412:987
2.412:982
2.412:983
2.412:984
2.412:984
2.413:985
2.413:988
2.415:662
2.416:607
2.416:711
2.416:859
2.416:986
2.416:985
2.416:985
2.417:989
2.432:989
2.432:810
2.437:566
2.438:279
2.438:417
2.439:764
2.439:973
2.439:986
2.439:988
2.439:918
2.439:740
2.440:609
2.440:297
2.440:18
2.441:18
2.441:18
2.441:46
2.441:541
2.441:619
2.441:557
2.441:284
2.442:108
2.444:17
2.444:19
2.444:18
2.444:183
2.444:484
2.444:813
2.444:689
2.445:609
2.465:555
2.465:423
2.465:145
2.466:18
2.466:18
2.467:17
2.468:179
2.470:661
2.470:731
2.471:640
2.471:388
2.471:233
2.471:17
2.472:18
2.472:17
2.472:342
2.472:631
2.472:927
2.472:829
2.473:740
2.473:703
2.473:584
2.473:233
2.473:18
2.473:17
2.473:83
2.473:294
2.473:739
2.473:763
2.476:692
2.493:692
2.493:428
2.493:260
2.493:26
2.493:18
2.494:37
2.494:352
2.494:711
2.497:986
2.497:896
2.498:811
2.498:684
2.498:576
2.498:214
2.499:17
2.499:17
2.499:62
2.499:279
2.501:735
2.501:776
2.502:682
2.502:433
2.502:266
2.502:27
2.502:18
2.502:99
2.502:387
2.502:714
2.505:952
2.505:859
2.522:819
2.522:745
2.522:532
2.522:175
2.526:18
2.526:17
2.526:131
2.526:364
2.526:783
2.526:806
2.526:701
2.527:415
2.527:276
2.527:22
2.530:18
2.530:115
2.530:450
2.530:850
2.530:989
2.530:896
2.531:915
2.531:825
2.531:647
2.531:202
2.534:18
2.534:44
2.534:179
2.534:454
2.534:761
2.534:801
2.550:801
2.550:703
2.550:467
2.555:276
2.555:23
2.555:18
2.555:165
2.555:447
2.555:852
2.555:951
2.555:902
2.555:824
2.556:703
2.559:588
2.559:156
2.559:17
2.559:91
2.559:161
2.559:532
2.559:801
2.559:856
2.559:671
2.559:416
2.563:277
2.563:27
2.563:18
2.563:178
2.563:481
2.563:988
2.563:989
2.583:938
2.583:817
2.583:694
2.583:575
2.583:149
2.584:17
2.584:117
2.584:194
2.584:572
2.587:811
2.587:852
2.587:693
2.587:440
2.587:300
2.587:36
2.588:17
2.588:235
2.588:570
2.588:989
2.591:989
2.591:858
2.591:857
2.591:746
2.592:583
2.592:147
2.592:17
2.592:152
2.592:224
2.592:667
2.595:852
2.611:852
2.611:899
2.611:695
2.612:453
2.612:318
2.612:52
2.612:17
2.612:414
2.612:639
2.615:987
2.616:988
2.616:968
2.616:943
2.616:833
2.616:609
2.616:173
2.616:17
2.616:160
2.616:311
2.620:783
2.620:905
2.620:912
2.620:743
2.620:543
2.620:352
2.620:62
2.620:17
2.620:348
2.620:583
2.623:987
2.640:989
2.640:979
2.640:928
2.640:813
2.640:586
2.644:166
2.645:23
2.645:239
2.645:362
2.646:836
2.646:938
2.646:932
2.648:718
2.648:503
2.648:364
2.649:79
2.649:39
2.649:420
2.649:704
2.649:987
2.649:988
2.650:990
2.650:902
2.650:824
2.650:668
2.653:195
2.653:87
2.653:301
2.653:370
2.653:900
2.669:900
2.669:945
2.669:950
2.669:726
2.673:515
2.673:370
2.673:79
2.673:113
2.673:500
2.673:797
2.673:986
2.673:988
2.673:989
2.673:975
2.677:836
2.677:613
2.677:164
2.677:47
2.677:209
2.677:340
2.677:864
2.677:953
2.677:930
2.678:696
2.682:485
2.682:312
2.682:25
2.682:65
2.683:454
2.683:673
2.698:987
2.702:989
2.702:943
2.702:868
2.702:751
2.702:523
2.702:70
2.702:19
2.702:178
2.703:317
2.703:812
2.706:871
2.706:847
2.706:551
2.706:348
2.706:168
2.706:17
2.706:17
2.706:333
2.707:623
2.707:989
2.710:881
2.710:777
2.710:686
2.711:605
2.711:333
2.712:17
2.712:18
2.712:17
2.712:179
2.731:179
2.731:681
2.731:728
2.731:661
2.731:395
2.731:212
2.732:18
2.732:18
2.732:18
2.732:258
2.735:596
2.735:903
2.735:762
2.735:735
2.735:618
2.735:531
2.735:214
2.735:18
2.735:18
2.735:17
2.739:117
2.739:607
2.739:663
2.739:635
2.739:352
2.739:187
2.739:17
2.739:18
2.739:17
2.739:263
2.759:569
2.759:874
2.759:747
2.759:695
2.760:639
2.760:503
2.760:172
2.763:18
2.763:18
2.763:29
2.763:192
2.763:637
2.764:675
2.764:589
2.765:325
2.765:163
2.765:17
2.767:18
2.768:17
2.768:296
2.768:545
2.768:861
2.768:764
2.768:675
2.768:580
2.768:437
2.768:123
2.771:18
2.771:17
2.771:18
2.787:18
2.787:192
2.787:645
2.787:689
2.787:615
2.787:344
2.792:176
2.792:17
2.792:18
2.792:18
2.794:325
2.794:685
2.795:956
2.795:805
2.795:723
2.796:630
2.796:504
2.796:147
2.796:18
2.798:18
2.798:17
2.798:231
2.799:665
2.799:734
2.799:689
2.799:392
2.799:220
2.799:17
2.799:18
2.799:79
2.816:391
2.816:724
2.820:927
2.820:790
2.820:700
2.820:645
2.820:499
2.820:147
2.821:18
2.821:17
2.821:54
2.821:279
2.821:694
2.824:719
2.824:646
2.824:378
2.824:199
2.824:17
2.824:18
2.825:79
2.825:428
2.825:846
2.825:977
2.829:834
2.829:808
2.829:742
2.829:516
2.829:126
2.829:18
2.829:17
2.845:17
2.845:78
2.849:349
2.849:724
2.849:753
2.850:641
2.850:372
2.850:230
2.850:17
2.850:18
2.850:106
2.850:429
2.853:843
2.853:940
2.853:814
2.853:726
2.853:591
2.853:465
2.853:73
2.853:18
2.853:17
2.853:124
2.857:400
2.857:740
2.857:775
2.857:618
2.857:368
2.857:222
2.858:17
2.858:18
2.878:130
2.878:466
2.878:953
2.878:926
2.878:862
2.878:791
2.878:698
2.878:515
2.883:76
2.883:18
2.883:24
2.883:128
2.883:575
2.883:805
2.883:791
2.884:668
2.884:380
2.884:206
2.886:17
2.886:18
2.886:212
2.886:457
2.886:895
2.886:948
2.886:842
2.886:791
2.886:678
2.886:521
2.890:68
2.890:18
2.906:18
2.906:17
2.906:122
2.906:598
2.907:750
2.907:783
2.907:615
2.910:375
2.910:226
2.910:17
2.910:18
2.911:224
2.911:465
2.911:946
2.911:920
2.911:842
2.911:857
2.914:679
2.914:534
2.915:62
2.915:18
2.915:20
2.915:148
2.915:659
2.915:784
2.915:785
2.915:564
2.916:310
2.918:157
2.918:17
2.935:18
2.935:224
2.935:430
2.935:989
2.939:889
2.939:836
2.939:786
2.939:658
2.939:505
2.939:42
2.940:18
2.940:105
2.940:167
2.940:697
2.943:783
2.943:791
2.943:633
2.943:372
2.944:179
2.944:17
2.944:18
2.944:244
2.944:492
2.944:989
2.947:916
2.948:810
2.948:806
2.948:672
2.948:444
2.948:18
2.964:18
2.964:18
2.964:26
2.964:170
2.970:670
2.971:744
2.971:740
2.971:511
2.971:298
2.971:156
2.971:17
2.972:17
2.972:298
2.972:519
2.972:990
2.972:890
2.972:820
2.972:726
2.973:624
2.973:403
2.973:17
2.973:18
2.973:48
2.973:196
2.976:696
2.976:778
2.976:763
2.976:472
2.976:300
2.976:164
2.996:18
2.997:17
2.997:300
2.998:597
2.998:989
2.998:899
2.998:820
2.998:699
2.998:572
2.998:400
3.001:17
3.001:17
3.001:95
3.001:218
3.001:724
3.001:786
3.001:763
3.001:502
3.001:320
3.001:141
3.005:18
3.005:17
3.005:333
3.005:607
3.005:989
3.005:914
3.005:833
3.006:720
3.006:579
3.006:359
3.025:359
3.025:17
3.025:17
3.025:82
3.025:231
3.025:752
3.025:814
3.026:763
3.026:559
3.029:374
3.029:138
3.029:18
3.029:17
3.029:320
3.030:635
3.030:989
3.030:910
3.031:817
3.031:687
3.033:595
3.033:320
3.033:17
3.034:17
3.034:99
3.034:271
3.034:742
3.034:824
3.034:762
3.034:505
3.037:327
3.054:96
3.054:18
3.054:22
3.054:383
3.054:714
3.054:988
3.058:883
3.058:823
3.058:750
3.058:613
3.058:325
3.059:17
3.059:17
3.059:85
3.059:282
3.059:778
3.062:760
3.062:733
3.063:460
3.065:312
3.066:82
3.067:18
3.067:55
3.068:387
3.068:691
3.068:989
3.068:906
3.068:830
3.068:746
3.069:595
3.082:595
3.082:262
3.082:17
3.082:17
3.083:93
3.087:317
3.087:765
3.087:810
3.087:758
3.087:484
3.087:299
3.087:60
3.087:17
3.087:40
3.087:404
3.091:694
3.091:989
3.091:907
3.091:819
3.091:707
3.091:557
3.091:193
3.091:18
3.091:17
3.091:143
3.095:308
3.095:765
3.095:799
3.095:723
3.095:462
3.111:289
3.115:47
3.116:18
3.116:53
3.117:440
3.118:796
3.118:989
3.118:873
3.119:819
3.119:784
3.119:565
3.119:185
3.119:17
3.119:17
3.119:131
3.120:422
3.120:804
3.120:805
3.120:698
3.120:418
3.120:269
3.124:17
3.124:18
3.124:165
3.124:472
3.124:818
3.124:989
3.124:883
3.124:801
3.124:737
3.144:737
3.144:622
3.144:189
3.144:17
3.145:17
3.145:132
3.145:457
3.145:792
3.145:795
3.145:678
3.148:456
3.148:269
3.149:19
3.149:18
3.149:139
3.149:414
3.149:804
3.149:963
3.149:886
3.149:818
3.152:697
3.152:562
3.152:127
3.152:18
3.152:61
3.152:161
3.152:492
3.152:812
3.152:842
3.153:665
3.172:418
3.172:256
3.172:17
3.172:18
3.172:156
3.173:401
3.173:923
3.177:944
3.177:868
3.177:805
3.177:683
3.177:548
3.177:126
3.177:18
3.177:44
3.177:123
3.177:516
3.181:751
3.181:807
3.182:626
3.182:382
3.182:232
3.182:17
3.182:18
3.182:260
3.182:543
3.182:962
3.185:968
3.185:873
3.185:884
3.201:884
3.201:783
3.201:557
3.201:97
3.201:18
3.201:44
3.206:163
3.206:636
3.206:766
3.206:824
3.206:595
3.206:376
3.206:239
3.206:17
3.206:18
3.206:301
3.209:532
3.209:989
3.209:964
3.210:843
3.210:822
3.210:691
3.210:505
3.210:60
3.210:17
3.210:61
3.214:185
3.215:692
3.216:787
3.217:802
3.230:668
3.231:401
3.234:221
3.234:17
3.234:17
3.234:270
3.234:505
3.234:989
3.234:921
3.234:838
3.235:830
3.235:699
3.238:479
3.238:43
3.238:17
3.238:30
3.238:185
3.238:733
3.238:805
3.238:823
3.238:651
3.238:394
3.242:212
3.242:17
3.242:17
3.244:282
3.244:579
3.244:989
3.245:942
3.245:841
3.258:841
3.263:815
3.263:715
3.263:505
3.263:48
3.263:17
3.264:50
3.264:188
3.264:705
3.264:794
3.264:835
3.264:566
3.266:371
3.266:191
3.266:17
3.267:17
3.267:314
3.267:567
3.267:988
3.267:939
3.267:858
3.267:760
3.270:616
3.270:431
3.270:17
3.271:17
3.271:81
3.271:210
3.271:681
3.271:777
3.291:754
3.291:589
3.291:351
3.291:174
3.291:17
3.291:17
3.291:373
3.291:693
3.296:988
3.296:973
3.296:867
3.296:829
3.296:668
3.296:427
3.296:17
3.297:17
3.297:115
3.297:271
3.300:742
3.300:801
3.300:780
3.300:581
3.300:379
3.300:179
3.300:17
3.300:17
3.300:378
3.300:640
3.304:988
3.304:975
3.320:975
3.320:887
3.320:843
3.320:685
3.320:411
3.320:17
3.321:17
3.324:160
3.324:264
3.324:762
3.324:855
3.324:795
3.324:563
3.324:367
3.324:167
3.324:17
3.324:86
3.328:459
3.328:756
3.328:988
3.328:924
3.328:857
3.328:818
3.328:643
3.328:394
3.328:17
3.328:17
3.332:105
3.332:259
3.332:742
3.348:796
3.348:788
3.348:474
3.348:335
3.352:109
3.352:18
3.352:37
3.352:423
3.353:690
3.353:989
3.353:902
3.353:827
3.353:792
3.353:623
3.356:279
3.356:18
3.356:17
3.357:75
3.357:269
3.357:700
3.357:736
3.357:728
3.357:420
3.357:279
3.361:54
3.361:18
3.361:25
3.361:399
3.361:697
3.361:989
3.377:989
3.377:882
3.377:827
3.382:749
3.382:586
3.382:266
3.382:17
3.382:17
3.383:134
3.383:329
3.383:757
3.383:777
3.383:674
3.386:442
3.386:287
3.386:48
3.386:18
3.386:85
3.386:422
3.386:685
3.386:988
3.386:839
3.386:820
3.390:743
3.390:605
3.390:228
3.390:17
3.390:17
3.390:84
3.390:308
3.410:764
3.410:787
3.410:712
3.411:479
3.411:312
3.411:46
3.411:18
3.411:109
3.411:456
3.414:781
3.414:978
3.415:877
3.415:761
3.415:655
3.415:593
3.415:204
3.415:17
3.415:17
3.415:145
3.419:356
3.419:748
3.419:789
3.419:638
3.419:363
3.419:239
3.419:17
3.419:18
3.419:68
3.419:396
3.420:740
3.439:740
3.439:916
3.439:812
3.439:739
3.439:603
3.439:513
3.439:96
3.440:18
3.440:17
3.443:114
3.443:344
3.443:691
3.443:750
3.443:618
3.444:429
3.444:269
3.444:25
3.444:17
3.444:233
3.447:565
3.447:989
3.448:988
3.448:988
3.448:988
3.449:989
3.449:921
3.449:505
3.449:263
3.451:495
3.451:601
3.470:937
3.470:986
3.471:984
3.471:986
3.471:988
3.472:962
3.472:737
3.472:586
3.472:933
3.473:986
3.473:981
3.473:981
3.473:983
3.474:984
3.474:986
3.477:988
3.477:674
3.478:425
3.478:636
3.478:636
3.478:987
3.478:987
3.478:988
3.479:910
3.480:595
3.480:378
3.482:48
3.483:18
3.483:159
3.483:443
3.497:443
3.497:846
3.498:830
3.498:697
3.500:594
3.501:489
3.501:300
3.501:18
3.501:19
3.501:18
3.501:17
3.501:434
3.501:575
3.501:609
3.504:440
3.505:209
3.505:72
3.505:18
3.505:18
3.505:109
3.505:362
3.505:903
3.505:830
3.505:777
3.505:700
3.508:589
3.509:417
3.509:17
3.509:18
3.509:17
3.525:84
3.529:591
3.529:757
3.529:728
3.530:541
3.530:285
3.530:134
3.531:18
3.532:18
3.532:189
3.532:474
3.533:987
3.533:873
3.533:731
3.533:692
3.534:589
3.534:411
3.534:17
3.534:18
3.534:17
3.534:114
3.537:620
3.537:711
3.537:779
3.537:499
3.537:303
3.538:143
3.538:18
3.538:18
3.538:199
3.557:199
3.558:480
3.558:989
3.558:902
3.558:837
3.558:760
3.558:613
3.558:437
3.558:17
3.558:17
3.562:20
3.562:151
3.562:664
3.562:740
3.562:755
3.562:533
3.562:309
3.562:133
3.562:18
3.563:17
3.566:271
3.566:560
3.566:989
3.566:938
3.566:834
3.566:732
3.566:621
3.566:414
3.566:17
3.567:18
3.586:50
3.586:203
3.586:698
3.586:771
3.586:747
3.587:576
3.587:329
3.590:151
3.590:17
3.590:17
3.591:293
3.591:555
3.591:989
3.591:934
3.591:859
3.591:745
3.591:616
3.594:397
3.594:17
3.595:18
3.595:92
3.595:220
3.595:727
3.595:822
3.595:763
3.595:566
3.595:376
3.598:181
3.598:17
3.598:27
3.614:27
3.614:420
3.614:697
3.614:988
3.614:959
3.615:853
3.619:860
3.619:654
3.619:400
3.619:17
3.619:18
3.619:150
3.619:255
3.619:738
3.620:841
3.620:774
3.623:520
3.623:337
3.623:147
3.623:17
3.623:17
3.623:357
3.623:659
3.623:988
3.623:968
3.623:894
3.626:811
3.627:711
3.627:416
3.627:18
3.643:17
3.643:147
3.643:315
3.647:822
3.647:870
3.648:809
3.648:510
3.648:348
3.648:161
3.648:17
3.648:108
3.648:507
3.651:786
3.652:988
3.652:989
3.653:866
3.653:807
3.653:689
3.654:369
3.654:17
3.654:36
3.655:166
3.655:339
3.656:844
3.656:892
3.656:815
3.657:528
3.657:370
3.657:174
3.657:17
3.672:17
3.672:161
3.676:491
3.676:822
3.676:988
3.676:989
3.676:948
3.676:948
3.677:797
3.677:409
3.677:31
3.680:100
3.680:235
3.681:431
3.681:854
3.682:937
3.682:830
3.682:584
3.682:431
3.682:196
3.682:17
3.684:239
3.684:558
3.684:860
3.684:988
3.684:990
3.685:956
3.685:902
3.685:757
3.685:400
3.705:60
3.705:117
3.705:270
3.705:466
3.705:907
3.705:962
3.705:872
3.705:619
3.709:456
3.709:219
3.709:20
3.709:277
3.710:553
3.710:907
3.710:987
3.710:989
3.711:986
3.711:891
3.713:759
3.713:373
3.713:46
3.714:188
3.714:324
3.714:551
3.714:935
3.715:945
3.715:875
3.717:578
3.717:434
3.717:184
3.733:184
3.733:17
3.733:324
3.733:622
3.733:965
3.734:987
3.734:989
3.737:906
3.738:816
3.738:713
3.738:318
3.738:20
3.738:133
3.738:259
3.738:522
3.738:867
3.738:890
3.741:731
3.741:528
3.742:367
3.742:120
3.742:17
3.742:252
3.742:534
3.742:936
3.742:989
3.746:954
3.746:931
3.747:773
3.747:578
3.763:171
3.766:18
3.768:20
3.769:151
3.770:516
3.770:816
3.770:824
3.770:623
3.770:387
3.770:259
3.771:17
3.771:18
3.771:189
3.771:554
3.772:940
3.772:966
3.773:856
3.773:831
3.773:705
3.773:550
3.773:89
3.773:18
3.773:17
3.773:52
3.774:436
3.774:675
3.774:693
3.774:585
3.774:313
3.775:143
3.790:143
3.790:17
3.790:18
3.795:103
3.795:401
3.795:881
3.795:869
3.796:721
3.797:658
3.798:582
3.799:420
3.799:17
3.799:18
3.799:17
3.799:53
3.799:489
3.800:671
3.800:630
3.800:501
3.800:276
3.800:113
3.800:18
3.800:18
3.803:126
3.803:385
3.804:919
3.804:833
3.804:729
3.805:656
3.805:555
3.823:390
3.823:17
3.823:18
3.824:17
3.824:47
3.824:579
3.824:680
3.824:672
3.824:471
3.824:243
3.828:95
3.828:18
3.831:18
3.832:153
3.833:426
3.833:962
3.834:832
3.834:714
3.835:624
3.835:522
3.835:381
3.835:17
3.836:18
3.836:17
3.836:59
3.836:591
3.836:713
3.837:676
3.837:498
3.837:297
3.852:297
3.852:129
3.852:18
3.852:18
3.852:279
3.852:503
3.852:989
3.853:856
3.853:759
3.856:696
3.856:571
3.856:422
3.856:17
3.856:18
3.856:33
3.857:122
3.857:667
3.857:714
3.857:729
3.860:515
3.860:311
3.860:139
3.860:17
3.860:17
3.861:232
3.861:487
3.861:935
3.861:849
3.861:740
3.864:721
3.881:607
3.882:430
3.882:17
3.882:18
3.882:30
3.885:211
3.885:706
3.885:796
3.885:735
3.885:499
3.886:294
3.886:122
3.886:18
3.886:17
3.886:261
3.889:548
3.889:989
3.889:898
3.889:783
3.889:737
3.889:646
3.889:429
3.889:17
3.889:18
3.890:75
3.890:221
3.893:767
3.893:812
3.893:754
3.893:493
3.909:493
3.909:314
3.909:123
3.910:18
3.914:17
3.920:283
3.921:584
3.921:989
3.921:879
3.921:820
3.922:732
3.922:593
3.922:391
3.922:17
3.922:17
3.923:108
3.923:250
3.923:758
3.923:789
3.923:730
3.924:485
3.924:289
3.924:121
3.924:18
3.925:17
3.925:323
3.925:587
3.925:989
3.925:902
3.925:802
3.938:690
3.942:640
3.942:355
3.942:17
3.942:17
3.942:64
3.942:230
3.943:743
3.943:811
3.943:735
3.943:480
3.947:334
3.949:118
3.951:18
3.952:54
3.952:363
3.952:758
3.952:989
3.953:902
3.953:813
3.953:764
3.953:603
3.953:312
3.953:17
3.953:17
3.953:89
3.953:254
3.953:700
3.954:791
3.954:799
3.971:799
3.971:527
3.971:310
3.971:93
3.971:18
3.971:97
3.971:375
3.971:669
3.971:989
3.971:897
3.975:816
3.975:761
3.975:639
3.975:317
3.975:17
3.975:17
3.975:111
3.975:282
3.975:708
3.976:810
3.980:718
3.981:480
3.981:292
3.982:79
3.982:18
3.982:50
3.982:408
3.983:682
3.983:977
3.983:880
4.001:859
4.002:759
4.002:611
4.002:255
4.002:17
4.002:17
4.002:103
4.003:285
4.004:729
4.004:801
4.004:722
4.004:460
4.004:324
4.004:80
4.004:18
4.004:123
4.004:403
4.007:762
4.008:990
4.008:888
4.008:865
4.008:831
4.008:645
4.008:223
4.008:18
4.008:17
4.012:137
4.012:364
4.013:753
4.015:798
4.028:798
4.031:706
4.035:448
4.035:283
4.035:44
4.035:18
4.035:73
4.036:390
4.036:810
4.036:971
4.036:857
4.036:827
4.037:708
4.037:583
4.037:190
4.037:17
4.037:17
4.038:135
4.038:403
4.038:793
4.038:810
4.038:685
4.038:413
4.038:265
4.038:30
4.038:18
4.040:198
4.040:458
4.040:861
4.040:982
4.056:850
4.057:778
4.061:699
4.061:549
4.061:151
4.061:17
4.061:17
4.062:121
4.063:461
4.064:747
4.065:793
4.065:662
4.065:391
4.065:273
4.066:17
4.066:18
4.066:218
4.066:467
4.067:899
4.067:989
4.067:894
4.067:839
4.069:719
4.069:585
4.069:141
4.069:17
4.069:62
4.069:171
4.069:558
4.070:753
4.085:753
4.091:762
4.091:714
4.092:435
4.092:285
4.092:17
4.093:17
4.093:194
4.094:489
4.096:936
4.099:967
4.100:864
4.100:882
4.101:785
4.101:619
4.102:143
4.102:17
4.103:61
4.103:187
4.103:600
4.104:768
4.104:801
4.104:648
4.105:377
4.105:234
4.106:17
4.106:18
4.106:269
4.106:532
4.107:958
4.118:947
4.119:891
4.119:873
4.119:718
4.120:599
4.120:120
4.120:17
4.120:46
4.122:182
4.122:678
4.122:804
4.123:796
4.123:624
4.123:385
4.123:239
4.123:17
4.123:17
4.123:256
4.127:519
4.127:989
4.127:926
4.127:815
4.127:745
4.127:680
4.127:485
4.127:50
4.128:17
4.128:41
4.131:166
4.132:678
4.148:678
4.149:763
4.149:792
4.149:605
4.149:378
4.149:223
4.149:17
4.151:17
4.152:288
4.152:565
4.152:989
4.152:963
4.152:897
4.152:830
4.152:714
4.152:532
4.153:71
4.156:17
4.156:148
4.156:242
4.156:693
4.156:783
4.156:790
4.156:512
4.156:339
4.156:193
4.156:18
4.159:17
4.159:334
4.159:610
4.175:989
4.175:945
4.175:844
4.179:738
4.180:625
4.180:449
4.180:28
4.180:17
4.180:103
4.180:216
4.180:714
4.181:819
4.181:808
4.184:624
4.184:372
4.184:198
4.184:17
4.184:17
4.184:294
4.184:610
4.184:989
4.184:947
4.184:841
4.188:792
4.188:680
4.188:444
4.188:23
4.188:17
4.188:124
4.188:245
4.204:245
4.204:764
4.204:825
4.208:784
4.208:563
4.208:381
4.209:200
4.209:17
4.209:17
4.209:325
4.209:616
4.209:989
4.212:903
4.213:863
4.217:778
4.218:657
4.218:454
4.218:21
4.218:17
4.218:87
4.219:242
4.219:704
4.219:830
4.219:802
4.219:533
4.219:335
4.219:168
4.219:17
4.219:55
4.219:380
4.237:632
4.237:989
4.237:912
4.237:845
4.237:816
4.238:661
4.238:405
4.238:17
4.238:17
4.242:153
4.242:294
4.242:778
4.242:844
4.242:743
4.242:499
4.242:324
4.242:135
4.242:17
4.242:38
4.246:428
4.247:713
4.248:988
4.249:938
4.253:824
4.254:789
4.254:669
4.255:370
4.255:17
4.256:23
4.257:155
4.267:155
4.267:295
4.267:754
4.268:801
4.268:771
4.268:505
4.268:347
4.268:131
4.270:17
4.270:70
4.270:396
4.270:684
4.270:988
4.271:926
4.271:801
4.271:761
4.271:668
4.271:339
4.274:17
4.274:17
4.274:131
4.274:330
4.274:790
4.274:828
4.274:781
4.274:509
4.275:329
4.275:105
4.278:18
4.278:159
4.294:468
4.294:738
4.295:989
4.295:898
4.295:849
4.298:799
4.298:655
4.298:301
4.299:17
4.299:17
4.299:152
4.299:309
4.299:791
4.300:843
4.300:809
4.303:526
4.303:320
4.304:71
4.304:18
4.305:170
4.305:456
4.305:730
4.306:989
4.306:906
4.306:834
4.307:756
4.307:579
4.308:231
4.308:17
4.308:17
4.323:17
4.323:153
4.323:362
4.324:776
4.327:807
4.327:711
4.327:464
4.328:281
4.328:59
4.329:17
4.334:123
4.335:441
4.335:835
4.335:989
4.335:930
4.336:861
4.336:759
4.336:567
4.336:206
4.336:17
4.336:86
4.336:198
4.336:401
4.336:772
4.337:836
4.337:705
4.337:475
4.337:307
4.337:52
4.337:18
4.351:215
4.356:476
4.356:836
4.356:990
4.356:878
4.356:814
4.356:737
4.356:601
4.356:190
4.357:17
4.357:19
4.360:154
4.360:492
4.360:803
4.360:853
4.360:722
4.360:455
4.361:302
4.361:55
4.361:17
4.361:247
4.367:478
4.368:924
4.368:989
4.368:897
4.369:862
4.369:727
4.369:585
4.369:158
4.369:17
4.385:17
4.385:18
4.385:151
4.385:533
4.385:789
4.385:791
4.385:680
4.385:428
4.385:268
4.385:21
4.389:18
4.389:235
4.389:546
4.389:989
4.389:989
4.389:910
4.390:905
4.390:779
4.390:556
4.390:134
4.393:18
4.393:23
4.393:166
4.393:560
4.393:800
4.393:858
4.393:664
4.393:412
4.393:287
4.393:21
4.413:17
4.413:221
4.414:557
4.414:989
4.414:989
4.414:849
4.417:803
4.417:686
4.417:543
4.418:113
4.418:17
4.418:122
4.418:178
4.418:635
4.418:841
4.419:843
4.421:654
4.421:400
4.421:242
4.422:17
4.422:18
4.422:313
4.422:546
4.422:989
4.422:949
4.422:880
4.425:738
4.425:642
4.425:503
4.425:75
4.442:75
4.442:17
4.442:95
4.442:183
4.442:724
4.442:836
4.448:849
4.451:672
4.451:418
4.451:261
4.451:17
4.451:17
4.452:301
4.452:580
4.452:988
4.452:989
4.452:870
4.452:795
4.452:686
4.452:491
4.452:69
4.452:17
4.453:90
4.453:232
4.453:702
4.453:822
4.454:799
4.454:603
4.454:393
4.454:256
4.470:17
4.470:17
4.471:327
4.475:648
4.475:988
4.475:984
4.475:906
4.475:885
4.475:725
4.475:493
4.475:47
4.475:17
4.475:91
4.480:241
4.483:763
4.484:834
4.484:838
4.485:581
4.485:398
4.485:233
4.485:17
4.485:17
4.486:366
4.486:603
4.486:988
4.486:947
4.486:902
4.486:879
4.486:697
4.486:476
4.499:476
4.503:43
4.503:17
4.503:112
4.504:286
4.504:815
4.504:860
4.504:802
4.504:573
4.504:400
4.504:227
4.507:17
4.507:51
4.507:391
4.508:650
4.508:987
4.508:972
4.508:880
4.508:783
4.508:686
4.508:480
4.511:46
4.512:25
4.512:180
4.512:320
4.512:818
4.512:835
4.513:804
4.513:562
4.513:365
4.533:181
4.533:17
4.533:17
4.533:359
4.534:650
4.534:988
4.534:943
4.534:904
4.536:784
4.537:644
4.537:387
4.537:17
4.538:17
4.538:133
4.539:301
4.539:799
4.539:800
4.540:775
4.540:524
4.541:331
4.541:140
4.541:17
4.542:44
4.542:378
4.543:704
4.543:989
4.543:910
4.543:836
4.544:753
4.546:638
4.560:638
4.562:361
4.562:17
4.563:17
4.563:117
4.563:290
4.564:754
4.565:804
4.565:735
4.565:517
4.565:346
4.566:131
4.566:17
4.566:132
4.566:457
4.566:685
4.567:989
4.569:920
4.569:814
4.569:797
4.569:642
4.569:329
4.569:17
4.569:17
4.569:69
4.570:260
4.570:765
4.573:820
4.573:762
4.573:495
4.589:314
4.589:85
4.589:18
4.589:50
4.593:432
4.594:747
4.596:989
4.598:883
4.599:797
4.600:683
4.600:555
4.601:264
4.601:17
4.601:17
4.602:135
4.602:303
4.602:737
4.602:770
4.603:761
4.603:512
4.603:325
4.603:84
4.603:17
4.604:95
4.604:417
4.604:773
4.604:989
4.604:899
4.605:838
4.605:754
4.618:754
4.618:626
4.622:256
4.622:17
4.622:37
4.622:163
4.622:335
4.622:732
4.623:808
4.623:675
4.623:397
4.623:208
4.623:17
4.626:18
4.626:31
4.626:360
4.626:717
4.626:923
4.627:828
4.627:742
4.627:689
4.627:594
4.627:161
4.632:18
4.633:17
4.633:86
4.634:355
4.634:781
4.634:849
4.634:788
4.651:558
4.651:426
4.651:189
4.651:41
4.651:343
4.651:699
4.651:987
4.651:985
4.651:985
4.655:986
4.655:988
4.655:989
4.655:674
4.655:419
4.655:564
4.655:748
4.655:988
4.655:983
4.659:982
4.659:984
4.659:987
4.659:989
4.659:750
4.659:529
4.659:827
4.659:988
4.659:984
4.659:982
4.662:984
4.663:985
4.679:985
4.679:987
4.680:989
4.680:571
4.680:257
4.680:344
4.680:389
4.680:659
4.684:952
4.684:904
4.685:709
4.685:382
4.685:192
4.686:18
4.686:18
4.686:30
4.687:354
4.687:800
4.688:791
4.688:635
4.688:577
4.689:489
4.689:334
4.689:17
4.689:19
4.689:17
4.690:30
4.690:415
4.692:624
4.692:677
4.708:523
4.708:280
4.708:151
4.708:17
4.709:18
4.712:156
4.713:498
4.713:939
4.713:945
4.713:816
4.713:755
4.713:611
4.713:476
4.713:25
4.713:18
4.717:17
4.717:92
4.717:586
4.717:740
4.717:684
4.717:550
4.717:298
4.717:151
4.717:18
4.717:18
4.720:172
4.720:456
4.720:962
4.722:877
4.722:794
4.736:794
4.736:716
4.736:620
4.736:426
4.741:17
4.741:18
4.741:39
4.742:155
4.742:677
4.743:757
4.743:755
4.743:568
4.745:324
4.746:178
4.746:17
4.746:18
4.747:238
4.748:554
4.748:989
4.748:915
4.749:832
4.749:821
4.749:685
4.749:469
4.749:25
4.750:18
4.750:51
4.750:182
4.750:707
4.750:796
4.765:828
4.769:621
4.769:363
4.769:193
4.769:17
4.769:17
4.770:293
4.770:585
4.770:989
4.770:910
4.774:875
4.774:729
4.774:643
4.775:454
4.776:19
4.776:18
4.776:51
4.777:164
4.779:691
4.780:800
4.781:779
4.782:584
4.782:339
4.783:176
4.783:17
4.783:17
4.784:311
4.784:574
4.784:989
4.784:914
4.798:914
4.798:852
4.798:808
4.799:672
4.799:474
4.799:42
4.799:17
4.799:97
4.799:231
4.799:754
4.803:786
4.803:798
4.803:556
4.803:363
4.803:197
4.803:17
4.803:17
4.803:319
4.803:655
4.804:988
4.806:990
4.806:921
4.806:872
4.806:719
4.807:463
4.807:28
4.807:17
4.807:137
4.807:305
4.807:773
4.827:800
4.827:784
4.827:558
4.828:380
4.829:188
4.832:17
4.833:29
4.833:371
4.833:689
4.833:988
4.833:968
4.833:879
4.833:782
4.833:687
4.834:434
4.834:22
4.835:62
4.835:183
4.836:341
4.836:819
4.836:865
4.836:841
4.836:563
4.836:408
4.836:231
4.836:17
4.839:86
4.839:428
4.839:718
4.839:988
4.856:988
4.856:989
4.856:918
4.856:846
4.856:753
4.860:493
4.860:63
4.860:32
4.860:182
4.860:373
4.861:860
4.861:917
4.861:866
4.861:590
4.862:444
4.864:222
4.864:17
4.864:145
4.864:505
4.864:876
4.864:987
4.864:989
4.865:937
4.865:874
4.865:764
4.868:460
4.868:60
4.868:56
4.868:231
4.868:408
4.884:865
4.884:950
4.888:886
4.888:626
4.889:461
4.889:236
4.889:17
4.889:182
4.889:513
4.889:881
4.889:987
4.889:989
4.892:970
4.893:852
4.893:774
4.893:441
4.893:78
4.893:179
4.893:316
4.893:509
4.893:937
4.896:955
4.897:879
4.897:607
4.897:452
4.897:222
4.897:23
4.897:277
4.897:590
4.898:907
4.913:907
4.917:987
4.917:989
4.917:989
4.917:960
4.917:772
4.918:415
4.918:77
4.918:149
4.918:279
4.918:508
4.921:945
4.921:979
4.922:883
4.922:685
4.922:486
4.922:211
4.922:20
4.922:351
4.922:612
4.925:932
4.926:988
4.926:989
4.926:990
4.926:883
4.926:749
4.926:345
4.926:38
4.926:124
4.927:272
4.946:489
4.946:915
4.946:945
4.946:833
4.946:535
4.946:356
4.946:129
4.947:17
4.950:205
4.950:543
4.950:937
4.950:988
4.950:961
4.950:980
4.950:843
4.950:683
4.951:235
4.954:18
4.954:93
4.954:164
4.954:419
4.954:746
4.955:759
4.955:632
4.955:388
4.955:241
4.955:17
4.958:18
4.958:122
4.958:425
4.974:425
4.974:822
4.974:965
4.974:864
4.975:812
4.975:669
4.978:513
4.979:80
4.979:18
4.979:17
4.979:74
4.979:403
4.980:669
4.980:707
4.980:523
4.980:272
4.980:146
4.983:17
4.983:18
4.983:122
4.983:466
4.983:876
4.983:903
4.983:771
4.983:705
4.983:565
4.984:422
4.987:17
4.987:18
4.987:17
5.003:17
5.003:416
5.003:650
5.003:650
5.007:496
5.007:291
5.007:138
5.007:18
5.007:18
5.008:152
5.008:407
5.008:886
5.008:882
5.011:785
5.012:716
5.012:624
5.012:462
5.012:17
5.012:18
5.012:17
5.013:102
5.013:552
5.013:730
5.013:727
5.015:541
5.015:253
5.015:111
5.015:18
5.016:18
5.016:86
5.032:86
5.032:388
5.032:895
5.036:832
5.036:732
5.036:760
5.036:639
5.036:444
5.036:17
5.036:18
5.036:17
5.036:53
5.037:586
5.040:701
5.040:721
5.040:568
5.040:299
5.040:136
5.040:18
5.041:18
5.041:186
5.041:457
5.041:989
5.044:911
5.044:790
5.045:728
5.045:610
5.045:438
5.045:17
5.045:18
5.064:101
5.065:170
5.065:664
5.065:745
5.065:741
5.065:568
5.065:330
5.065:164
5.065:17
5.069:18
5.069:182
5.069:474
5.069:989
5.070:855
5.070:804
5.070:764
5.070:659
5.070:436
5.070:17
5.073:18
5.073:17
5.073:155
5.073:658
5.073:747
5.073:744
5.073:544
5.074:305
5.074:141
5.074:17
5.077:17
5.093:17
5.093:294
5.093:594
5.094:989
5.094:922
5.094:776
5.095:759
5.095:662
5.097:396
5.097:17
5.098:17
5.098:60
5.098:183
5.098:689
5.098:745
5.098:707
5.098:493
5.098:304
5.102:151
5.102:17
5.102:17
5.102:334
5.102:619
5.102:989
5.102:901
5.102:817
5.102:755
5.103:634
5.105:436
5.106:17
5.122:18
5.122:30
5.122:213
5.122:702
5.122:765
5.126:753
5.126:560
5.126:343
5.126:162
5.126:17
5.126:17
5.127:334
5.127:662
5.128:988
5.128:921
5.130:834
5.130:771
5.130:612
5.130:350
5.130:17
5.130:17
5.130:46
5.131:233
5.131:745
5.131:794
5.134:779
5.134:535
5.134:344
5.134:131
5.134:18
5.150:18
5.150:17
5.150:387
5.150:665
5.155:989
5.155:906
5.155:851
5.155:737
5.155:590
5.155:325
5.155:17
5.155:17
5.155:121
5.155:274
5.158:791
5.158:791
5.158:765
5.159:465
5.159:287
5.159:89
5.159:18
5.159:17
5.159:364
5.159:690
5.162:989
5.162:893
5.162:793
5.163:767
5.163:635
5.163:306
5.179:17
5.183:16
5.183:130
5.183:282
5.183:795
5.183:817
5.183:790
5.183:494
5.183:317
5.183:97
5.183:18
5.187:58
5.187:440
5.187:714
5.187:989
5.187:915
5.187:837
5.188:776
5.188:620
5.188:280
5.188:17
5.192:17
5.192:122
5.193:344
5.193:813
5.193:851
5.195:726
5.196:473
5.197:307
5.197:59
5.212:59
5.212:17
5.212:131
5.213:463
5.213:812
5.213:989
5.213:949
5.213:841
5.213:731
5.213:587
5.216:232
5.216:17
5.216:17
5.216:117
5.216:345
5.217:815
5.217:818
5.217:731
5.217:465
5.217:290
5.220:59
5.220:17
5.220:143
5.220:499
5.221:837
5.221:989
5.221:861
5.221:821
5.221:779
5.224:659
5.240:223
5.240:18
5.240:79
5.240:199
5.241:417
5.241:813
5.244:830
5.244:747
5.244:457
5.244:296
5.244:32
5.245:17
5.245:151
5.245:455
5.245:779
5.245:974
5.249:878
5.249:873
5.249:763
5.249:572
5.249:190
5.249:17
5.249:41
5.249:129
5.249:449
5.249:772
5.253:797
5.253:645
5.253:409
5.253:261
5.269:261
5.269:17
5.269:18
5.269:184
5.269:507
5.273:963
5.273:989
5.273:901
5.274:820
5.274:745
5.274:617
5.274:155
5.274:17
5.274:17
5.274:141
5.277:517
5.278:798
5.278:844
5.278:673
5.279:412
5.279:279
5.279:19
5.279:18
5.279:221
5.279:485
5.282:921
5.282:972
5.282:897
5.282:816
5.282:722
5.298:603
5.298:135
5.302:17
5.302:35
5.302:152
5.302:608
5.302:820
5.302:822
5.302:662
5.306:415
5.306:255
5.306:17
5.306:17
5.306:226
5.306:497
5.306:909
5.306:954
5.306:908
5.306:840
5.307:725
5.307:533
5.307:96
5.311:18
5.311:59
5.311:164
5.311:635
5.312:774
5.312:774
5.312:576
5.312:369
5.326:369
5.331:219
5.331:17
5.331:18
5.331:239
5.331:516
5.331:989
5.331:948
5.331:901
5.331:836
5.332:701
5.335:525
5.335:96
5.335:17
5.335:54
5.335:186
5.335:773
5.336:850
5.336:843
5.336:673
5.336:387
5.339:243
5.339:17
5.339:17
5.339:344
5.339:565
5.339:988
5.339:946
5.340:842
5.340:796
5.359:678
5.359:490
5.360:53
5.361:17
5.361:68
5.363:219
5.366:730
5.366:821
5.366:795
5.366:591
5.366:382
5.367:225
5.367:17
5.367:17
5.367:283
5.367:542
5.368:988
5.368:956
5.368:854
5.368:780
5.368:677
5.368:487
5.369:51
5.369:17
5.369:128
5.369:255
5.369:773
5.369:854
5.371:825
5.372:596
5.388:596
5.388:373
5.388:207
5.388:17
5.388:17
5.388:301
5.388:555
5.392:989
5.392:912
5.392:855
5.392:856
5.392:686
5.393:479
5.393:30
5.393:17
5.393:84
5.393:223
5.396:790
5.396:838
5.396:809
5.397:583
5.397:351
5.397:204
5.397:17
5.397:21
5.397:373
5.397:608
5.400:988
5.400:926
5.400:832
5.416:740
5.417:660
5.417:394
5.421:17
5.421:17
5.421:100
5.421:280
5.421:775
5.421:819
5.421:755
5.421:535
5.422:356
5.422:175
5.425:18
5.425:23
5.425:342
5.425:687
5.425:988
5.426:944
5.426:868
5.426:733
5.426:635
5.426:391
5.429:17
5.429:17
5.429:156
5.429:282
5.429:785
5.429:854
5.429:808
5.445:808
5.445:586
5.450:382
5.450:167
5.450:17
5.451:45
5.451:384
5.452:741
5.452:988
5.452:976
5.453:880
5.453:771
5.454:610
5.454:351
5.454:17
5.454:17
5.455:187
5.455:339
5.455:781
5.455:824
5.456:780
5.456:516
5.457:322
5.458:132
5.458:18
5.458:60
5.458:390
5.459:682
5.459:990
5.459:902
5.478:823
5.478:780
5.479:618
5.479:327
5.479:17
5.479:17
5.479:169
5.480:311
5.480:783
5.482:847
5.482:755
5.482:495
5.482:323
5.482:92
5.482:18
5.482:162
5.482:434
5.482:711
5.482:989
5.486:924
5.487:832
5.487:733
5.488:588
5.488:284
5.488:17
5.489:17
5.489:118
5.489:322
5.489:783
5.490:854
5.507:854
5.507:747
5.507:514
5.507:329
5.507:79
5.507:17
5.507:199
5.508:519
5.511:808
5.511:989
5.511:912
5.511:866
5.512:763
5.512:593
5.512:239
5.512:17
5.512:17
5.512:144
5.515:383
5.516:801
5.516:858
5.516:736
5.517:482
5.517:314
5.518:82
5.518:17
5.518:190
5.519:465
5.519:869
5.519:989
5.535:911
5.535:842
5.535:716
5.536:583
5.539:203
5.540:17
5.540:17
5.540:182
5.540:424
5.540:787
5.540:825
5.540:681
5.540:436
5.540:300
5.541:44
5.544:17
5.544:168
5.544:468
5.544:893
5.544:989
5.545:892
5.545:822
5.545:708
5.545:593
5.547:186
5.548:18
5.548:98
5.548:202
5.548:535
5.548:782
5.564:782
5.564:834
5.564:681
5.564:440
5.568:281
5.568:37
5.568:18
5.568:189
5.568:544
5.569:979
5.569:989
5.569:889
5.569:773
5.572:716
5.572:571
5.572:164
5.572:17
5.572:48
5.572:168
5.572:561
5.572:833
5.572:831
5.572:651
5.577:405
5.578:268
5.579:19
5.580:17
5.581:242
5.581:474
5.581:933
5.597:963
5.597:869
5.597:815
5.597:735
5.597:583
5.598:153
5.598:17
5.598:57
5.598:183
5.598:629
5.601:854
5.601:841
5.601:664
5.601:397
5.601:281
5.601:17
5.601:17
5.601:263
5.602:520
5.602:989
5.605:988
5.605:882
5.605:825
5.605:716
5.605:549
5.605:120
5.605:17
5.605:105
5.606:213
5.606:696
5.625:696
5.625:822
5.625:834
5.625:679
5.626:427
5.630:272
5.631:17
5.632:17
5.632:253
5.632:539
5.632:988
5.632:978
5.632:893
5.632:833
5.632:735
5.632:546
5.632:99
5.632:17
5.633:65
5.633:205
5.633:675
5.633:793
5.633:857
5.634:618
5.634:385
5.634:235
5.634:17
5.634:17
5.634:361
5.637:560
5.654:988
5.654:946
5.654:864
5.654:819
5.654:692
5.654:510
5.658:83
5.658:18
5.658:89
5.658:197
5.658:751
5.659:830
5.659:824
5.660:641
5.660:391
5.660:222
5.662:17
5.662:17
5.663:262
5.663:526
5.663:988
5.663:972
5.663:872
5.663:796
5.663:690
5.664:509
5.666:69
5.666:17
5.666:168
5.667:276
5.682:276
5.683:784
5.683:838
5.683:848
5.683:598
5.687:387
5.687:224
5.687:17
5.687:18
5.687:325
5.687:633
5.688:988
5.688:989
5.688:936
5.688:825
5.691:685
5.691:498
5.691:54
5.691:17
5.691:142
5.691:247
5.691:768
5.691:829
5.692:807
5.692:563
5.695:368
5.695:198
5.695:17
5.695:18
5.695:441
5.711:698
5.711:987
5.716:989
5.716:888
5.716:850
5.716:720
5.716:478
5.716:53
5.716:17
5.716:132
5.716:333
5.716:799
5.720:875
5.720:875
5.720:631
5.720:413
5.720:222
5.720:17
5.720:103
5.720:454
5.720:794
5.724:987
5.724:983
5.724:920
5.724:856
5.724:722
5.724:438
5.724:31
5.724:17
5.724:144
5.740:144
5.744:296
5.745:758
5.745:850
5.745:874
5.745:574
5.745:370
5.745:182
5.745:17
5.745:80
5.745:412
5.748:757
5.748:989
5.748:915
5.748:804
5.748:803
5.748:673
5.748:355
5.748:17
5.749:18
5.749:157
5.752:275
5.752:731
5.752:790
5.752:764
5.752:505
5.752:323
5.752:117
5.752:18
5.753:17
5.773:343
5.773:673
5.773:989
5.773:907
5.773:809
5.773:792
5.774:634
5.778:299
5.778:17
5.778:23
5.778:156
5.779:320
5.779:735
5.779:803
5.779:751
5.779:488
5.779:328
5.781:89
5.781:17
5.781:85
5.781:429
5.781:751
5.781:988
5.781:887
5.781:822
5.781:722
5.781:674
5.785:294
5.785:17
5.785:17
5.801:17
5.802:129
5.802:355
5.802:806
5.802:811
5.802:714
5.802:448
5.806:291
5.806:62
5.806:18
5.806:150
5.806:446
5.806:736
5.806:974
5.806:879
5.806:817
5.810:697
5.811:592
5.812:235
5.813:17
5.813:17
5.814:109
5.814:349
5.815:792
5.815:830
5.815:726
5.815:449
5.816:306
5.816:55
5.816:18
5.830:195
5.830:505
5.830:865
5.834:982
5.834:882
5.835:812
5.835:748
5.835:591
5.835:185
5.835:18
5.835:17
5.835:84
5.835:392
5.838:738
5.839:777
5.839:647
5.839:375
5.839:193
5.839:17
5.839:18
5.839:153
5.839:447
5.839:822
5.843:943
5.843:833
5.843:809
5.844:678
5.844:505
5.844:141
5.844:17
5.860:17
5.860:73
5.860:233
5.863:598
5.863:947
5.863:989
5.864:897
5.864:646
5.864:501
5.864:298
5.864:173
5.864:589
5.867:904
5.867:985
5.867:984
5.867:984
5.868:984
5.868:985
5.868:986
5.868:854
5.868:590
5.868:713
5.871:828
5.871:987
5.871:984
5.871:984
5.871:986
5.872:989
5.872:779
5.872:485
5.892:353
5.892:676
5.892:905
5.892:985
5.892:985
5.892:987
5.893:989
5.893:915
5.896:683
5.896:187
5.896:17
5.896:17
5.896:84
5.896:493
5.896:643
5.896:609
5.897:465
5.897:225
5.897:67
5.900:18
5.900:19
5.900:44
5.900:329
5.900:851
5.900:758
5.900:637
5.901:552
5.901:436
5.901:314
5.904:17
5.921:17
5.921:18
5.921:17
5.922:47
5.922:562
5.922:691
5.922:691
5.922:515
5.924:274
5.924:158
5.925:17
5.925:18
5.925:182
5.925:459
5.925:989
5.925:895
5.925:795
5.925:737
5.928:637
5.929:429
5.929:17
5.929:18
5.929:35
5.929:114
5.929:643
5.929:746
5.929:703
5.929:499
5.929:311
5.932:159
5.949:18
5.949:17
5.949:240
5.949:510
5.949:989
5.953:923
5.953:830
5.953:774
5.953:643
5.953:442
5.953:20
5.953:17
5.954:47
5.954:150
5.954:709
5.957:766
5.957:751
5.957:558
5.957:338
5.957:181
5.957:17
5.958:17
5.958:275
5.958:525
5.958:988
5.961:925
5.961:881
5.961:816
5.961:680
5.961:468
5.977:468
5.978:21
5.978:17
5.978:67
5.982:222
5.982:710
5.982:816
5.982:792
5.982:582
5.982:358
5.982:182
5.982:17
5.982:17
5.982:306
5.986:609
5.986:989
5.986:927
5.986:828
5.986:786
5.986:691
5.986:455
5.987:22
5.987:17
5.987:157
5.990:276
5.990:768
5.990:805
5.990:804
5.990:585
5.990:382
6.010:183
6.010:17
6.010:21
6.010:385
6.011:688
6.011:988
6.011:953
6.011:872
6.011:812
6.011:689
6.015:448
6.015:26
6.015:17
6.015:136
6.015:325
6.015:820
6.015:882
6.015:823
6.016:589
6.016:358
6.019:195
6.019:17
6.019:44
6.019:413
6.019:758
6.019:988
6.019:989
6.019:884
6.020:833
6.020:724
6.039:724
6.039:436
6.039:21
6.039:21
6.039:162
6.040:334
6.040:786
6.040:875
6.040:802
6.043:584
6.043:386
6.044:173
6.044:17
6.044:101
6.044:437
6.044:699
6.044:989
6.044:928
6.044:840
6.047:822
6.047:672
6.047:389
6.048:17
6.048:40
6.048:202
6.048:378
6.048:830
6.048:925
6.048:805
6.051:554
6.067:411
6.067:182
6.067:17
6.067:205
6.067:475
6.067:810
6.072:988
6.072:989
6.072:870
6.072:786
6.072:687
6.072:361
6.073:19
6.073:50
6.073:239
6.073:423
6.076:862
6.076:906
6.077:838
6.077:596
6.077:416
6.077:193
6.078:17
6.078:225
6.078:527
6.078:878
6.080:987
6.080:989
6.080:972
6.080:893
6.096:893
6.096:802
6.096:408
6.096:66
6.096:173
6.101:289
6.101:471
6.101:872
6.101:959
6.101:870
6.101:621
6.101:454
6.101:209
6.101:18
6.102:253
6.105:578
6.105:974
6.105:987
6.105:988
6.105:972
6.105:883
6.105:796
6.106:404
6.106:82
6.109:209
6.109:323
6.109:568
6.110:936
6.110:986
6.110:886
6.125:650
6.125:449
6.129:207
6.129:27
6.129:334
6.129:620
6.130:987
6.130:987
6.130:988
6.130:989
6.130:927
6.134:745
6.134:349
6.134:53
6.134:151
6.134:306
6.134:663
6.134:940
6.134:965
6.134:836
6.135:578
6.137:402
6.138:156
6.138:17
6.138:340
6.138:616
6.138:985
6.138:988
6.138:989
6.138:964
6.154:964
6.158:824
6.158:697
6.158:264
6.159:17
6.159:108
6.160:227
6.160:612
6.161:869
6.163:909
6.164:739
6.165:446
6.165:312
6.165:67
6.165:17
6.165:259
6.165:582
6.165:989
6.165:982
6.165:913
6.166:800
6.166:710
6.166:542
6.166:119
6.166:17
6.166:17
6.166:125
6.166:548
6.167:784
6.167:807
6.186:632
6.186:377
6.186:212
6.186:17
6.186:18
6.186:186
6.186:432
6.191:884
6.191:877
6.191:785
6.191:703
6.191:619
6.191:499
6.191:25
6.191:18
6.191:17
6.191:53
6.192:529
6.195:689
6.195:729
6.195:544
6.195:300
6.195:148
6.195:18
6.196:18
6.196:110
6.196:366
6.196:895
6.198:822
6.199:719
6.215:719
6.215:704
6.215:589
6.215:388
6.215:17
6.215:18
6.216:17
6.219:60
6.220:571
6.220:667
6.220:695
6.220:453
6.220:223
6.220:83
6.220:18
6.220:18
6.220:155
6.223:398
6.223:952
6.224:845
6.224:783
6.224:655
6.224:579
6.224:391
6.224:17
6.224:18
6.224:17
6.227:94
6.227:579
6.227:717
6.243:687
6.243:483
6.244:272
6.248:122
6.248:18
6.248:18
6.248:232
6.248:477
6.248:990
6.248:871
6.248:750
6.248:706
6.249:564
6.252:382
6.252:17
6.252:18
6.252:19
6.252:117
6.252:671
6.252:762
6.252:733
6.253:531
6.253:302
6.256:138
6.256:17
6.256:17
6.256:245
6.256:588
6.256:989
6.256:880
6.272:880
6.272:793
6.278:699
6.278:579
6.278:387
6.279:17
6.279:17
6.279:68
6.279:178
6.279:671
6.279:764
6.279:740
6.281:513
6.281:322
6.281:155
6.281:17
6.281:17
6.281:275
6.281:528
6.281:983
6.281:867
6.282:816
6.285:663
6.285:574
6.285:346
6.285:18
6.285:18
6.285:58
6.285:225
6.285:721
6.305:802
6.305:772
6.305:546
6.305:328
6.306:146
6.306:18
6.306:17
6.306:344
6.306:688
6.309:988
6.309:914
6.310:809
6.310:701
6.310:583
6.310:360
6.311:17
6.311:17
6.311:46
6.311:221
6.314:737
6.314:787
6.314:732
6.314:441
6.314:294
6.314:108
6.314:18
6.314:17
6.314:318
6.314:641
6.317:989
6.334:989
6.334:871
6.334:832
6.334:743
6.335:631
6.335:345
6.335:17
6.335:17
6.338:114
6.338:251
6.338:733
6.338:818
6.338:748
6.339:505
6.339:336
6.339:105
6.339:18
6.339:44
6.342:379
6.343:648
6.343:989
6.343:904
6.343:766
6.343:731
6.343:573
6.344:264
6.344:17
6.344:17
6.346:98
6.346:286
6.362:759
6.363:827
6.363:760
6.363:498
6.367:305
6.367:67
6.367:17
6.367:128
6.367:407
6.367:725
6.367:989
6.367:938
6.367:831
6.367:766
6.371:647
6.372:274
6.372:17
6.372:17
6.372:93
6.373:287
6.373:776
6.374:814
6.374:732
6.374:460
6.375:303
6.376:79
6.377:18
6.377:151
6.378:464
6.379:850
6.391:850
6.391:989
6.391:898
6.395:909
6.395:800
6.396:605
6.396:236
6.396:17
6.396:17
6.396:95
6.396:361
6.396:740
6.396:814
6.399:687
6.399:458
6.399:293
6.401:52
6.401:18
6.401:120
6.402:444
6.403:850
6.403:989
6.403:877
6.404:857
6.404:742
6.404:573
6.404:194
6.405:17
6.405:62
6.405:165
6.424:391
6.424:761
6.424:786
6.424:711
6.424:443
6.424:293
6.425:40
6.425:18
6.425:143
6.426:451
6.430:905
6.430:974
6.431:890
6.431:832
6.431:726
6.431:555
6.431:148
6.431:18
6.431:71
6.431:181
6.432:504
6.432:803
6.432:839
6.432:668
6.432:418
6.432:269
6.432:18
6.432:18
6.432:143
6.432:427
6.452:427
6.452:888
6.452:948
6.452:869
6.453:826
6.453:732
6.453:600
6.453:159
6.453:18
6.457:63
6.457:178
6.457:533
6.457:791
6.457:795
6.457:612
6.457:395
6.457:245
6.457:17
6.457:18
6.461:223
6.461:515
6.461:989
6.461:931
6.461:834
6.461:755
6.461:654
6.461:523
6.461:100
6.461:17
6.465:33
6.481:153
6.481:610
6.481:803
6.482:807
6.482:630
6.482:416
6.485:254
6.485:17
6.485:17
6.485:254
6.486:584
6.486:989
6.486:974
6.486:908
6.486:892
6.486:744
6.489:583
6.489:118
6.489:17
6.489:77
6.490:197
6.490:657
6.490:794
6.490:856
6.490:677
6.493:407
6.493:245
6.493:17
6.493:17
6.493:236
6.509:236
6.509:577
6.509:989
6.510:962
6.510:869
6.513:861
6.513:714
6.513:535
6.514:73
6.514:17
6.514:132
6.514:197
6.514:705
6.514:800
6.514:807
6.517:639
6.517:394
6.518:244
6.518:17
6.518:17
6.518:283
6.518:575
6.518:989
6.518:915
6.518:881
6.521:775
6.521:680
6.521:455
6.522:36
6.522:17
6.538:91
6.538:229
6.542:750
6.542:829
6.543:808
6.543:615
6.543:400
6.543:212
6.543:17
6.543:17
6.543:346
6.543:630
6.547:988
6.547:981
6.547:852
6.548:802
6.548:693
6.548:466
6.548:34
6.548:17
6.548:89
6.548:273
6.551:755
6.551:835
6.551:817
6.551:533
6.551:334
6.551:182
6.551:17
6.551:17
6.566:17
6.571:364
6.571:627
6.571:988
6.571:946
6.571:891
6.571:863
6.571:705
6.571:451
6.571:18
6.572:17
6.575:97
6.575:237
6.575:741
6.576:840
6.576:806
6.576:588
6.577:362
6.577:179
6.577:17
6.577:19
6.579:384
6.579:650
6.579:989
6.579:937
6.579:863
6.579:707
6.579:660
6.579:424
6.580:17
6.599:17
6.599:127
6.599:284
6.599:765
6.600:830
6.600:798
6.600:529
6.604:335
6.604:158
6.604:17
6.604:25
6.604:389
6.604:671
6.604:989
6.604:936
6.604:862
6.604:861
6.608:693
6.608:403
6.608:17
6.608:17
6.608:143
6.609:282
6.609:774
6.609:828
6.609:768
6.609:485
6.612:313
6.612:123
6.612:18
6.628:18
6.628:47
6.628:430
6.628:693
6.628:989
6.628:930
6.629:851
6.632:768
6.632:628
6.632:320
6.632:17
6.632:31
6.633:139
6.633:311
6.633:776
6.633:847
6.637:755
6.637:513
6.637:324
6.637:100
6.637:18
6.637:59
6.637:445
6.638:725
6.638:989
6.638:960
6.641:876
6.641:824
6.642:701
6.642:320
6.657:17
6.657:61
6.657:192
6.662:337
6.662:811
6.662:843
6.662:782
6.662:490
6.662:301
6.662:74
6.662:18
6.662:80
6.662:459
6.666:820
6.666:989
6.666:934
6.666:948
6.666:839
6.666:687
6.666:281
6.666:17
6.667:55
6.667:167
6.670:368
6.670:814
6.670:849
6.670:765
6.670:492
6.670:328
6.670:68
6.686:68
6.686:18
6.690:105
6.690:422
6.690:740
6.690:985
6.690:891
6.691:884
6.691:727
6.691:616
6.692:223
6.692:17
6.694:89
6.694:198
6.694:386
6.694:776
6.694:814
6.694:765
6.694:481
6.694:304
6.694:50
6.694:18
6.698:144
6.698:426
6.698:859
6.698:977
6.698:882
6.698:840
6.698:749
6.698:628
6.718:202
6.718:17
6.718:82
6.718:218
6.718:512
6.718:811
6.719:825
6.719:719
6.719:444
6.722:299
6.722:30
6.722:17
6.722:178
6.722:507
6.722:935
6.723:989
6.723:895
6.723:858
6.723:756
6.726:642
6.726:191
6.726:17
6.727:17
6.727:164
6.727:588
6.727:798
6.727:827
6.727:722
6.731:455
6.731:285
6.747:285
6.747:24
6.747:17
6.747:257
6.747:507
6.747:945
6.748:984
6.748:910
6.752:772
6.752:677
6.752:505
6.752:113
6.752:17
6.752:113
6.752:181
6.752:661
6.752:837
6.755:804
6.755:668
6.756:421
6.756:258
6.756:17
6.756:18
6.756:243
6.756:479
6.756:989
6.756:977
6.759:907
6.759:853
6.759:709
6.776:554
6.776:110
6.776:18
6.777:26
6.777:193
6.780:682
6.780:828
6.780:844
6.780:651
6.780:393
6.780:238
6.780:17
6.780:17
6.780:269
6.784:509
6.784:989
6.784:960
6.784:857
6.784:744
6.784:633
6.784:531
6.785:96
6.785:17
6.785:128
6.788:240
6.788:718
6.788:800
6.788:864
6.788:637
6.788:402
6.804:402
6.804:256
6.804:17
6.804:17
6.808:324
6.809:592
6.809:988
6.809:979
6.809:844
6.810:803
6.810:703
6.810:487
6.810:52
6.810:17
6.812:128
6.813:218
6.813:721
6.813:821
6.813:785
6.813:598
6.813:387
6.814:221
6.814:17
6.814:17
6.816:311
6.817:616
6.817:988
6.817:949
6.817:874
6.817:881
6.837:721
6.837:498
6.837:46
6.837:17
6.838:118
6.838:272
6.838:773
6.838:829
6.838:887
6.838:559
6.841:374
6.841:214
6.841:17
6.842:17
6.842:416
6.842:622
6.842:988
6.843:958
6.843:915
6.843:762
6.845:686
6.845:474
6.846:42
6.846:17
6.846:138
6.846:268
6.846:761
6.846:862
6.846:824
6.846:592
6.866:592
6.866:390
6.866:202
6.866:17
6.866:55
6.866:437
6.866:734
6.866:988
6.866:989
6.870:914
6.870:823
6.870:716
6.870:490
6.870:57
6.870:17
6.870:152
6.870:302
6.870:807
6.872:856
6.874:861
6.875:624
6.875:429
6.875:216
6.875:17
6.876:88
6.876:436
6.876:694
6.876:988
6.876:971
6.878:867
6.894:835
6.894:673
6.894:394
6.894:17
6.894:17
6.895:151
6.899:284
6.899:838
6.900:858
6.900:789
6.900:513
6.901:344
6.901:142
6.902:18
6.902:17
6.902:385
6.903:688
6.903:989
6.904:905
6.904:865
6.904:828
6.905:652
6.905:337
6.905:17
6.905:17
6.905:99
6.907:275
6.907:767
6.909:804
6.909:740
6.923:740
6.923:451
6.923:320
6.923:99
6.923:17
6.928:81
6.928:469
6.928:742
6.928:989
6.928:920
6.928:806
6.928:798
6.928:643
6.928:323
6.929:17
6.932:17
6.932:99
6.932:342
6.932:766
6.932:798
6.932:735
6.932:482
6.932:301
6.932:52
6.932:18
6.935:83
6.936:462
6.936:822
6.937:989
6.937:920
6.951:825
6.956:752
6.956:664
6.956:288
6.956:17
6.956:17
6.956:112
6.957:309
6.960:743
6.962:819
6.963:677
6.963:404
6.963:257
6.963:33
6.963:17
6.964:137
6.964:455
6.964:770
6.964:983
6.964:867
6.964:802
6.964:707
6.964:640
6.964:232
6.964:17
6.964:17
6.965:152
6.965:364
6.965:780
6.965:802
6.985:802
6.985:676
6.985:462
6.985:285
6.985:25
6.985:18
6.985:153
6.985:466
6.985:810
6.986:952
6.989:866
6.989:752
6.989:734
6.989:532
6.989:118
6.989:18
6.989:17
6.989:78
6.989:397
6.989:743
6.990:782
6.993:663
6.993:439
6.993:267
6.993:38
6.993:17
6.993:221
6.993:549
6.993:970
6.994:988
7.013:989
7.013:989
7.013:985
7.014:848
7.014:448
7.014:226
7.014:494
7.017:596
7.017:949
7.018:986
7.018:985
7.018:986
7.018:989
7.018:911
7.018:692
7.018:587
7.021:964
7.022:986
7.022:980
7.022:980
7.022:982
7.022:984
7.022:985
7.022:988
7.022:691
7.022:430
7.025:598
7.025:658
7.026:989
7.026:987
7.042:987
7.042:987
7.042:989
7.042:695
7.042:483
7.042:143
7.046:17
7.046:221
7.047:448
7.047:896
7.048:813
7.048:678
7.048:613
7.049:526
7.049:366
7.049:17
7.050:19
7.050:17
7.050:17
7.050:448
7.051:618
7.051:661
7.051:445
7.051:208
7.052:68
7.052:18
7.052:18
7.054:116
7.054:399
7.054:965
7.070:883
7.070:792
7.070:737
7.074:593
7.075:452
7.075:17
7.075:18
7.076:17
7.076:73
7.076:605
7.076:684
7.076:738
7.076:506
7.079:287
7.079:138
7.080:18
7.080:18
7.080:184
7.081:477
7.081:985
7.081:883
7.082:769
7.082:641
7.083:549
7.083:405
7.083:17
7.083:18
7.084:17
7.084:165
7.084:675
7.099:675
7.099:748
7.103:774
7.103:563
7.103:322
7.104:146
7.104:17
7.104:17
7.104:268
7.104:542
7.104:989
7.104:918
7.108:831
7.108:807
7.108:656
7.108:430
7.108:17
7.109:18
7.109:35
7.109:160
7.109:693
7.109:750
7.111:743
7.111:495
7.111:328
7.112:169
7.112:18
7.112:17
7.112:304
7.112:538
7.132:989
7.132:925
7.132:843
7.132:704
7.132:639
7.132:435
7.132:17
7.132:17
7.132:93
7.136:232
7.137:746
7.137:796
7.137:761
7.138:541
7.138:339
7.138:173
7.139:17
7.139:17
7.139:343
7.144:614
7.144:989
7.145:954
7.145:841
7.145:730
7.146:678
7.146:446
7.146:22
7.146:17
7.146:196
7.147:291
7.160:291
7.160:782
7.161:842
7.161:825
7.161:488
7.161:356
7.161:165
7.165:17
7.165:17
7.165:410
7.165:703
7.165:988
7.165:966
7.165:895
7.165:857
7.165:703
7.166:435
7.169:19
7.169:43
7.170:189
7.170:330
7.170:833
7.171:877
7.171:806
7.171:527
7.172:367
7.172:153
7.173:17
7.174:71
7.175:421
7.189:721
7.189:988
7.189:937
7.189:865
7.194:819
7.194:700
7.194:393
7.194:17
7.194:17
7.194:148
7.194:333
7.194:807
7.194:856
7.195:823
7.198:566
7.198:385
7.198:177
7.198:17
7.198:124
7.198:473
7.198:766
7.199:988
7.199:968
7.199:858
7.202:761
7.202:642
7.202:344
7.202:17
7.202:103
7.202:241
7.218:241
7.218:403
7.218:862
7.222:918
7.222:816
7.222:523
7.223:388
7.223:165
7.223:17
7.223:191
7.223:519
7.223:868
7.224:987
7.228:989
7.229:885
7.229:787
7.229:655
7.229:336
7.229:24
7.229:139
7.229:260
7.230:474
7.230:915
7.230:909
7.230:847
7.230:608
7.230:425
7.230:188
7.231:17
7.231:245
7.251:587
7.251:949
7.252:987
7.252:989
7.252:961
7.253:877
7.253:723
7.253:370
7.254:51
7.254:176
7.255:272
7.255:522
7.255:923
7.255:963
7.256:866
7.256:634
7.258:469
7.259:201
7.259:30
7.260:313
7.260:632
7.261:980
7.261:987
7.261:989
7.261:989
7.262:900
7.262:766
7.262:359
7.262:71
7.263:167
7.279:167
7.279:326
7.280:654
7.280:934
7.280:977
7.280:848
7.280:591
7.281:449
7.281:201
7.283:28
7.283:395
7.284:641
7.284:989
7.284:987
7.284:989
7.284:990
7.284:865
7.284:715
7.288:310
7.288:32
7.288:149
7.288:286
7.288:629
7.288:928
7.288:965
7.288:801
7.288:556
7.288:396
7.291:133
7.292:17
7.311:336
7.313:608
7.313:989
7.313:988
7.313:989
7.314:895
7.314:792
7.314:635
7.314:204
7.314:17
7.314:101
7.314:223
7.314:631
7.315:819
7.315:835
7.316:656
7.316:439
7.317:271
7.317:19
7.317:17
7.317:230
7.317:517
7.317:989
7.317:964
7.317:875
7.320:842
7.320:741
7.320:511
7.320:57
7.321:18
7.336:18
7.337:17
7.337:109
7.337:530
7.337:753
7.342:700
7.343:558
7.346:326
7.348:147
7.349:17
7.350:18
7.350:143
7.350:418
7.350:896
7.351:847
7.351:717
7.352:684
7.352:560
7.353:360
7.353:17
7.353:18
7.353:17
7.353:78
7.354:577
7.354:660
7.354:670
7.355:481
7.355:257
7.355:116
7.356:18
7.365:18
7.365:154
7.369:420
7.369:951
7.370:816
7.370:748
7.370:670
7.370:549
7.370:380
7.370:17
7.370:18
7.370:37
7.374:107
7.374:590
7.374:676
7.375:691
7.378:464
7.379:236
7.379:82
7.379:18
7.380:18
7.380:179
7.380:484
7.380:964
7.380:819
7.380:714
7.381:679
7.381:549
7.381:390
7.382:17
7.396:17
7.398:18
7.398:17
7.398:103
7.398:626
7.398:736
7.399:704
7.399:480
7.399:252
7.399:104
7.399:18
7.402:17
7.402:237
7.402:470
7.402:969
7.403:823
7.403:804
7.403:686
7.403:571
7.403:381
7.403:17
7.407:18
7.407:22
7.409:146
7.412:630
7.412:704
7.412:662
7.413:481
7.413:287
7.413:120
7.429:18
7.429:17
7.429:296
7.430:595
7.430:987
7.430:860
7.430:751
7.431:718
7.431:599
7.431:350
7.431:17
7.431:17
7.431:17
7.431:191
7.432:660
7.432:752
7.432:747
7.435:517
7.435:312
7.435:126
7.435:18
7.435:18
7.435:392
7.435:683
7.435:979
7.435:876
7.436:834
7.439:749
7.439:568
7.439:311
7.455:311
7.455:17
7.455:18
7.455:60
7.455:220
7.456:711
7.461:789
7.462:727
7.463:461
7.463:288
7.463:91
7.463:18
7.463:22
7.463:373
7.463:646
7.464:964
7.464:856
7.464:813
7.464:690
7.464:568
7.464:287
7.464:17
7.464:17
7.464:85
7.465:238
7.465:679
7.465:761
7.467:724
7.467:484
7.467:319
7.484:105
7.484:18
7.484:76
7.489:390
7.489:675
7.489:973
7.489:852
7.489:788
7.489:696
7.489:595
7.489:287
7.489:17
7.489:17
7.495:111
7.496:276
7.496:756
7.496:771
7.497:717
7.497:428
7.497:298
7.497:79
7.497:18
7.498:122
7.498:431
7.498:742
7.498:989
7.498:890
7.498:783
7.498:750
7.498:603
7.514:603
7.514:267
7.517:17
7.517:17
7.518:142
7.518:309
7.518:704
7.518:779
7.518:710
7.518:481
7.518:296
7.518:56
7.521:18
7.521:182
7.521:458
7.521:750
7.521:961
7.521:884
7.521:786
7.521:689
7.521:579
7.522:212
7.527:17
7.529:17
7.529:136
7.529:403
7.529:767
7.529:795
7.530:737
7.530:457
7.547:315
7.547:73
7.547:18
7.548:149
7.548:479
7.549:833
7.549:990
7.549:895
7.550:808
7.550:690
7.550:594
7.550:197
7.550:17
7.550:48
7.550:153
7.550:424
7.550:832
7.550:833
7.554:713
7.554:447
7.554:306
7.555:43
7.555:18
7.556:194
7.559:480
7.565:916
7.566:990
7.567:885
7.568:867
7.568:720
7.580:720
7.581:572
7.581:164
7.581:17
7.581:27
7.582:158
7.582:480
7.582:761
7.582:821
7.582:677
7.582:430
7.582:292
7.583:23
7.583:17
7.583:257
7.583:503
7.583:901
7.583:970
7.583:881
7.584:786
7.584:665
7.584:560
7.584:140
7.584:17
7.584:55
7.584:145
7.585:499
7.587:765
7.587:834
7.587:697
7.603:446
7.603:267
7.603:17
7.603:17
7.607:267
7.608:570
7.613:989
7.613:989
7.613:912
7.613:804
7.613:733
7.614:573
7.614:110
7.614:18
7.614:66
7.614:163
7.614:657
7.614:806
7.615:813
7.615:640
7.615:387
7.615:255
7.615:17
7.615:17
7.615:251
7.616:510
7.616:989
7.616:975
7.616:877
7.616:875
7.632:875
7.632:688
7.632:522
7.636:99
7.636:17
7.636:137
7.636:220
7.636:688
7.636:806
7.636:818
7.637:581
7.637:397
7.637:262
7.640:17
7.640:17
7.640:284
7.641:605
7.642:988
7.646:957
7.646:871
7.646:762
7.646:670
7.646:480
7.646:62
7.646:17
7.647:109
7.647:206
7.647:736
7.647:823
7.647:832
7.665:624
7.665:388
7.665:214
7.665:17
7.665:17
7.665:323
7.665:595
7.666:988
7.666:962
7.667:839
7.669:715
7.669:664
7.669:496
7.669:54
7.670:17
7.670:79
7.670:197
7.670:735
7.670:813
7.670:808
7.673:604
7.673:360
7.674:204
7.679:17
7.680:18
7.680:362
7.680:625
7.680:988
7.681:949
7.681:855
7.693:855
7.693:838
7.693:686
7.694:477
7.694:41
7.694:17
7.694:133
7.694:263
7.694:720
7.697:793
7.697:788
7.698:603
7.698:380
7.698:217
7.698:17
7.698:17
7.698:346
7.698:600
7.698:989
7.701:914
7.702:816
7.702:734
7.702:635
7.702:445
7.702:20
7.702:17
7.702:160
7.702:283
7.702:774
7.705:821
7.722:810
7.722:558
7.722:364
7.722:179
7.722:17
7.722:24
7.726:427
7.726:721
7.726:988
7.726:921
7.726:820
7.726:746
7.727:628
7.727:389
7.727:17
7.727:17
7.730:179
7.730:342
7.730:841
7.730:884
7.730:779
7.731:576
7.731:337
7.731:140
7.731:17
7.734:46
7.734:383
7.734:699
7.734:988
7.734:951
7.750:951
7.751:834
7.751:835
7.751:649
7.754:354
7.754:17
7.754:17
7.755:113
7.755:257
7.755:785
7.755:832
7.755:769
7.755:503
7.755:334
7.758:123
7.759:17
7.761:105
7.763:433
7.763:739
7.764:989
7.764:892
7.764:808
7.764:780
7.765:637
7.765:293
7.765:17
7.765:17
7.765:136
7.765:340
7.765:784
7.779:858
7.783:744
7.783:482
7.783:310
7.783:93
7.783:17
7.783:105
7.783:449
7.783:818
7.784:988
7.784:955
7.787:844
7.787:703
7.787:614
7.787:264
7.788:17
7.788:17
7.788:129
7.788:355
7.788:804
7.788:805
7.791:756
7.791:504
7.791:332
7.791:95
7.791:18
7.791:166
7.792:466
7.792:783
7.792:989
7.812:989
7.812:910
7.812:810
7.812:754
7.812:671
7.812:263
7.812:17
7.812:45
7.812:178
7.812:388
7.816:770
7.816:819
7.816:715
7.817:450
7.817:302
7.818:51
7.818:18
7.818:178
7.819:503
7.820:854
7.820:989
7.820:887
7.821:868
7.821:804
7.822:636
7.822:218
7.822:17
7.823:85
7.824:158
7.824:451
7.840:819
7.841:837
7.841:679
7.841:438
7.841:287
7.841:30
7.842:17
7.845:184
7.845:473
7.846:899
7.846:989
7.847:936
7.847:852
7.847:716
7.848:562
7.848:163
7.848:17
7.849:18
7.849:178
7.850:521
7.850:802
7.850:831
7.851:693
7.852:424
7.852:279
7.852:21
7.853:17
7.853:276
7.854:559
7.854:990
7.869:990
7.869:989
7.869:934
7.870:825
7.870:736
7.870:575
7.874:142
7.874:17
7.875:51
7.875:169
7.875:601
7.875:796
7.875:848
7.876:642
7.876:400
7.876:261
7.878:17
7.878:17
7.878:252
7.878:483
7.878:989
7.878:987
7.878:900
7.878:834
7.879:693
7.879:544
7.881:97
7.881:18
7.881:71
7.882:199
7.898:670
7.898:819
7.902:825
7.902:685
7.902:432
7.902:245
7.902:17
7.902:17
7.902:275
7.902:495
7.902:989
7.902:958
7.906:870
7.906:799
7.907:681
7.907:525
7.907:85
7.907:18
7.907:78
7.907:189
7.908:743
7.908:828
7.908:883
7.910:635
7.910:408
7.910:252
7.910:17
7.910:17
7.910:235
7.911:508
7.926:508
7.926:988
7.931:966
7.931:869
7.931:837
7.931:701
7.931:481
7.931:44
7.931:17
7.931:126
7.931:224
7.931:773
7.935:840
7.935:838
7.935:658
7.935:417
7.935:272
7.935:17
7.935:17
7.935:354
7.935:596
7.939:987
7.939:989
7.940:895
7.940:852
7.940:672
7.940:453
7.940:26
7.941:17
7.941:106
7.959:204
7.959:746
7.959:812
7.959:806
7.959:540
7.960:403
7.960:251
7.960:17
7.964:32
7.964:375
7.964:632
7.965:987
7.965:947
7.966:832
7.966:765
7.966:639
7.967:463
7.967:17
7.968:17
7.968:99
7.968:212
7.968:760
7.969:821
7.969:826
7.969:581
7.969:366
7.970:181
7.970:17
7.972:17
7.972:317
7.988:317
7.988:683
7.988:988
7.988:966
7.989:882
7.989:794
7.989:640
7.992:407
7.992:17
7.992:17
7.992:138
7.992:236
7.992:773
7.992:854
7.992:780
7.992:517
7.993:360
7.996:188
7.996:17
7.996:17
7.996:381
7.996:695
7.996:988
7.996:989
7.997:881
7.997:906
7.997:674
8.000:393
8.001:17
8.001:57
8.016:187
8.016:286
8.016:778
8.016:810
8.021:765
8.021:511
8.021:317
8.021:126
8.021:17
8.021:26
8.021:395
8.021:683
8.021:988
8.022:945
8.026:812
8.028:692
8.028:582
8.028:323
8.028:17
8.028:17
8.028:150
8.028:312
8.028:795
8.028:873
8.028:800
8.029:528
8.029:340
8.029:143
8.029:17
8.029:169
8.045:169
8.045:466
8.045:794
8.050:988
8.050:939
8.050:828
8.050:766
8.050:664
8.050:338
8.050:17
8.050:17
8.050:155
8.050:336
8.054:776
8.054:834
8.054:732
8.054:481
8.054:309
8.054:102
8.054:17
8.054:155
8.054:477
8.055:779
8.057:988
8.057:977
8.058:906
8.058:783
8.058:666
8.058:316
8.058:17
8.078:65
8.078:190
8.079:446
8.079:871
8.079:875
8.079:779
8.079:516
8.079:339
8.079:98
8.079:17
8.082:160
8.083:503
8.083:800
8.083:989
8.083:952
8.083:884
8.083:781
8.083:659
8.084:296
8.084:17
8.087:110
8.087:211
8.087:439
8.087:858
8.088:893
8.088:742
8.088:490
8.088:338
8.088:98
8.088:17
8.107:17
8.107:152
8.107:462
8.108:818
8.108:989
8.108:952
8.108:875
8.108:786
8.108:647
8.111:232
8.111:17
8.111:118
8.111:231
8.111:470
8.111:848
8.111:868
8.111:728
8.112:475
8.115:328
8.115:56
8.115:18
8.115:235
8.116:468
8.116:869
8.116:989
8.116:884
8.116:871
8.116:716
8.119:569
8.119:157
8.135:17
8.135:46
8.135:147
8.135:485
8.135:816
8.135:852
8.139:682
8.139:414
8.140:252
8.140:17
8.140:18
8.140:204
8.140:515
8.140:922
8.140:989
8.140:889
8.143:818
8.143:774
8.143:566
8.143:130
8.144:17
8.144:36
8.144:183
8.144:594
8.144:816
8.144:850
8.147:709
8.147:435
8.147:269
8.147:17
8.164:17
8.164:18
8.164:290
8.164:551
8.164:989
8.168:989
8.168:909
8.168:873
8.168:751
8.168:582
8.168:113
8.168:17
8.168:62
8.169:175
8.169:677
8.172:863
8.172:845
8.172:632
8.173:400
8.173:255
8.173:17
8.173:17
8.173:315
8.174:585
8.174:989
8.176:976
8.176:915
8.176:804
8.176:724
8.176:547
8.192:81
8.192:17
8.196:39
8.196:189
8.196:724
8.197:776
8.197:761
8.197:558
8.197:310
8.197:150
8.197:17
8.197:17
8.200:265
8.201:567
8.201:988
8.201:956
8.201:841
8.201:788
8.201:674
8.201:498
8.201:40
8.201:17
8.204:73
8.205:227
8.205:801
8.205:896
8.206:944
8.206:770
8.206:562
8.206:432
8.226:432
8.226:170
8.226:231
8.226:602
8.226:931
8.226:983
8.226:984
8.226:985
8.227:986
8.227:987
8.229:988
8.230:661
8.230:595
8.230:822
8.230:968
8.230:983
8.230:982
8.230:982
8.230:985
8.234:989
8.234:842
8.234:531
8.234:547
8.234:879
8.234:987
8.234:981
8.234:983
8.234:985
8.235:987
8.237:988
8.254:784
8.254:266
8.254:129
8.254:229
8.254:323
8.254:783
8.258:801
8.258:723
8.258:470
8.258:212
8.258:20
8.258:18
8.258:18
8.258:136
8.258:449
8.259:849
8.259:734
8.262:646
8.262:617
8.262:486
8.262:201
8.263:18
8.263:18
8.263:17
8.263:135
8.263:631
8.263:713
8.266:672
8.266:440
8.266:246
8.282:246
8.282:56
8.282:18
8.282:17
8.283:322
8.283:614
8.286:989
8.287:859
8.287:796
8.287:733
8.287:579
8.287:285
8.287:18
8.287:18
8.288:24
8.288:181
8.290:631
8.291:711
8.291:687
8.291:406
8.291:238
8.291:52
8.291:18
8.291:29
8.291:392
8.291:734
8.295:977
8.295:875
8.295:807
8.295:678
8.311:540
8.311:245
8.311:17
8.316:17
8.316:71
8.316:229
8.316:678
8.316:722
8.316:664
8.316:410
8.316:252
8.316:32
8.316:18
8.320:26
8.320:403
8.320:704
8.320:948
8.320:874
8.320:795
8.320:700
8.320:586
8.320:246
8.321:17
8.324:17
8.324:157
8.324:292
8.324:728
8.324:782
8.324:723
8.324:433
8.340:433
8.344:300
8.344:57
8.344:17
8.344:121
8.344:442
8.344:735
8.344:989
8.344:901
8.344:837
8.344:703
8.348:581
8.348:234
8.348:17
8.348:60
8.349:170
8.349:347
8.349:747
8.349:821
8.349:741
8.349:484
8.353:277
8.353:39
8.353:18
8.353:126
8.353:464
8.353:888
8.353:989
8.353:945
8.353:892
8.373:764
8.373:576
8.374:214
8.374:17
8.374:17
8.374:153
8.374:411
8.374:781
8.377:837
8.377:711
8.378:482
8.378:348
8.378:83
8.379:17
8.379:242
8.379:532
8.380:910
8.380:989
8.381:935
8.381:883
8.381:763
8.382:619
8.382:213
8.382:17
8.382:33
8.383:163
8.383:480
8.383:847
8.385:877
8.385:760
8.401:760
8.401:500
8.401:330
8.401:63
8.401:17
8.402:246
8.402:540
8.405:920
8.405:989
8.405:972
8.406:920
8.406:780
8.406:604
8.406:190
8.406:17
8.406:80
8.406:211
8.410:583
8.410:860
8.410:934
8.410:798
8.410:524
8.410:355
8.410:91
8.410:17
8.410:310
8.410:584
8.414:989
8.414:989
8.414:934
8.430:914
8.430:809
8.430:631
8.431:199
8.434:17
8.434:105
8.435:233
8.435:676
8.435:910
8.435:934
8.435:753
8.435:509
8.435:361
8.435:79
8.439:17
8.439:404
8.439:687
8.439:988
8.440:988
8.440:989
8.440:989
8.440:873
8.440:670
8.443:220
8.443:17
8.443:180
8.444:294
8.444:775
8.445:929
8.445:957
8.459:957
8.459:751
8.459:536
8.463:392
8.463:108
8.463:28
8.464:386
8.464:646
8.464:987
8.464:988
8.464:989
8.464:981
8.464:834
8.467:670
8.468:230
8.468:55
8.468:243
8.468:381
8.468:888
8.468:985
8.468:984
8.469:800
8.471:550
8.471:389
8.472:115
8.472:86
8.472:468
8.473:734
8.473:987
8.473:988
8.491:988
8.491:989
8.492:894
8.492:655
8.492:208
8.492:66
8.492:252
8.492:345
8.492:836
8.498:954
8.498:979
8.499:673
8.499:490
8.499:313
8.499:53
8.499:47
8.499:403
8.499:654
8.499:988
8.500:989
8.500:989
8.500:954
8.500:817
8.500:623
8.500:167
8.500:120
8.500:283
8.500:357
8.501:862
8.504:919
8.520:919
8.520:912
8.521:622
8.521:414
8.521:248
8.521:17
8.522:20
8.522:352
8.522:695
8.524:988
8.525:989
8.525:944
8.525:860
8.525:741
8.525:495
8.525:29
8.525:17
8.525:144
8.525:272
8.528:768
8.529:828
8.529:816
8.529:536
8.529:327
8.529:131
8.529:18
8.529:17
8.529:324
8.529:660
8.532:989
8.549:860
8.549:781
8.549:706
8.549:592
8.549:355
8.553:17
8.553:17
8.553:41
8.554:174
8.555:651
8.556:750
8.557:679
8.560:443
8.562:225
8.562:40
8.563:18
8.563:17
8.563:254
8.563:552
8.563:933
8.563:805
8.564:710
8.564:569
8.564:503
8.564:242
8.564:18
8.565:18
8.565:17
8.565:120
8.565:600
8.577:600
8.577:666
8.577:625
8.577:348
8.581:167
8.582:17
8.582:18
8.582:18
8.582:284
8.582:548
8.582:928
8.582:817
8.582:730
8.582:578
8.585:471
8.585:169
8.585:18
8.586:18
8.586:17
8.586:209
8.586:698
8.586:722
8.586:697
8.586:363
8.589:174
8.590:17
8.590:18
8.590:17
8.590:331
8.590:579
8.606:922
8.611:829
8.611:755
8.611:609
8.611:546
8.611:181
8.611:18
8.611:18
8.611:17
8.611:161
8.611:670
8.615:743
8.615:623
8.615:364
8.615:216
8.615:17
8.615:18
8.615:40
8.615:387
8.615:745
8.615:968
8.619:844
8.619:807
8.619:741
8.619:555
8.619:158
8.619:18
8.619:17
8.619:91
8.619:251
8.639:251
8.639:673
8.640:749
8.640:591
8.640:367
8.640:228
8.640:17
8.640:18
8.640:56
8.640:396
8.643:805
8.643:975
8.643:852
8.643:827
8.644:680
8.644:566
8.644:160
8.644:18
8.644:32
8.644:146
8.647:395
8.647:752
8.648:811
8.648:661
8.648:384
8.648:217
8.648:17
8.648:18
8.648:99
8.649:438
8.668:829
8.668:936
8.668:869
8.668:813
8.668:688
8.668:575
8.672:133
8.672:18
8.672:39
8.673:149
8.673:465
8.673:756
8.673:807
8.674:641
8.674:356
8.674:243
8.676:17
8.676:18
8.676:191
8.676:495
8.676:852
8.676:953
8.677:884
8.677:850
8.677:742
8.677:521
8.680:98
8.680:18
8.680:45
8.680:148
8.696:148
8.696:508
8.696:791
8.696:815
8.696:661
8.701:400
8.701:235
8.701:17
8.701:18
8.701:158
8.701:437
8.701:980
8.701:945
8.701:860
8.701:788
8.704:689
8.705:519
8.705:61
8.705:18
8.705:45
8.706:159
8.706:604
8.706:810
8.706:833
8.706:645
8.706:399
8.708:237
8.708:17
8.708:18
8.708:226
8.725:528
8.725:989
8.729:976
8.729:859
8.729:827
8.729:690
8.729:512
8.729:67
8.729:17
8.729:91
8.730:186
8.730:723
8.733:809
8.733:825
8.733:630
8.733:382
8.733:204
8.733:17
8.733:17
8.733:240
8.734:525
8.734:989
8.737:963
8.737:864
8.737:743
8.738:661
8.738:502
8.738:26
8.739:18
8.739:22
8.753:22
8.753:133
8.758:699
8.758:797
8.758:832
8.758:558
8.758:355
8.758:210
8.758:17
8.759:17
8.759:287
8.759:597
8.762:988
8.762:963
8.762:900
8.762:921
8.762:730
8.763:485
8.763:35
8.763:18
8.763:38
8.763:196
8.766:725
8.766:822
8.766:809
8.766:564
8.766:348
8.766:175
8.766:17
8.766:17
8.786:287
8.786:518
8.786:989
8.786:924
8.787:864
8.787:897
8.787:719
8.787:489
8.790:19
8.790:17
8.790:76
8.790:202
8.791:784
8.791:813
8.791:752
8.791:563
8.791:367
8.791:182
8.795:17
8.795:17
8.795:362
8.795:657
8.795:988
8.795:942
8.795:841
8.795:755
8.795:658
8.795:398
8.799:17
8.799:17
8.815:17
8.815:52
8.815:210
8.815:738
8.815:812
8.815:788
8.815:510
8.819:310
8.819:133
8.819:18
8.819:17
8.819:417
8.819:678
8.819:988
8.819:945
8.819:875
8.819:762
8.824:635
8.826:362
8.826:17
8.826:17
8.826:137
8.826:263
8.827:815
8.827:854
8.827:809
8.827:577
8.827:345
8.827:120
8.827:18
8.843:17
8.843:356
8.844:652
8.844:988
8.848:967
8.848:855
8.848:753
8.848:614
8.848:336
8.848:17
8.848:19
8.848:124
8.848:279
8.849:782
8.852:805
8.852:790
8.852:513
8.852:345
8.852:103
8.852:18
8.852:17
8.852:372
8.852:681
8.852:989
8.856:965
8.856:865
8.856:766
8.856:626
8.856:300
8.856:17
8.872:17
8.872:17
8.872:115
8.876:288
8.876:807
8.877:831
8.877:767
8.877:516
8.877:322
8.877:80
8.877:18
8.878:50
8.878:398
8.880:797
8.880:988
8.881:919
8.881:868
8.881:743
8.881:653
8.882:286
8.882:17
8.882:20
8.882:132
8.884:329
8.884:806
8.885:846
8.885:684
8.885:408
8.885:293
8.885:50
8.905:18
8.905:100
8.906:439
8.906:738
8.906:989
8.906:891
8.906:876
8.907:797
8.907:631
8.909:227
8.909:17
8.909:29
8.909:163
8.909:430
8.909:810
8.909:870
8.910:756
8.910:488
8.910:276
8.914:31
8.914:18
8.914:116
8.915:472
8.915:836
8.916:989
8.916:918
8.916:841
8.917:699
8.917:613
8.917:194
8.934:194
8.934:17
8.934:44
8.934:128
8.934:427
8.935:772
8.935:847
8.935:702
8.935:413
8.940:284
8.940:22
8.941:18
8.942:129
8.942:440
8.942:871
8.943:988
8.943:898
8.943:831
8.944:709
8.944:561
8.945:155
8.945:17
8.946:115
8.949:216
8.950:530
8.951:853
8.951:870
8.953:710
8.953:416
8.954:272
8.969:17
8.970:18
8.973:205
8.974:450
8.995:969
8.998:990
8.998:926
8.999:810
8.999:711
8.999:567
8.999:119
9.000:17
9.000:91
9.001:183
9.003:599
