0.000:75
0.000:490
0.000:780
0.001:818
0.001:642
0.001:373
0.001:206
0.002:17
0.002:18
0.002:208
0.002:502
0.003:987
0.003:985
0.003:849
0.004:810
0.004:725
0.004:525
0.005:47
0.005:18
0.005:40
0.005:115
0.006:568
0.006:799
0.007:828
0.007:653
0.008:380
0.010:197
0.014:17
0.014:17
0.015:18
0.015:164
0.016:521
0.016:976
0.017:955
0.017:874
0.017:790
0.018:677
0.018:514
0.018:43
0.018:17
0.019:130
0.019:185
0.019:687
0.019:815
0.020:835
0.020:636
0.020:360
0.020:208
0.021:18
0.021:18
0.021:303
0.021:588
0.022:988
0.022:989
0.022:880
0.022:809
0.023:759
0.023:536
0.023:31
0.023:18
0.023:17
0.024:133
0.024:672
0.025:820
0.025:836
0.030:556
0.031:350
0.031:200
0.031:18
0.031:17
0.032:334
0.032:548
0.032:988
0.033:983
0.034:900
0.034:824
0.034:716
0.034:526
0.034:30
0.035:18
0.035:50
0.035:183
0.036:760
0.036:848
0.036:802
0.037:610
0.037:377
0.037:189
0.039:189
0.039:17
0.039:17
0.039:335
0.040:603
0.040:987
0.040:989
0.041:958
0.047:804
0.049:715
0.049:499
0.049:21
0.049:17
0.050:156
0.050:265
0.050:827
0.050:911
0.054:850
0.056:588
0.056:357
0.056:213
0.056:17
0.057:17
0.057:396
0.068:737
0.069:986
0.069:989
0.070:909
0.070:806
0.071:733
0.071:480
0.071:25
0.072:67
0.072:227
0.072:329
0.073:876
0.073:920
0.073:870
0.073:653
0.073:415
0.074:202
0.074:17
0.084:38
0.084:400
0.085:697
0.085:987
0.085:989
0.085:989
0.086:847
0.086:749
0.086:490
0.086:31
0.087:17
0.087:144
0.087:306
0.088:845
0.088:925
0.088:901
0.088:619
0.088:400
0.088:400
0.088:208
0.088:17
0.089:127
0.089:542
0.089:819
0.089:986
0.089:989
0.089:949
0.089:864
0.089:793
0.090:473
0.090:33
0.090:22
0.090:176
0.090:371
0.090:877
0.090:971
0.090:908
0.091:616
0.101:409
0.102:206
0.102:17
0.102:189
0.102:535
0.102:918
0.103:987
0.103:988
0.103:962
0.103:887
0.103:766
0.103:431
0.103:29
0.104:56
0.104:209
0.104:411
0.104:920
0.104:964
0.105:890
0.105:565
0.105:408
0.105:179
0.105:17
0.105:202
0.105:581
0.106:989
0.106:986
0.106:988
0.106:964
0.106:883
0.107:755
0.107:393
0.107:17
0.118:43
0.118:241
0.118:444
0.119:929
0.119:957
0.119:845
0.119:552
0.119:552
0.119:386
0.120:123
0.120:17
0.120:145
0.120:556
0.120:960
0.120:988
0.121:989
0.121:990
0.121:904
0.121:700
0.121:281
0.121:18
0.121:66
0.122:161
0.122:378
0.122:799
0.122:821
0.122:664
0.123:412
0.123:217
0.123:17
0.123:18
0.123:88
0.124:427
0.131:781
0.132:959
0.132:844
0.133:838
0.134:692
0.134:545
0.134:111
0.134:18
0.135:18
0.135:18
0.135:288
0.135:695
0.135:753
0.135:634
0.135:349
0.135:183
0.136:17
0.136:19
0.136:142
0.137:382
0.137:794
0.137:898
0.137:769
0.137:752
0.137:623
0.137:475
0.138:34
0.138:19
0.138:17
0.138:17
0.138:363
0.138:645
0.138:669
0.138:538
0.138:538
0.139:255
0.139:85
0.139:18
0.139:19
0.139:44
0.139:346
0.139:817
0.139:871
0.140:740
0.140:770
0.140:687
0.140:458
0.140:17
0.140:18
0.140:17
0.140:17
0.148:418
0.149:665
0.149:692
0.149:524
0.149:272
0.149:129
0.150:18
0.150:18
0.150:158
0.150:456
0.150:921
0.150:863
0.150:788
0.150:671
0.151:611
0.151:498
0.151:19
0.151:18
0.151:17
0.151:18
0.151:524
0.151:709
0.151:715
0.152:500
0.152:246
0.152:113
0.152:18
0.152:18
0.152:104
0.152:449
0.152:952
0.153:896
0.153:800
0.153:782
0.153:687
0.153:496
0.153:17
0.153:18
0.153:54
0.154:100
0.154:602
0.154:711
0.154:736
0.154:736
0.154:580
0.154:319
0.154:133
0.155:18
0.155:18
0.155:128
0.155:506
0.155:988
0.155:926
0.155:846
0.155:857
0.156:669
0.156:438
0.156:17
0.156:18
0.156:42
0.156:91
0.156:621
0.157:728
0.157:734
0.157:543
0.157:277
0.157:144
0.157:18
0.163:18
0.165:200
0.165:530
0.165:989
0.165:888
0.166:818
0.166:743
0.166:656
0.166:421
0.166:17
0.166:18
0.167:74
0.167:125
0.167:616
0.167:751
0.167:748
0.167:514
0.167:299
0.167:127
0.167:18
0.168:18
0.168:230
0.168:527
0.168:989
0.168:906
0.168:854
0.168:886
0.168:687
0.169:415
0.169:18
0.169:17
0.169:105
0.169:147
0.169:678
0.169:799
0.169:799
0.170:772
0.170:548
0.170:306
0.170:127
0.170:18
0.170:18
0.170:287
0.170:598
0.171:989
0.171:866
0.171:812
0.171:719
0.171:608
0.171:381
0.171:17
0.171:17
0.171:95
0.172:200
0.172:738
0.172:784
0.172:725
0.172:474
0.172:280
0.172:83
0.173:18
0.173:17
0.173:306
0.173:589
0.173:989
0.173:887
0.173:834
0.173:719
0.174:637
0.174:373
0.180:17
0.181:17
0.182:153
0.182:251
0.182:713
0.183:782
0.183:753
0.183:509
0.184:281
0.184:82
0.184:18
0.184:17
0.184:335
0.185:688
0.185:989
0.185:882
0.185:856
0.185:779
0.185:665
0.185:324
0.186:18
0.186:17
0.186:47
0.186:257
0.186:681
0.186:681
0.187:745
0.187:725
0.187:449
0.187:270
0.187:52
0.187:18
0.187:17
0.187:341
0.188:752
0.188:990
0.188:879
0.188:808
0.188:712
0.188:633
0.188:296
0.188:18
0.189:18
0.189:23
0.189:231
0.189:731
0.189:779
0.189:755
0.189:460
0.189:281
0.189:32
0.190:18
0.190:17
0.190:372
0.190:726
0.190:989
0.190:929
0.190:802
0.190:782
0.200:625
0.201:256
0.201:18
0.201:17
0.201:85
0.201:270
0.201:735
0.201:786
0.201:718
0.202:433
0.202:251
0.202:19
0.202:18
0.202:70
0.202:405
0.202:699
0.202:984
0.202:864
0.203:820
0.203:752
0.203:579
0.203:198
0.203:18
0.203:17
0.203:73
0.203:312
0.204:312
0.204:713
0.204:828
0.204:650
0.204:393
0.204:239
0.204:17
0.204:18
0.205:130
0.205:496
0.205:864
0.205:989
0.205:867
0.205:820
0.206:739
0.206:600
0.206:176
0.206:18
0.206:17
0.206:83
0.206:348
0.206:721
0.207:784
0.207:669
0.207:388
0.207:220
0.207:17
0.211:18
0.214:119
0.216:475
0.216:910
0.217:989
0.217:918
0.217:797
0.217:682
0.217:526
0.217:110
0.218:18
0.218:17
0.218:129
0.218:433
0.218:771
0.218:813
0.218:681
0.218:407
0.219:243
0.219:17
0.219:18
0.219:199
0.219:510
0.219:963
0.219:989
0.219:888
0.220:881
0.220:781
0.220:560
0.220:92
0.220:18
0.220:25
0.220:79
0.220:79
0.220:494
0.221:783
0.221:821
0.221:642
0.221:351
0.221:198
0.221:17
0.221:18
0.221:154
0.221:426
0.222:984
0.222:968
0.222:864
0.222:795
0.222:667
0.222:539
0.222:71
0.222:18
0.223:68
0.223:120
0.223:584
0.223:789
0.223:807
0.223:674
0.223:385
0.224:231
0.224:18
0.224:18
0.229:163
0.230:509
0.231:989
0.231:984
0.231:914
0.231:942
0.232:781
0.232:615
0.232:93
0.232:18
0.232:17
0.232:83
0.232:638
0.233:773
0.233:805
0.233:578
0.233:331
0.233:161
0.233:18
0.233:18
0.233:364
0.234:580
0.234:989
0.234:961
0.234:922
0.234:785
0.234:697
0.234:543
0.235:35
0.235:18
0.235:19
0.235:19
0.235:106
0.235:700
0.236:829
0.236:825
0.236:579
0.236:349
0.236:202
0.236:17
0.236:18
0.236:298
0.237:583
0.237:989
0.237:959
0.237:870
0.237:914
0.237:764
0.237:493
0.237:17
0.238:18
0.238:17
0.238:122
0.238:731
0.238:818
0.238:819
0.238:605
0.238:340
0.239:157
0.239:18
0.239:17
0.239:313
0.239:625
0.239:988
0.239:989
0.239:863
0.240:720
0.240:687
0.240:477
0.240:17
0.240:18
0.240:46
0.240:157
0.248:663
0.248:787
0.249:780
0.249:527
0.249:304
0.249:152
0.249:17
0.249:17
0.249:267
0.249:621
0.250:988
0.250:944
0.250:868
0.250:812
0.250:656
0.250:401
0.250:17
0.250:17
0.250:17
0.251:69
0.251:216
0.251:750
0.251:781
0.251:802
0.251:470
0.251:257
0.251:88
0.252:18
0.252:17
0.252:358
0.252:647
0.252:988
0.252:952
0.252:885
0.253:838
0.253:697
0.253:393
0.253:17
0.253:17
0.253:70
0.253:212
0.253:748
0.254:826
0.254:779
0.254:550
0.254:331
0.254:117
0.254:18
0.254:17
0.255:399
0.255:750
0.255:988
0.255:921
0.255:874
0.256:806
0.256:645
0.256:353
0.256:18
0.256:18
0.256:62
0.256:285
0.256:746
0.257:810
0.257:757
0.257:474
0.257:304
0.261:72
0.264:18
0.265:64
0.265:383
0.265:802
0.266:989
0.266:924
0.266:832
0.266:719
0.266:608
0.266:327
0.266:17
0.266:17
0.266:18
0.267:39
0.267:237
0.267:742
0.267:794
0.267:769
0.267:452
0.267:267
0.267:51
0.268:18
0.268:52
0.268:396
0.268:745
0.268:988
0.268:915
0.268:797
0.268:779
0.269:655
0.269:274
0.269:18
0.269:17
0.269:58
0.269:260
0.269:809
0.269:815
0.270:713
0.270:408
0.270:255
0.270:20
0.270:18
0.270:28
0.270:440
0.270:800
0.270:989
0.271:898
0.271:889
0.271:828
0.271:650
0.271:252
0.271:18
0.271:46
0.271:99
0.272:338
0.272:816
0.272:841
0.272:738
0.272:460
0.273:300
0.273:24
0.273:18
0.273:85
0.273:434
0.274:818
0.274:989
0.279:938
0.281:961
0.281:806
0.282:625
0.282:191
0.282:191
0.282:18
0.282:28
0.282:143
0.282:387
0.283:814
0.283:840
0.283:686
0.283:406
0.283:260
0.283:17
0.283:18
0.284:113
0.284:519
0.284:929
0.284:988
0.285:932
0.285:822
0.285:776
0.285:590
0.285:158
0.285:18
0.285:17
0.285:140
0.286:506
0.286:795
0.286:828
0.286:673
0.286:409
0.286:228
0.286:17
0.286:18
0.287:225
0.287:514
0.287:944
0.287:988
0.287:932
0.287:906
0.287:794
0.287:649
0.288:152
0.288:18
0.288:20
0.288:136
0.288:511
0.288:812
0.288:897
0.288:705
0.289:417
0.289:261
0.289:17
0.289:18
0.289:300
0.289:557
0.289:989
0.289:989
0.290:953
0.290:816
0.290:733
0.290:551
0.290:551
0.290:104
0.297:18
0.298:17
0.298:119
0.298:649
0.298:852
0.299:840
0.299:678
0.299:393
0.299:213
0.299:17
0.300:18
0.300:226
0.300:473
0.300:989
0.300:989
0.300:959
0.300:898
0.300:741
0.301:565
0.301:62
0.301:18
0.301:17
0.301:107
0.301:653
0.301:806
0.301:807
0.301:611
0.302:352
0.302:203
0.302:17
0.302:17
0.302:293
0.302:603
0.302:989
0.302:959
0.303:872
0.303:863
0.303:783
0.303:583
0.303:55
0.303:18
0.303:17
0.304:125
0.304:676
0.304:775
0.304:809
0.304:515
0.305:315
0.305:172
0.305:18
0.305:18
0.305:310
0.305:580
0.305:988
0.306:953
0.306:827
0.306:782
0.306:712
0.306:712
0.306:504
0.306:18
0.306:18
0.306:21
0.307:157
0.307:730
0.307:828
0.307:835
0.311:621
0.313:348
0.314:169
0.315:17
0.315:17
0.316:299
0.316:642
0.316:988
0.316:926
0.316:858
0.317:812
0.317:686
0.317:465
0.318:17
0.318:18
0.319:82
0.319:208
0.319:725
0.319:825
0.319:839
0.319:542
0.319:345
0.319:149
0.320:18
0.320:17
0.320:317
0.320:700
0.320:988
0.321:911
0.321:799
0.321:699
0.321:657
0.322:426
0.322:17
0.322:18
0.322:106
0.322:189
0.323:688
0.323:780
0.323:773
0.323:515
0.323:298
0.323:132
0.324:17
0.324:18
0.330:427
0.330:768
0.331:987
0.331:988
0.331:988
0.331:989
0.331:989
0.332:913
0.332:684
0.332:275
0.333:285
0.333:494
0.333:679
0.333:987
0.333:985
0.333:985
0.333:988
0.334:965
0.334:796
0.334:582
0.334:784
0.334:988
0.335:984
0.335:979
0.335:981
0.335:982
0.335:984
0.335:985
0.335:958
0.335:483
0.336:455
0.336:553
0.336:693
0.336:988
0.336:987
0.336:988
0.336:837
0.336:579
0.337:278
0.337:17
0.337:53
0.337:410
0.337:623
0.337:900
0.337:799
0.337:712
0.338:667
0.338:553
0.338:204
0.338:18
0.338:17
0.338:17
0.338:125
0.338:557
0.339:618
0.339:592
0.339:355
0.339:187
0.339:17
0.339:18
0.339:17
0.339:327
0.339:675
0.340:969
0.340:850
0.340:837
0.340:837
0.348:704
0.348:636
0.348:266
0.348:17
0.349:17
0.349:86
0.349:303
0.349:702
0.349:802
0.349:697
0.349:432
0.349:274
0.350:28
0.350:18
0.350:81
0.350:497
0.350:821
0.350:989
0.350:959
0.350:831
0.351:780
0.351:608
0.351:227
0.351:18
0.351:17
0.351:144
0.351:392
0.351:810
0.352:869
0.352:863
0.352:542
0.352:339
0.352:59
0.352:18
0.352:118
0.353:462
0.353:856
0.353:989
0.353:946
0.354:909
0.354:741
0.354:626
0.354:217
0.354:17
0.354:107
0.354:213
0.355:448
0.355:839
0.355:872
0.355:716
0.355:476
0.355:318
0.355:52
0.355:17
0.356:226
0.356:533
0.356:944
0.356:988
0.356:989
0.356:989
0.356:970
0.356:826
0.357:677
0.357:221
0.357:17
0.359:98
0.362:237
0.365:519
0.365:871
0.365:894
0.365:730
0.365:445
0.366:287
0.366:28
0.366:18
0.366:263
0.366:594
0.366:989
0.366:989
0.366:989
0.367:949
0.367:810
0.367:643
0.367:196
0.367:17
0.367:111
0.367:213
0.367:587
0.367:923
0.368:962
0.368:763
0.368:489
0.368:335
0.368:54
0.368:17
0.368:394
0.369:690
0.369:987
0.369:988
0.369:989
0.369:959
0.369:878
0.369:680
0.369:190
0.370:17
0.370:112
0.370:251
0.370:731
0.370:907
0.370:919
0.370:757
0.370:496
0.371:339
0.371:62
0.371:17
0.371:392
0.371:666
0.371:987
0.371:987
0.371:987
0.372:989
0.372:989
0.372:871
0.372:688
0.372:207
0.372:17
0.372:173
0.372:271
0.373:785
0.373:929
0.373:965
0.373:765
0.373:496
0.373:307
0.374:33
0.377:17
0.380:464
0.381:721
0.381:987
0.381:988
0.381:989
0.382:989
0.382:891
0.382:702
0.382:193
0.382:17
0.382:231
0.382:335
0.382:864
0.383:985
0.383:989
0.383:803
0.384:507
0.384:358
0.384:73
0.384:65
0.384:513
0.384:767
0.384:986
0.385:988
0.385:988
0.385:989
0.385:921
0.385:724
0.385:213
0.385:89
0.385:305
0.385:367
0.386:920
0.386:985
0.386:989
0.386:805
0.386:558
0.386:378
0.386:86
0.386:129
0.389:568
0.389:816
0.389:985
0.390:985
0.390:987
0.390:988
0.390:987
0.390:989
0.397:739
0.398:230
0.398:134
0.398:276
0.399:412
0.399:982
0.399:989
0.399:989
0.399:761
0.399:555
0.400:379
0.400:106
0.400:205
0.400:603
0.400:908
0.400:985
0.400:987
0.400:987
0.401:988
0.401:969
0.401:683
0.401:207
0.401:108
0.401:300
0.401:422
0.401:954
0.402:989
0.402:990
0.402:765
0.402:563
0.402:374
0.402:93
0.402:262
0.403:646
0.403:925
0.403:985
0.403:987
0.404:988
0.404:988
0.404:914
0.404:631
0.404:158
0.404:136
0.404:337
0.405:461
0.405:960
0.405:989
0.405:989
0.405:633
0.405:457
0.405:272
0.405:17
0.405:124
0.406:586
0.406:898
0.406:898
0.406:987
0.406:988
0.406:989
0.406:886
0.407:814
0.407:527
0.407:70
0.415:100
0.415:267
0.415:400
0.415:895
0.415:925
0.416:897
0.416:581
0.416:404
0.416:185
0.416:18
0.416:157
0.417:515
0.417:833
0.417:987
0.417:984
0.417:897
0.417:778
0.417:670
0.417:322
0.418:17
0.418:17
0.418:84
0.418:274
0.418:742
0.418:843
0.418:777
0.418:497
0.419:324
0.419:68
0.419:18
0.419:130
0.419:436
0.419:741
0.419:989
0.419:928
0.419:828
0.420:815
0.420:643
0.420:263
0.420:18
0.420:17
0.420:89
0.420:294
0.421:708
0.421:804
0.421:723
0.421:439
0.422:284
0.422:29
0.422:18
0.422:85
0.423:457
0.423:457
0.432:771
0.433:972
0.434:902
0.434:863
0.434:853
0.434:677
0.434:266
0.434:17
0.434:52
0.435:150
0.435:346
0.435:770
0.435:828
0.435:702
0.435:488
0.436:286
0.436:27
0.436:18
0.436:98
0.436:485
0.436:840
0.436:989
0.437:895
0.437:866
0.437:811
0.437:633
0.437:233
0.437:17
0.437:171
0.438:208
0.438:416
0.438:791
0.438:854
0.438:716
0.438:446
0.439:266
0.439:18
0.439:18
0.439:115
0.439:478
0.439:939
0.440:989
0.440:935
0.440:841
0.440:736
0.440:577
0.448:168
0.448:17
0.449:126
0.449:202
0.449:554
0.450:809
0.450:846
0.451:753
0.451:472
0.451:299
0.451:38
0.452:18
0.452:207
0.453:207
0.453:509
0.453:905
0.453:989
0.454:926
0.454:904
0.454:789
0.454:667
0.454:185
0.454:17
0.454:201
0.454:257
0.455:674
0.455:851
0.455:894
0.455:782
0.455:493
0.455:305
0.455:25
0.455:18
0.456:210
0.456:537
0.456:989
0.456:989
0.456:989
0.456:900
0.456:733
0.456:598
0.457:132
0.460:17
0.465:216
0.465:258
0.466:741
0.466:919
0.466:918
0.466:758
0.467:445
0.467:261
0.467:17
0.467:17
0.467:228
0.468:564
0.468:988
0.468:988
0.468:976
0.469:989
0.469:852
0.469:616
0.469:137
0.469:17
0.470:256
0.470:252
0.470:733
0.470:888
0.470:903
0.471:728
0.471:443
0.471:324
0.471:25
0.472:17
0.472:17
0.472:374
0.473:619
0.473:987
0.473:989
0.473:965
0.481:833
0.481:753
0.483:575
0.483:109
0.483:17
0.484:211
0.484:279
0.484:868
0.485:922
0.486:908
0.487:724
0.487:467
0.487:273
0.487:17
0.488:17
0.488:399
0.488:672
0.488:986
0.489:988
0.489:968
0.489:904
0.489:761
0.489:573
0.489:93
0.490:17
0.499:137
0.500:259
0.500:804
0.502:834
0.503:909
0.503:683
0.504:439
0.504:259
0.505:17
0.506:26
0.506:398
0.506:705
0.506:987
0.509:988
0.511:936
0.511:951
0.518:787
0.518:562
0.518:80
0.518:17
0.519:140
0.519:244
0.519:796
0.519:888
0.521:912
0.522:625
0.523:421
0.529:242
0.532:17
0.532:17
0.532:37
0.532:427
0.533:673
0.533:987
0.533:989
0.533:957
0.533:975
0.534:826
0.534:572
0.534:58
0.534:60
0.535:181
0.535:314
0.535:862
0.535:937
0.535:921
0.536:627
0.536:408
0.536:218
0.536:17
0.536:31
0.537:373
0.537:769
0.537:987
0.537:989
0.538:976
0.538:848
0.538:770
0.538:475
0.538:23
0.539:188
0.539:259
0.539:322
0.539:870
0.540:946
0.540:867
0.546:622
0.547:390
0.548:185
0.548:17
0.548:40
0.549:473
0.549:797
0.549:987
0.549:989
0.549:938
0.549:790
0.549:740
0.549:433
0.550:17
0.550:122
0.550:223
0.550:330
0.550:856
0.550:879
0.550:818
0.551:533
0.551:370
0.551:158
0.551:158
0.552:17
0.552:93
0.552:484
0.552:775
0.552:987
0.553:989
0.553:915
0.553:824
0.553:759
0.554:419
0.554:17
0.554:96
0.554:184
0.554:385
0.555:880
0.555:905
0.555:828
0.555:483
0.555:359
0.555:130
0.555:17
0.555:159
0.556:523
0.556:885
0.556:987
0.556:989
0.556:911
0.556:857
0.556:778
0.556:384
0.559:17
0.564:31
0.565:148
0.565:382
0.566:890
0.566:896
0.566:826
0.566:526
0.567:366
0.568:116
0.568:17
0.568:268
0.568:514
0.569:849
0.569:987
0.569:989
0.569:881
0.569:782
0.570:649
0.570:289
0.570:17
0.570:28
0.570:161
0.571:417
0.571:857
0.571:926
0.571:802
0.572:544
0.572:361
0.572:361
0.572:92
0.572:18
0.573:234
0.573:609
0.573:927
0.579:988
0.580:990
0.581:943
0.582:909
0.582:762
0.583:307
0.583:17
0.583:187
0.583:256
0.583:480
0.584:885
0.584:922
0.584:768
0.584:509
0.584:354
0.584:100
0.584:18
0.584:196
0.585:525
0.585:989
0.585:988
0.585:990
0.585:891
0.585:787
0.585:683
0.585:245
0.586:17
0.586:235
0.586:270
0.586:585
0.586:881
0.586:889
0.586:743
0.586:475
0.587:339
0.587:53
0.587:17
0.587:310
0.587:646
0.587:989
0.587:988
0.587:983
0.588:933
0.588:821
0.588:645
0.588:187
0.589:17
0.589:115
0.589:240
0.589:620
0.590:853
0.598:931
0.598:734
0.598:498
0.599:498
0.599:296
0.599:28
0.599:18
0.599:337
0.599:596
0.599:988
0.600:989
0.600:961
0.600:831
0.600:741
0.600:634
0.600:167
0.601:17
0.601:35
0.601:170
0.601:658
0.601:855
0.602:891
0.602:713
0.602:440
0.602:297
0.602:24
0.602:17
0.603:319
0.603:597
0.603:988
0.603:989
0.603:940
0.603:890
0.603:793
0.604:604
0.604:124
0.604:17
0.604:156
0.604:230
0.604:777
0.605:900
0.605:874
0.605:703
0.605:457
0.605:283
0.605:17
0.605:17
0.606:361
0.606:638
0.606:988
0.606:989
0.606:912
0.606:890
0.606:801
0.606:594
0.607:115
0.614:34
0.614:261
0.614:315
0.615:807
0.615:889
0.615:904
0.615:686
0.615:686
0.616:446
0.616:282
0.616:17
0.616:17
0.616:428
0.616:679
0.616:987
0.617:989
0.617:944
0.617:797
0.617:738
0.617:563
0.617:78
0.617:17
0.617:177
0.618:268
0.618:786
0.618:885
0.618:888
0.618:662
0.618:422
0.618:260
0.618:17
0.618:18
0.619:433
0.619:664
0.619:987
0.619:990
0.619:931
0.619:801
0.619:742
0.620:539
0.620:55
0.620:17
0.620:93
0.620:237
0.620:771
0.621:859
0.621:866
0.621:619
0.621:411
0.621:246
0.621:17
0.621:76
0.622:459
0.622:755
0.622:987
0.622:989
0.622:942
0.622:968
0.622:836
0.622:550
0.623:42
0.623:17
0.623:128
0.626:280
0.630:798
0.631:902
0.631:865
0.631:865
0.631:609
0.631:428
0.632:248
0.632:17
0.632:80
0.632:465
0.632:778
0.632:987
0.632:989
0.632:937
0.633:895
0.633:725
0.633:465
0.633:24
0.633:17
0.633:168
0.633:355
0.633:816
0.634:912
0.634:855
0.634:548
0.634:409
0.634:227
0.634:17
0.634:139
0.634:517
0.635:844
0.635:988
0.635:989
0.635:968
0.635:896
0.635:720
0.635:444
0.636:18
0.636:75
0.636:200
0.636:328
0.636:835
0.636:914
0.636:895
0.636:617
0.637:429
0.637:189
0.637:17
0.637:133
0.637:499
0.637:827
0.637:988
0.637:989
0.638:948
0.638:929
0.638:795
0.638:407
0.638:17
0.638:94
0.638:216
0.638:360
0.639:852
0.639:919
0.639:919
0.639:808
0.639:541
0.639:345
0.639:108
0.639:18
0.640:59
0.640:469
0.646:851
0.647:988
0.647:980
0.648:927
0.648:872
0.648:714
0.648:326
0.648:17
0.648:141
0.649:211
0.649:335
0.649:837
0.649:885
0.649:753
0.649:508
0.649:309
0.649:62
0.650:18
0.650:111
0.650:490
0.650:877
0.651:988
0.651:986
0.651:866
0.651:781
0.651:647
0.652:254
0.652:17
0.652:138
0.652:221
0.652:386
0.652:827
0.652:882
0.652:735
0.653:520
0.653:327
0.653:69
0.653:18
0.653:133
0.653:520
0.653:844
0.653:989
0.654:931
0.654:843
0.654:752
0.654:629
0.654:234
0.654:17
0.654:88
0.654:170
0.655:506
0.655:858
0.655:858
0.655:907
0.655:738
0.655:404
0.655:276
0.655:21
0.655:18
0.656:227
0.656:551
0.656:989
0.656:988
0.656:979
0.656:933
0.656:816
0.659:686
0.664:200
0.664:17
0.665:77
0.665:163
0.665:496
0.665:838
0.665:884
0.665:727
0.665:441
0.666:265
0.666:17
0.666:18
0.666:211
0.666:511
0.666:889
0.666:978
0.666:864
0.667:769
0.667:658
0.667:540
0.667:97
0.667:18
0.667:17
0.667:122
0.667:522
0.668:808
0.668:871
0.668:713
0.668:459
0.668:348
0.668:91
0.668:18
0.668:428
0.669:739
0.669:986
0.669:985
0.669:986
0.669:987
0.670:988
0.670:989
0.670:560
0.670:353
0.670:581
0.670:724
0.670:986
0.671:986
0.671:983
0.671:982
0.671:984
0.671:988
0.671:938
0.671:621
0.672:473
0.672:837
0.672:988
0.672:982
0.672:982
0.672:984
0.672:986
0.672:987
0.673:969
0.673:471
0.673:328
0.673:524
0.673:481
0.678:918
0.680:968
0.681:932
0.681:655
0.682:330
0.682:145
0.682:18
0.682:18
0.683:103
0.683:451
0.684:975
0.684:823
0.684:742
0.684:734
0.684:585
0.685:427
0.685:17
0.685:18
0.685:17
0.685:17
0.685:545
0.685:645
0.685:645
0.686:449
0.686:243
0.686:103
0.686:18
0.686:18
0.686:224
0.686:539
0.686:989
0.687:940
0.687:897
0.687:715
0.687:624
0.687:482
0.687:17
0.687:18
0.687:20
0.688:136
0.688:136
0.688:718
0.688:793
0.688:826
0.688:598
0.688:355
0.688:142
0.689:18
0.689:17
0.689:391
0.689:602
0.689:988
0.690:938
0.697:859
0.697:728
0.698:650
0.698:426
0.698:17
0.699:18
0.699:60
0.699:171
0.699:742
0.700:828
0.700:881
0.700:525
0.700:358
0.700:173
0.700:17
0.700:17
0.701:367
0.701:589
0.701:988
0.701:961
0.701:846
0.701:841
0.701:731
0.701:485
0.702:20
0.702:17
0.702:166
0.702:250
0.702:762
0.702:834
0.702:810
0.702:575
0.702:360
0.703:162
0.703:18
0.703:31
0.703:354
0.703:633
0.703:988
0.703:975
0.704:928
0.704:761
0.704:722
0.704:442
0.704:17
0.704:17
0.704:92
0.704:92
0.704:238
0.705:743
0.705:851
0.705:827
0.705:602
0.705:381
0.705:166
0.705:17
0.705:100
0.706:453
0.706:778
0.706:987
0.706:990
0.706:871
0.706:774
0.706:745
0.710:441
0.714:17
0.714:17
0.714:139
0.714:290
0.715:822
0.715:900
0.715:846
0.715:570
0.716:395
0.716:160
0.716:17
0.716:88
0.716:461
0.716:835
0.716:988
0.717:989
0.717:918
0.717:918
0.717:754
0.718:395
0.718:17
0.718:31
0.718:215
0.718:415
0.718:890
0.718:909
0.719:919
0.719:609
0.719:427
0.719:149
0.719:17
0.720:139
0.720:477
0.720:787
0.720:988
0.720:989
0.720:912
0.720:822
0.720:745
0.721:376
0.721:17
0.721:48
0.721:48
0.721:195
0.721:333
0.721:858
0.721:948
0.721:816
0.722:538
0.722:356
0.722:112
0.722:17
0.722:200
0.722:551
0.722:933
0.722:988
0.723:989
0.723:936
0.723:868
0.727:754
0.731:344
0.731:17
0.731:133
0.731:232
0.731:539
0.732:908
0.732:928
0.732:821
0.732:556
0.732:380
0.732:127
0.732:17
0.732:265
0.733:571
0.733:919
0.733:988
0.733:989
0.733:938
0.733:881
0.733:758
0.734:332
0.734:17
0.734:155
0.734:277
0.734:556
0.734:956
0.734:990
0.734:858
0.735:578
0.735:413
0.735:151
0.735:17
0.735:331
0.735:675
0.735:987
0.735:987
0.736:988
0.736:988
0.736:987
0.736:778
0.736:316
0.736:22
0.736:22
0.736:172
0.737:275
0.737:654
0.737:989
0.737:989
0.737:847
0.737:583
0.737:454
0.737:165
0.738:17
0.738:352
0.738:662
0.738:987
0.738:986
0.738:988
0.739:989
0.739:990
0.739:803
0.739:305
0.739:21
0.739:190
0.747:314
0.747:746
0.748:989
0.748:989
0.748:878
0.748:565
0.748:390
0.748:106
0.749:17
0.749:341
0.749:713
0.749:987
0.749:987
0.749:989
0.750:972
0.750:904
0.750:737
0.750:228
0.750:17
0.750:324
0.750:360
0.750:805
0.751:921
0.751:961
0.751:740
0.751:465
0.751:320
0.751:18
0.751:17
0.751:329
0.752:619
0.752:988
0.752:989
0.752:973
0.752:946
0.752:805
0.752:568
0.752:71
0.753:71
0.753:18
0.753:101
0.753:140
0.753:663
0.753:793
0.753:839
0.753:589
0.754:317
0.754:152
0.754:18
0.754:18
0.754:207
0.754:534
0.754:988
0.754:924
0.755:816
0.755:831
0.755:670
0.755:484
0.755:17
0.755:18
0.755:18
0.755:123
0.756:671
0.756:737
0.756:729
0.756:534
0.756:254
0.756:64
0.756:18
0.764:17
0.765:132
0.765:449
0.765:989
0.766:854
0.766:771
0.766:863
0.767:675
0.767:413
0.767:17
0.767:18
0.768:17
0.768:80
0.768:649
0.768:731
0.769:701
0.769:446
0.769:248
0.770:68
0.770:18
0.770:18
0.770:223
0.770:520
0.770:988
0.770:912
0.770:796
0.771:706
0.771:589
0.771:350
0.771:350
0.771:18
0.771:18
0.771:17
0.771:79
0.772:653
0.772:724
0.772:714
0.772:453
0.772:259
0.772:72
0.772:18
0.772:17
0.773:350
0.781:662
0.781:988
0.781:896
0.782:818
0.782:724
0.782:607
0.782:396
0.782:18
0.782:18
0.782:20
0.783:151
0.783:698
0.783:754
0.783:722
0.783:489
0.784:250
0.784:35
0.784:18
0.784:17
0.784:319
0.784:731
0.784:988
0.785:922
0.785:830
0.785:823
0.786:634
0.786:336
0.786:17
0.786:18
0.787:17
0.787:170
0.787:698
0.787:776
0.788:724
0.788:501
0.788:286
0.788:62
0.788:18
0.789:17
0.789:393
0.789:653
0.789:988
0.789:930
0.789:813
0.790:740
0.798:621
0.799:621
0.799:331
0.799:18
0.799:17
0.800:51
0.800:220
0.800:742
0.801:789
0.801:763
0.801:475
0.801:297
0.801:72
0.801:18
0.802:17
0.802:353
0.802:774
0.802:988
0.802:959
0.802:852
0.802:754
0.802:580
0.803:270
0.803:18
0.803:99
0.803:173
0.803:305
0.803:819
0.803:827
0.804:763
0.804:470
0.804:280
0.804:22
0.804:18
0.804:22
0.804:410
0.804:755
0.805:989
0.805:921
0.805:846
0.805:872
0.805:670
0.805:261
0.805:18
0.805:30
0.806:105
0.806:297
0.806:737
0.806:861
0.813:691
0.814:392
0.815:230
0.815:17
0.815:18
0.815:55
0.815:398
0.816:823
0.816:989
0.816:947
0.816:861
0.816:798
0.816:798
0.816:625
0.817:192
0.817:18
0.817:19
0.817:90
0.817:332
0.818:786
0.819:835
0.819:712
0.819:430
0.819:259
0.819:17
0.819:18
0.820:116
0.820:493
0.820:903
0.820:989
0.820:909
0.820:907
0.820:827
0.820:687
0.821:206
0.821:18
0.821:17
0.821:50
0.821:430
0.821:792
0.821:823
0.821:678
0.821:392
0.822:179
0.822:17
0.822:18
0.822:179
0.822:534
0.822:944
0.822:989
0.822:924
0.823:812
0.830:737
0.831:627
0.831:152
0.832:18
0.832:24
0.833:101
0.833:489
0.833:787
0.834:827
0.834:715
0.835:411
0.835:216
0.836:17
0.836:18
0.836:102
0.836:474
0.836:915
0.836:961
0.836:906
0.837:789
0.837:789
0.837:638
0.837:504
0.838:82
0.838:18
0.838:101
0.838:174
0.838:552
0.839:791
0.839:822
0.839:675
0.839:400
0.839:231
0.839:17
0.839:18
0.846:266
0.846:626
0.847:988
0.847:989
0.847:863
0.847:774
0.848:700
0.848:529
0.849:63
0.849:18
0.849:17
0.849:104
0.849:5
0.850:976
0.850:730
0.850:247
0.851:103
0.851:302
0.851:371
0.851:943
0.851:989
0.851:989
0.851:872
0.852:586
0.852:384
0.852:95
0.852:66
0.852:514
0.852:837
0.852:985
0.852:987
0.853:988
0.853:988
0.853:489
0.853:795
0.853:986
0.853:987
0.853:988
0.853:989
0.854:976
0.854:730
0.854:247
0.854:103
0.854:302
0.854:371
0.854:943
0.854:989
0.854:989
0.855:872
0.855:586
0.855:384
0.855:95
0.855:66
0.855:514
0.855:837
0.855:985
0.855:987
0.856:988
0.856:988
0.856:489
0.856:795
0.856:986
0.861:987
0.863:988
0.864:989
0.864:976
0.864:730
0.865:247
0.865:103
0.865:302
0.865:371
0.866:943
0.866:989
0.866:989
0.867:872
0.867:586
0.867:384
0.867:95
0.868:66
0.868:514
0.868:837
0.868:985
0.868:987
0.868:988
0.868:988
0.868:988
0.869:965
0.869:752
0.869:242
0.869:118
0.869:300
0.869:409
0.869:903
0.869:989
0.870:989
0.870:785
0.870:560
0.870:383
0.870:80
0.870:111
0.870:530
0.870:863
0.870:986
0.871:987
0.871:988
0.871:957
0.871:857
0.871:652
0.871:156
0.871:21
0.871:198
0.871:369
0.872:920
0.872:989
0.872:961
0.872:683
0.872:483
0.872:303
0.872:17
0.872:48
0.872:409
0.873:696
0.873:987
0.876:987
0.880:919
0.880:946
0.881:774
0.881:487
0.881:18
0.881:17
0.882:121
0.882:216
0.882:771
0.882:814
0.883:794
0.883:551
0.883:316
0.883:131
0.883:18
0.883:18
0.884:261
0.884:595
0.884:989
0.884:865
0.884:797
0.884:797
0.884:696
0.884:613
0.885:351
0.885:17
0.885:17
0.885:115
0.885:167
0.885:661
0.885:716
0.885:728
0.885:425
0.886:247
0.886:51
0.886:18
0.886:17
0.886:322
0.886:666
0.886:989
0.886:841
0.886:764
0.887:640
0.887:550
0.887:265
0.887:18
0.887:18
0.887:18
0.887:163
0.888:654
0.888:719
0.888:705
0.888:451
0.888:244
0.888:26
0.888:18
0.888:17
0.888:392
0.889:635
0.889:948
0.889:853
0.889:782
0.889:744
0.889:618
0.889:265
0.889:18
0.891:18
0.896:41
0.897:195
0.898:680
0.898:736
0.898:715
0.898:418
0.899:228
0.899:18
0.899:18
0.899:17
0.900:374
0.900:709
0.900:989
0.900:864
0.900:864
0.900:775
0.900:763
0.901:635
0.901:253
0.901:18
0.901:134
0.901:143
0.901:274
0.901:723
0.901:793
0.902:713
0.902:417
0.902:262
0.902:17
0.902:18
0.902:53
0.902:426
0.902:735
0.903:989
0.903:915
0.903:840
0.903:728
0.903:591
0.903:227
0.903:18
0.903:18
0.904:38
0.904:220
0.904:741
0.904:789
0.904:682
0.904:424
0.904:260
0.904:17
0.904:18
0.905:160
0.905:447
0.905:805
0.905:989
0.905:906
0.905:811
0.905:704
0.905:658
0.906:217
0.906:18
0.906:54
0.919:151
0.919:335
0.919:790
0.919:796
0.919:697
0.919:403
0.920:222
0.920:17
0.920:18
0.920:75
0.920:483
0.920:854
0.920:989
0.920:989
0.920:891
0.921:871
0.921:753
0.921:589
0.921:161
0.921:18
0.921:18
0.921:110
0.921:347
0.921:793
0.922:861
0.922:733
0.922:432
0.923:276
0.930:17
0.930:18
0.931:253
0.931:533
0.932:950
0.932:989
0.933:903
0.933:822
0.933:688
0.933:553
0.935:126
0.935:18
0.935:20
0.935:158
0.935:479
0.936:801
0.936:841
0.936:719
0.937:441
0.937:271
0.937:17
0.937:17
0.937:151
0.937:493
0.937:942
0.937:973
0.938:922
0.938:853
0.938:782
0.938:653
0.938:134
0.938:18
0.938:146
0.938:216
0.938:622
0.939:833
0.939:853
0.939:705
0.939:442
0.939:262
0.939:17
0.939:18
0.947:359
0.947:644
0.948:988
0.948:988
0.948:989
0.949:870
0.949:789
0.949:713
0.949:603
0.950:115
0.951:17
0.951:39
0.951:132
0.951:611
0.952:798
0.952:858
0.952:638
0.952:381
0.952:250
0.952:17
0.953:18
0.953:280
0.953:594
0.953:988
0.953:989
0.953:899
0.953:801
0.953:676
0.954:507
0.954:67
0.954:18
0.954:62
0.954:163
0.954:683
0.954:805
0.954:813
0.954:605
0.955:366
0.955:208
0.955:17
0.955:18
0.955:321
0.955:613
0.956:988
0.956:979
0.960:908
0.963:886
0.964:741
0.964:570
0.964:60
0.964:18
0.965:105
0.966:226
0.966:719
0.966:831
0.966:849
0.967:678
0.968:382
0.968:228
0.968:17
0.968:17
0.968:347
0.969:637
0.969:637
0.969:987
0.969:989
0.970:881
0.970:836
0.970:735
0.970:584
0.970:64
0.970:18
0.971:84
0.971:208
0.971:737
0.971:809
0.971:832
0.972:574
0.972:358
0.972:185
0.972:17
0.972:18
0.976:266
0.979:577
0.980:988
0.980:978
0.980:873
0.981:751
0.981:665
0.981:472
0.981:17
0.982:17
0.982:119
0.982:201
0.983:726
0.983:839
0.983:787
0.984:588
0.984:373
0.984:181
0.985:18
0.985:17
0.985:442
0.985:713
0.985:987
0.986:989
0.986:899
0.986:803
0.986:700
0.986:518
0.987:19
0.987:17
0.987:49
0.987:208
0.987:754
0.988:840
0.988:826
0.988:552
0.988:353
0.988:184
0.989:18
0.989:36
0.989:450
0.989:450
0.996:671
0.997:988
0.997:966
0.998:893
0.998:900
0.998:717
0.998:463
0.998:17
0.999:17
0.999:91
1.000:211
1.000:764
1.000:836
1.000:796
1.000:575
1.000:324
1.000:131
1.000:18
1.000:17
1.000:323
1.000:702
1.000:988
1.000:961
1.003:874
1.003:768
1.003:709
1.003:452
1.003:17
1.003:17
1.003:172
1.004:297
1.004:785
1.004:845
1.004:794
1.004:546
1.004:339
1.004:139
1.004:18
1.004:29
1.005:474
1.005:793
1.005:988
1.005:975
1.005:879
1.005:813
1.005:693
1.005:365
1.005:17
1.005:17
1.006:78
1.014:197
1.014:765
1.014:844
1.014:776
1.015:503
1.015:300
1.016:80
1.016:18
1.016:67
1.016:67
1.017:430
1.017:711
1.018:988
1.018:976
1.018:887
1.018:830
1.018:685
1.018:332
1.018:17
1.018:17
1.018:89
1.018:273
1.019:762
1.019:830
1.019:794
1.019:454
1.019:269
1.019:40
1.019:18
1.019:73
1.019:391
1.020:732
1.020:989
1.020:970
1.020:819
1.020:746
1.020:699
1.020:334
1.020:17
1.020:20
1.021:129
1.021:277
1.021:766
1.021:825
1.021:747
1.021:473
1.021:281
1.021:41
1.021:18
1.022:94
1.022:506
1.022:850
1.022:989
1.022:949
1.022:904
1.022:873
1.022:686
1.029:264
1.030:17
1.030:90
1.031:179
1.031:359
1.031:816
1.032:822
1.032:743
1.032:494
1.032:311
1.032:41
1.033:18
1.034:18
1.034:78
1.034:479
1.034:869
1.035:989
1.035:910
1.035:830
1.035:706
1.035:555
1.036:198
1.036:17
1.036:130
1.036:217
1.036:430
1.037:833
1.037:865
1.037:811
1.037:469
1.037:285
1.038:17
1.038:18
1.038:153
1.038:519
1.038:917
1.038:988
1.039:903
1.039:894
1.039:775
1.040:610
1.043:157
1.046:17
1.047:18
1.047:132
1.048:394
1.048:798
1.048:850
1.048:721
1.048:445
1.049:288
1.049:29
1.050:18
1.050:183
1.050:576
1.050:989
1.051:989
1.051:909
1.051:796
1.051:715
1.051:577
1.052:138
1.052:18
1.052:36
1.053:191
1.053:563
1.053:861
1.053:836
1.053:701
1.053:419
1.054:249
1.054:17
1.054:17
1.054:18
1.054:139
1.054:488
1.054:990
1.055:989
1.055:926
1.055:851
1.055:766
1.055:654
1.055:158
1.055:17
1.055:189
1.055:218
1.056:626
1.056:829
1.060:848
1.062:665
1.062:435
1.063:252
1.063:17
1.063:18
1.064:233
1.065:564
1.065:988
1.065:989
1.066:895
1.066:799
1.067:701
1.067:571
1.067:93
1.067:18
1.067:76
1.067:163
1.068:632
1.068:820
1.068:854
1.068:613
1.068:365
1.069:216
1.069:17
1.069:17
1.069:339
1.069:596
1.069:988
1.070:989
1.070:938
1.070:892
1.070:817
1.070:577
1.071:80
1.071:18
1.071:46
1.071:192
1.071:751
1.072:857
1.072:860
1.072:696
1.072:420
1.079:269
1.080:269
1.080:17
1.080:18
1.081:258
1.081:576
1.081:987
1.081:989
1.081:935
1.082:879
1.083:785
1.085:570
1.085:72
1.085:17
1.085:194
1.085:277
1.086:815
1.086:875
1.086:856
1.087:607
1.088:364
1.088:206
1.088:17
1.088:18
1.088:375
1.088:554
1.089:987
1.089:989
1.089:886
1.089:848
1.095:787
1.097:567
1.097:52
1.098:17
1.098:106
1.098:233
1.098:832
1.099:901
1.100:924
1.100:697
1.101:417
1.101:224
1.101:17
1.101:17
1.101:445
1.101:673
1.101:987
1.101:989
1.101:928
1.102:815
1.102:688
1.102:510
1.102:27
1.102:17
1.102:92
1.102:226
1.103:789
1.103:868
1.103:833
1.103:603
1.103:338
1.103:338
1.103:181
1.104:18
1.104:17
1.104:395
1.104:645
1.104:987
1.104:969
1.105:896
1.105:758
1.105:642
1.105:415
1.105:17
1.106:18
1.113:165
1.113:214
1.113:755
1.115:826
1.115:797
1.115:543
1.116:314
1.116:110
1.116:18
1.116:17
1.116:356
1.116:586
1.117:988
1.117:907
1.117:820
1.118:832
1.118:730
1.118:434
1.118:17
1.119:31
1.119:157
1.119:253
1.119:739
1.119:831
1.119:791
1.119:504
1.119:301
1.119:85
1.120:18
1.120:17
1.120:381
1.120:693
1.120:988
1.120:932
1.120:872
1.120:764
1.120:649
1.121:352
1.121:17
1.121:62
1.121:160
1.121:236
1.121:771
1.121:853
1.121:735
1.121:545
1.122:545
1.122:325
1.122:81
1.122:18
1.122:18
1.122:433
1.122:772
1.126:988
1.129:956
1.130:885
1.130:892
1.130:669
1.131:339
1.131:17
1.131:17
1.132:60
1.132:228
1.132:764
1.132:810
1.132:760
1.133:503
1.133:291
1.133:51
1.134:18
1.135:22
1.135:428
1.135:735
1.135:989
1.135:920
1.136:785
1.136:725
1.136:583
1.136:232
1.136:18
1.136:17
1.136:23
1.136:212
1.136:713
1.137:733
1.137:639
1.137:352
1.137:170
1.137:17
1.137:18
1.137:17
1.137:307
1.137:645
1.138:980
1.138:920
1.138:808
1.138:761
1.138:627
1.138:301
1.138:17
1.138:122
1.138:264
1.138:502
1.139:989
1.139:988
1.139:989
1.141:989
1.146:765
1.147:652
1.147:402
1.147:219
1.147:626
1.147:989
1.148:985
1.148:981
1.148:982
1.149:982
1.149:983
1.149:985
1.149:965
1.150:589
1.150:700
1.150:751
1.150:905
1.150:985
1.150:984
1.150:986
1.150:968
1.150:752
1.151:479
1.151:228
1.151:491
1.151:735
1.151:988
1.151:986
1.151:988
1.151:989
1.151:835
1.152:584
1.152:98
1.152:18
1.152:18
1.152:17
1.152:205
1.152:596
1.152:624
1.152:491
1.153:192
1.153:47
1.153:18
1.153:19
1.153:17
1.154:302
1.154:721
1.154:871
1.154:739
1.154:668
1.154:603
1.154:486
1.154:44
1.154:18
1.155:18
1.155:18
1.155:333
1.155:700
1.155:747
1.155:747
1.155:667
1.155:307
1.155:160
1.158:17
1.164:18
1.164:167
1.164:488
1.164:875
1.165:946
1.165:810
1.165:736
1.165:609
1.166:484
1.166:18
1.166:18
1.166:18
1.166:29
1.166:439
1.166:721
1.166:762
1.166:635
1.166:352
1.167:167
1.167:17
1.167:18
1.167:106
1.167:452
1.167:969
1.167:989
1.167:903
1.167:871
1.168:719
1.168:556
1.168:45
1.168:18
1.168:75
1.168:131
1.168:562
1.168:738
1.168:752
1.168:592
1.169:326
1.169:165
1.169:17
1.171:18
1.172:184
1.172:548
1.172:982
1.172:957
1.172:874
1.172:898
1.172:759
1.173:582
1.173:56
1.176:18
1.178:51
1.179:146
1.179:691
1.179:825
1.196:825
1.196:861
1.197:617
1.197:355
1.197:180
1.197:18
1.198:18
1.198:262
1.199:532
1.199:988
1.199:987
1.199:873
1.199:778
1.199:666
1.200:501
1.200:36
1.200:18
1.200:23
1.201:122
1.201:669
1.201:796
1.201:801
1.201:594
1.201:363
1.204:215
1.204:18
1.204:17
1.204:266
1.205:575
1.205:988
1.220:990
1.227:925
1.228:803
1.229:706
1.229:515
1.229:30
1.229:17
1.229:155
1.230:240
1.230:773
1.230:814
1.230:877
1.231:593
1.231:375
1.231:202
1.231:18
1.231:17
1.231:294
1.231:606
1.231:988
1.232:958
1.236:952
1.236:823
1.236:722
1.236:553
1.236:42
1.236:65
1.237:166
1.237:284
1.237:768
1.253:768
1.254:863
1.254:811
1.254:584
1.254:400
1.254:194
1.254:17
1.254:17
1.254:366
1.254:689
1.259:987
1.262:989
1.262:924
1.262:924
1.263:776
1.263:538
1.263:49
1.264:17
1.264:109
1.264:233
1.264:801
1.265:888
1.265:918
1.265:646
1.265:396
1.265:216
1.265:17
1.265:66
1.265:453
1.266:805
1.282:987
1.282:989
1.282:945
1.282:834
1.282:746
1.283:517
1.286:54
1.286:17
1.286:187
1.286:343
1.287:879
1.287:919
1.287:911
1.287:669
1.287:474
1.287:247
1.291:17
1.294:94
1.295:516
1.295:810
1.296:986
1.296:988
1.296:988
1.296:957
1.296:829
1.297:564
1.297:93
1.297:163
1.297:319
1.297:426
1.312:426
1.312:929
1.313:989
1.313:975
1.313:686
1.315:495
1.316:266
1.316:17
1.316:141
1.316:590
1.316:896
1.316:986
1.316:988
1.317:988
1.317:946
1.319:823
1.319:517
1.319:70
1.319:268
1.319:340
1.319:446
1.320:961
1.320:989
1.320:980
1.320:627
1.324:427
1.325:237
1.326:17
1.330:179
1.331:636
1.341:950
1.342:986
1.344:988
1.345:989
1.345:982
1.345:846
1.345:520
1.346:70
1.346:151
1.346:250
1.347:443
1.347:920
1.348:985
1.348:907
1.348:584
1.348:423
1.348:204
1.349:17
1.349:221
1.349:553
1.349:857
1.349:987
1.352:989
1.352:989
1.352:879
1.352:711
1.352:353
1.352:17
1.352:35
1.353:154
1.368:154
1.373:371
1.374:853
1.375:921
1.377:798
1.380:529
1.381:330
1.381:75
1.381:18
1.382:85
1.383:453
1.383:902
1.384:988
1.385:934
1.385:841
1.385:756
1.386:584
1.386:195
1.386:18
1.387:63
1.387:110
1.387:293
1.388:745
1.388:810
1.388:727
1.389:360
1.390:184
1.390:17
1.390:18
1.391:54
1.401:389
1.401:761
1.403:944
1.404:808
1.404:779
1.404:719
1.405:514
1.405:107
1.405:18
1.406:17
1.406:17
1.406:209
1.407:659
1.407:717
1.407:635
1.412:329
1.413:146
1.413:18
1.415:19
1.415:17
1.416:331
1.416:760
1.416:918
1.416:828
1.416:769
1.417:693
1.417:505
1.417:53
1.417:18
1.417:24
1.430:24
1.430:60
1.430:310
1.430:698
1.430:779
1.431:620
1.431:315
1.434:156
1.434:18
1.434:19
1.434:54
1.434:390
1.434:813
1.434:920
1.434:807
1.434:784
1.434:701
1.438:597
1.438:82
1.438:18
1.438:17
1.438:61
1.438:379
1.438:758
1.438:779
1.438:622
1.439:343
1.439:169
1.443:17
1.445:18
1.461:180
1.462:501
1.462:872
1.462:938
1.462:828
1.463:780
1.463:659
1.463:505
1.463:32
1.463:18
1.463:17
1.463:75
1.464:468
1.464:759
1.466:811
1.466:628
1.467:345
1.467:203
1.467:17
1.467:18
1.467:178
1.467:518
1.467:965
1.467:980
1.470:889
1.470:849
1.470:713
1.471:544
1.471:69
1.471:18
1.487:18
1.487:17
1.487:93
1.492:559
1.495:804
1.495:811
1.495:622
1.495:367
1.496:211
1.496:17
1.496:18
1.496:218
1.497:551
1.497:989
1.497:982
1.497:838
1.498:780
1.498:670
1.498:481
1.498:23
1.498:18
1.499:145
1.499:175
1.499:647
1.499:805
1.499:852
1.499:584
1.499:297
1.499:168
1.500:17
1.520:18
1.520:245
1.520:552
1.520:988
1.520:989
1.520:899
1.520:783
1.520:721
1.520:530
1.525:39
1.527:18
1.529:111
1.529:189
1.529:725
1.529:781
1.529:841
1.530:576
1.530:352
1.530:176
1.530:17
1.530:17
1.530:310
1.530:708
1.530:987
1.530:989
1.531:943
1.531:914
1.531:735
1.531:541
1.531:38
1.548:38
1.548:18
1.548:41
1.549:178
1.549:788
1.549:860
1.549:862
1.549:633
1.549:368
1.552:193
1.552:18
1.553:17
1.553:329
1.553:633
1.553:987
1.553:989
1.553:909
1.553:765
1.553:714
1.562:552
1.563:38
1.563:17
1.563:176
1.564:256
1.564:768
1.564:854
1.565:887
1.565:619
1.566:358
1.566:187
1.579:17
1.580:17
1.580:373
1.581:690
1.581:986
1.581:989
1.582:935
1.582:916
1.583:773
1.583:493
1.583:17
1.583:18
1.584:129
1.584:248
1.585:833
1.586:903
1.586:858
1.586:652
1.588:369
1.595:165
1.596:18
1.597:17
1.605:407
1.612:673
1.612:988
1.612:989
1.612:952
1.612:860
1.612:733
1.612:434
1.612:434
1.612:17
1.612:18
1.612:46
1.612:196
1.612:790
1.612:897
1.612:838
1.617:557
1.618:336
1.618:141
1.618:17
1.619:31
1.619:408
1.620:705
1.620:987
1.631:975
1.633:922
1.633:787
1.633:694
1.633:414
1.634:17
1.634:144
1.634:234
1.634:298
1.634:791
1.635:861
1.635:851
1.635:576
1.635:337
1.635:125
1.643:18
1.645:17
1.645:419
1.645:760
1.645:987
1.645:990
1.646:923
1.646:970
1.647:739
1.648:411
1.648:17
1.648:17
1.648:120
1.648:328
1.648:810
1.649:855
1.649:828
1.649:602
1.649:377
1.649:135
1.649:17
1.649:202
1.649:588
1.649:897
1.650:987
1.650:989
1.650:863
1.650:737
1.650:684
1.667:684
1.668:347
1.668:17
1.668:17
1.668:123
1.669:353
1.669:854
1.669:892
1.670:819
1.670:494
1.671:325
1.672:79
1.673:18
1.676:71
1.679:462
1.681:744
1.681:988
1.681:989
1.681:915
1.682:916
1.682:739
1.682:307
1.682:17
1.683:101
1.683:203
1.683:349
1.683:856
1.684:904
1.684:814
1.684:489
1.696:315
1.696:60
1.696:18
1.696:136
1.696:546
1.696:900
1.700:987
1.700:989
1.700:947
1.700:909
1.700:743
1.700:278
1.700:18
1.700:17
1.701:137
1.701:385
1.704:821
1.704:884
1.704:741
1.704:453
1.704:313
1.704:35
1.704:18
1.704:221
1.705:529
1.705:866
1.708:988
1.710:960
1.711:904
1.711:765
1.727:765
1.728:639
1.728:239
1.728:17
1.728:23
1.728:133
1.728:416
1.729:835
1.729:882
1.729:704
1.729:428
1.729:300
1.729:36
1.729:18
1.729:198
1.730:548
1.732:962
1.733:988
1.733:957
1.733:913
1.733:813
1.733:622
1.733:197
1.733:18
1.733:137
1.736:240
1.736:530
1.737:880
1.737:888
1.737:772
1.753:529
1.753:348
1.758:37
1.759:18
1.761:194
1.761:517
1.761:986
1.761:988
1.762:937
1.762:942
1.762:824
1.762:651
1.762:171
1.762:17
1.762:249
1.762:245
1.762:617
1.763:877
1.763:904
1.763:751
1.763:476
1.763:303
1.765:19
1.765:18
1.765:296
1.765:566
1.766:989
1.766:989
1.766:936
1.766:905
1.781:905
1.786:832
1.786:622
1.786:159
1.786:17
1.786:99
1.787:196
1.787:685
1.787:894
1.787:920
1.787:688
1.792:436
1.795:266
1.795:17
1.795:17
1.796:325
1.798:688
1.798:987
1.799:988
1.799:946
1.799:926
1.799:843
1.799:667
1.799:151
1.799:17
1.799:51
1.799:160
1.800:708
1.800:870
1.800:900
1.814:738
1.814:451
1.815:250
1.815:17
1.815:17
1.815:322
1.815:588
1.815:988
1.818:988
1.819:920
1.819:869
1.819:746
1.819:557
1.819:76
1.819:18
1.819:107
1.819:206
1.819:781
1.825:872
1.827:911
1.828:678
1.828:420
1.828:269
1.828:17
1.828:17
1.828:328
1.829:647
1.829:987
1.829:989
1.829:936
1.843:936
1.843:874
1.843:772
1.843:617
1.843:94
1.844:17
1.844:248
1.847:303
1.848:824
1.848:880
1.848:869
1.849:657
1.849:394
1.849:238
1.850:17
1.850:17
1.850:365
1.851:700
1.852:987
1.852:988
1.853:971
1.853:881
1.853:812
1.854:551
1.854:56
1.854:17
1.855:95
1.857:253
1.858:800
1.859:914
1.873:884
1.873:600
1.874:383
1.876:250
1.876:17
1.876:17
1.877:387
1.877:648
1.877:987
1.877:989
1.877:985
1.878:931
1.878:793
1.880:556
1.880:38
1.880:17
1.880:103
1.881:238
1.881:829
1.881:910
1.881:896
1.881:652
1.881:396
1.884:192
1.884:17
1.884:17
1.884:339
1.884:679
1.885:987
1.885:989
1.900:989
1.900:936
1.904:805
1.905:757
1.905:534
1.905:23
1.906:20
1.906:158
1.906:275
1.906:803
1.906:866
1.907:927
1.908:609
1.909:397
1.909:196
1.909:17
1.909:66
1.909:459
1.909:719
1.909:987
1.909:989
1.910:931
1.913:878
1.913:761
1.913:467
1.913:17
1.913:17
1.913:133
1.914:258
1.914:759
1.933:875
1.933:851
1.933:571
1.934:371
1.934:183
1.934:17
1.934:90
1.934:485
1.934:783
1.937:987
1.937:989
1.937:927
1.938:824
1.939:709
1.939:441
1.939:17
1.939:73
1.940:174
1.940:328
1.941:816
1.941:910
1.942:892
1.942:548
1.942:362
1.942:141
1.942:18
1.942:46
1.942:441
1.942:719
1.945:988
1.962:988
1.962:989
1.963:912
1.963:938
1.963:756
1.963:427
1.963:17
1.963:167
1.966:238
1.967:337
1.967:801
1.967:892
1.967:826
1.967:539
1.967:349
1.967:118
1.967:18
1.968:110
1.970:532
1.970:798
1.971:988
1.971:989
1.971:933
1.971:949
1.971:793
1.972:406
1.972:17
1.973:93
1.974:204
1.974:358
1.991:853
1.991:916
1.991:804
1.991:539
1.991:332
1.995:93
1.995:17
1.995:146
1.995:518
1.995:870
1.995:987
1.995:990
1.996:892
1.996:875
1.996:694
1.999:308
1.999:17
1.999:17
1.999:124
1.999:332
1.999:817
1.999:916
2.000:830
2.000:545
2.003:380
2.003:130
2.003:17
2.004:216
2.004:589
2.004:967
2.019:967
2.020:987
2.020:989
2.020:970
2.023:879
2.024:797
2.025:339
2.025:17
2.026:138
2.026:207
2.026:424
2.027:862
2.027:879
2.027:813
2.028:527
2.028:344
2.028:74
2.028:17
2.028:177
2.029:511
2.029:897
2.029:988
2.029:989
2.032:911
2.032:871
2.032:697
2.032:269
2.032:17
2.032:110
2.033:214
2.048:484
2.052:851
2.052:907
2.052:796
2.053:515
2.053:301
2.053:40
2.053:18
2.053:265
2.053:614
2.057:989
2.059:988
2.061:912
2.061:885
2.061:780
2.062:627
2.062:180
2.062:18
2.062:17
2.062:140
2.062:439
2.062:783
2.062:843
2.062:731
2.063:466
2.063:297
2.063:17
2.063:18
2.063:182
2.063:515
2.081:515
2.081:985
2.081:989
2.081:933
2.081:899
2.081:760
2.081:575
2.082:123
2.082:18
2.085:179
2.085:219
2.085:575
2.085:827
2.085:938
2.085:773
2.085:448
2.085:271
2.085:17
2.085:18
2.089:337
2.089:613
2.089:989
2.090:988
2.090:917
2.090:847
2.090:727
2.090:599
2.090:121
2.090:18
2.093:28
2.109:141
2.109:579
2.110:812
2.110:833
2.110:673
2.110:417
2.114:246
2.114:17
2.114:18
2.114:272
2.114:523
2.114:989
2.114:988
2.114:949
2.114:841
2.115:701
2.118:575
2.118:76
2.118:17
2.119:194
2.119:238
2.119:692
2.120:872
2.120:867
2.120:654
2.121:401
2.123:218
2.124:17
2.124:18
2.125:264
2.139:264
2.139:589
2.140:988
2.140:988
2.140:906
2.142:917
2.142:764
2.143:623
2.143:53
2.143:18
2.143:17
2.143:112
2.143:615
2.144:766
2.144:792
2.146:563
2.146:293
2.146:156
2.147:18
2.147:18
2.147:239
2.147:661
2.147:987
2.147:988
2.147:990
2.150:989
2.150:892
2.150:718
2.150:241
2.151:205
2.166:565
2.167:588
2.173:988
2.175:986
2.176:986
2.176:989
2.177:834
2.177:690
2.177:429
2.177:466
2.178:959
2.178:986
2.178:978
2.178:980
2.179:981
2.179:981
2.179:984
2.179:987
2.180:620
2.180:544
2.180:703
2.180:719
2.181:986
2.181:985
2.181:985
2.181:988
2.181:807
2.181:571
2.182:195
2.182:155
2.195:155
2.200:543
2.200:857
2.200:985
2.200:989
2.200:858
2.200:681
2.200:569
2.200:328
2.200:18
2.201:18
2.204:18
2.204:17
2.204:538
2.204:602
2.204:648
2.204:362
2.205:142
2.205:17
2.205:19
2.205:18
2.208:197
2.208:486
2.208:989
2.208:813
2.208:764
2.208:683
2.208:576
2.208:366
2.208:18
2.228:18
2.228:17
2.228:124
2.228:730
2.228:798
2.229:796
2.229:562
2.229:283
2.232:64
2.232:18
2.232:17
2.233:343
2.233:627
2.233:988
2.234:885
2.234:869
2.235:813
2.235:660
2.237:412
2.237:17
2.237:18
2.237:17
2.238:215
2.238:765
2.239:850
2.240:827
2.241:528
2.241:299
2.241:98
2.241:18
2.257:18
2.257:17
2.257:363
2.257:699
2.257:988
2.258:920
2.258:875
2.261:849
2.261:688
2.261:354
2.261:17
2.261:17
2.261:128
2.261:306
2.261:803
2.261:819
2.261:806
2.265:427
2.265:255
2.266:46
2.266:18
2.266:17
2.266:372
2.266:824
2.266:987
2.266:950
2.266:886
2.269:869
2.269:697
2.269:349
2.285:17
2.285:17
2.285:90
2.285:228
2.289:761
2.289:834
2.289:826
2.290:517
2.290:342
2.290:73
2.290:18
2.290:125
2.290:542
2.290:849
2.294:988
2.294:980
2.294:874
2.294:911
2.294:733
2.294:338
2.294:17
2.294:17
2.294:130
2.294:298
2.298:785
2.298:843
2.298:777
2.298:500
2.298:338
2.298:92
2.314:92
2.314:18
2.314:149
2.319:478
2.319:900
2.319:988
2.319:965
2.319:830
2.319:782
2.319:620
2.319:266
2.320:17
2.320:34
2.324:154
2.325:350
2.326:775
2.327:852
2.327:755
2.327:496
2.327:335
2.327:75
2.327:18
2.327:167
2.327:510
2.327:898
2.327:988
2.328:989
2.328:918
2.328:854
2.328:620
2.347:248
2.347:17
2.347:202
2.347:242
2.347:477
2.347:863
2.347:909
2.347:785
2.347:481
2.351:342
2.351:67
2.351:18
2.351:205
2.351:544
2.351:917
2.351:989
2.351:989
2.352:928
2.352:761
2.356:675
2.356:252
2.356:17
2.356:107
2.357:241
2.357:505
2.357:913
2.357:955
2.357:865
2.357:545
2.359:370
2.375:370
2.375:69
2.375:17
2.376:269
2.376:646
2.376:988
2.376:987
2.376:989
2.379:989
2.380:883
2.380:672
2.380:234
2.380:17
2.380:75
2.380:240
2.380:569
2.380:904
2.380:930
2.384:851
2.384:553
2.384:380
2.384:87
2.384:17
2.384:299
2.384:652
2.384:987
2.384:987
2.384:988
2.387:988
2.388:958
2.405:759
2.405:269
2.405:17
2.405:286
2.405:316
2.408:667
2.409:958
2.409:990
2.409:807
2.409:541
2.409:392
2.409:115
2.409:17
2.409:389
2.412:726
2.413:987
2.413:987
2.413:988
2.413:989
2.413:920
2.413:775
2.413:272
2.414:19
2.414:229
2.417:313
2.417:734
2.417:989
2.417:987
2.417:811
2.417:571
2.433:571
2.433:406
2.433:108
2.433:36
2.438:462
2.438:722
2.439:987
2.439:987
2.439:988
2.439:971
2.439:894
2.440:701
2.440:207
2.440:17
2.441:148
2.441:294
2.441:778
2.441:940
2.442:989
2.442:786
2.442:471
2.442:330
2.442:29
2.445:17
2.445:336
2.445:616
2.445:988
2.445:988
2.445:989
2.445:961
2.466:835
2.466:610
2.466:108
2.467:17
2.467:198
2.468:248
2.468:751
2.468:908
2.469:883
2.469:621
2.470:356
2.470:192
2.470:18
2.472:17
2.472:260
2.473:548
2.473:988
2.474:948
2.474:842
2.474:799
2.475:657
2.475:441
2.476:17
2.476:18
2.476:17
2.476:79
2.476:643
2.476:723
2.476:768
2.477:494
2.494:494
2.494:242
2.494:75
2.495:18
2.495:18
2.495:152
2.495:420
2.495:959
2.495:858
2.495:778
2.498:757
2.498:641
2.498:423
2.499:18
2.499:18
2.499:17
2.499:63
2.499:612
2.499:715
2.499:698
2.503:453
2.503:218
2.506:41
2.506:18
2.507:18
2.508:316
2.508:561
2.509:989
2.509:835
2.510:750
2.523:682
2.523:556
2.524:397
2.524:17
2.524:18
2.524:17
2.524:73
2.527:634
2.527:709
2.528:685
2.528:450
2.528:215
2.528:69
2.528:18
2.528:18
2.528:278
2.528:509
2.531:989
2.531:865
2.531:782
2.531:708
2.531:594
2.531:342
2.531:18
2.531:17
2.532:83
2.532:172
2.535:656
2.535:714
2.535:673
2.551:673
2.551:467
2.551:237
2.551:43
2.551:18
2.551:18
2.555:284
2.556:564
2.556:989
2.556:811
2.556:742
2.556:640
2.557:546
2.557:313
2.557:18
2.557:18
2.559:17
2.559:119
2.560:681
2.560:738
2.560:718
2.560:420
2.560:221
2.560:22
2.560:18
2.560:17
2.564:337
2.564:559
2.564:964
2.564:918
2.580:763
2.580:771
2.585:636
2.585:322
2.585:18
2.585:17
2.585:64
2.585:178
2.585:678
2.585:766
2.585:757
2.585:477
2.589:265
2.592:29
2.592:18
2.593:17
2.593:313
2.593:654
2.593:989
2.593:885
2.593:852
2.594:795
2.594:671
2.594:318
2.594:18
2.594:19
2.594:117
2.594:254
2.594:728
2.594:754
2.608:754
2.612:744
2.614:478
2.614:318
2.614:33
2.614:18
2.614:17
2.614:367
2.614:694
2.614:989
2.614:932
2.617:783
2.617:714
2.617:701
2.617:305
2.617:17
2.617:23
2.617:113
2.617:330
2.617:776
2.618:813
2.621:747
2.621:476
2.624:262
2.626:17
2.626:18
2.626:108
2.627:448
2.627:733
2.627:989
2.643:920
2.643:891
2.643:824
2.644:672
2.644:261
2.644:18
2.644:17
2.645:22
2.645:273
2.645:783
2.646:823
2.646:729
2.646:426
2.646:272
2.646:17
2.646:18
2.647:154
2.647:488
2.649:871
2.649:989
2.650:896
2.650:822
2.650:778
2.650:572
2.650:177
2.650:18
2.650:17
2.650:99
2.654:341
2.654:751
2.670:751
2.671:811
2.671:725
2.674:438
2.676:233
2.676:17
2.676:18
2.677:110
2.677:467
2.677:849
2.677:989
2.677:892
2.677:822
2.678:737
2.678:563
2.678:139
2.678:18
2.678:78
2.678:166
2.678:403
2.679:790
2.679:861
2.679:713
2.679:416
2.679:217
2.679:17
2.679:18
2.682:118
2.682:445
2.682:866
2.698:989
2.698:875
2.698:861
2.702:764
2.703:562
2.703:113
2.703:17
2.704:72
2.704:147
2.706:471
2.708:765
2.710:849
2.710:716
2.710:466
2.710:237
2.710:17
2.710:18
2.710:176
2.710:542
2.710:950
2.710:989
2.710:883
2.711:855
2.711:776
2.711:598
2.711:117
2.711:18
2.711:17
2.711:113
2.711:537
2.727:537
2.727:803
2.731:821
2.731:702
2.731:422
2.731:225
2.732:17
2.732:18
2.732:270
2.732:546
2.732:989
2.732:989
2.735:855
2.735:784
2.736:691
2.736:583
2.736:85
2.736:18
2.736:49
2.736:141
2.736:604
2.737:793
2.741:804
2.742:599
2.743:374
2.743:185
2.743:18
2.743:18
2.744:231
2.744:553
2.760:988
2.760:989
2.760:888
2.760:843
2.761:726
2.761:530
2.761:51
2.761:18
2.761:97
2.764:171
2.764:686
2.764:784
2.764:788
2.764:610
2.764:344
2.764:196
2.765:17
2.765:18
2.765:286
2.768:564
2.768:988
2.768:989
2.768:896
2.768:783
2.768:677
2.769:494
2.769:21
2.769:18
2.769:37
2.776:153
2.791:153
2.793:693
2.794:792
2.794:774
2.794:537
2.794:313
2.794:155
2.794:17
2.794:17
2.794:300
2.794:583
2.794:988
2.795:956
2.795:831
2.795:893
2.795:734
2.795:535
2.795:25
2.797:18
2.797:48
2.797:168
2.797:709
2.797:798
2.797:830
2.797:595
2.797:325
2.797:181
2.798:17
2.800:17
2.800:291
2.817:573
2.817:988
2.817:964
2.817:858
2.821:798
2.821:706
2.822:444
2.827:17
2.827:17
2.827:111
2.828:199
2.828:715
2.828:825
2.828:756
2.829:528
2.829:312
2.829:145
2.829:18
2.829:17
2.829:265
2.829:622
2.829:988
2.829:965
2.830:862
2.830:804
2.830:684
2.830:429
2.830:17
2.830:17
2.830:129
2.846:129
2.847:228
2.847:757
2.847:825
2.850:818
2.850:592
2.850:348
2.850:145
2.850:18
2.850:17
2.850:335
2.850:688
2.851:988
2.854:975
2.857:860
2.859:710
2.860:650
2.860:431
2.860:17
2.860:17
2.860:70
2.860:236
2.860:787
2.860:845
2.861:832
2.861:491
2.861:298
2.861:114
2.861:18
2.861:17
2.879:397
2.879:695
2.879:988
2.879:990
2.879:904
2.879:827
2.879:686
2.880:392
2.880:17
2.880:17
2.883:32
2.883:178
2.883:700
2.883:792
2.883:772
2.883:506
2.884:311
2.884:106
2.884:18
2.884:17
2.887:380
2.887:733
2.887:988
2.887:970
2.890:917
2.891:846
2.893:737
2.893:381
2.893:17
2.893:68
2.909:68
2.909:131
2.909:289
2.910:811
2.910:866
2.910:814
2.910:547
2.910:341
2.910:106
2.911:18
2.911:123
2.912:471
2.912:772
2.912:989
2.912:924
2.912:830
2.912:764
2.912:621
2.913:278
2.915:17
2.915:17
2.915:61
2.916:274
2.916:766
2.916:846
2.916:761
2.916:439
2.916:294
2.916:49
2.916:18
2.936:58
2.937:439
2.937:766
2.942:988
2.943:929
2.943:823
2.943:740
2.944:638
2.944:289
2.944:17
2.944:110
2.944:152
2.944:272
2.944:766
2.944:820
2.945:742
2.945:410
2.945:257
2.945:31
2.947:18
2.947:62
2.947:433
2.947:802
2.947:989
2.947:939
2.947:897
2.948:889
2.948:721
2.948:272
2.948:18
2.964:18
2.964:17
2.965:125
2.965:302
2.965:778
2.969:845
2.969:705
2.969:456
2.969:282
2.970:22
2.970:18
2.970:165
2.970:510
2.971:882
2.971:989
2.974:913
2.974:901
2.974:791
2.974:637
2.974:200
2.974:18
2.974:17
2.974:65
2.974:369
2.974:812
2.977:840
2.977:764
2.977:443
2.977:273
2.977:17
2.993:18
2.993:172
2.997:505
2.997:866
2.997:989
2.998:908
2.998:846
2.998:752
2.998:658
2.998:193
2.998:17
2.998:17
3.001:121
3.001:374
3.002:802
3.002:857
3.002:675
3.002:397
3.002:249
3.002:17
3.002:18
3.003:186
3.005:557
3.006:925
3.006:989
3.006:904
3.006:879
3.006:739
3.006:570
3.006:113
3.022:113
3.026:18
3.026:61
3.026:145
3.026:509
3.027:799
3.027:804
3.027:632
3.027:389
3.027:227
3.027:17
3.030:18
3.030:269
3.030:523
3.030:988
3.030:989
3.031:941
3.031:851
3.031:761
3.031:621
3.031:109
3.034:18
3.034:32
3.034:162
3.034:549
3.034:817
3.035:862
3.035:633
3.035:363
3.035:219
3.055:17
3.055:18
3.055:211
3.055:502
3.055:989
3.055:989
3.055:923
3.055:762
3.059:726
3.059:541
3.059:85
3.059:17
3.059:201
3.059:213
3.059:612
3.059:844
3.059:813
3.060:605
3.063:374
3.063:236
3.063:17
3.063:18
3.063:258
3.063:572
3.063:988
3.063:989
3.064:928
3.067:866
3.067:714
3.068:555
3.083:555
3.083:87
3.084:17
3.084:59
3.084:184
3.084:690
3.084:839
3.088:867
3.089:626
3.089:372
3.089:223
3.089:17
3.089:18
3.089:366
3.089:644
3.090:987
3.090:989
3.092:923
3.093:803
3.093:734
3.093:541
3.093:48
3.093:17
3.093:90
3.093:155
3.093:706
3.093:842
3.096:825
3.096:607
3.096:330
3.112:160
3.112:17
3.112:18
3.117:237
3.117:525
3.117:987
3.117:946
3.117:844
3.117:916
3.117:749
3.117:491
3.117:17
3.117:18
3.118:17
3.121:102
3.123:662
3.124:771
3.125:796
3.126:641
3.126:347
3.126:175
3.126:18
3.126:17
3.126:300
3.126:647
3.126:988
3.126:973
3.127:836
3.127:800
3.127:666
3.141:666
3.141:499
3.146:17
3.146:18
3.146:56
3.146:170
3.146:699
3.146:793
3.146:808
3.146:580
3.146:313
3.146:124
3.149:18
3.150:18
3.150:271
3.150:590
3.151:988
3.151:938
3.151:876
3.152:720
3.154:608
3.154:419
3.155:17
3.155:17
3.156:128
3.156:197
3.157:733
3.157:842
3.157:796
3.158:552
3.174:328
3.174:98
3.174:18
3.174:17
3.174:300
3.174:665
3.174:988
3.174:974
3.175:844
3.178:842
3.178:654
3.178:422
3.178:17
3.178:17
3.178:127
3.178:162
3.178:778
3.179:785
3.179:745
3.182:467
3.182:261
3.182:67
3.182:18
3.182:17
3.182:293
3.183:632
3.183:988
3.183:864
3.183:785
3.186:717
3.203:717
3.204:621
3.204:302
3.204:18
3.204:17
3.204:17
3.204:142
3.204:683
3.207:802
3.207:778
3.207:521
3.207:340
3.207:160
3.207:17
3.207:194
3.207:618
3.207:889
3.207:985
3.211:986
3.211:987
3.211:988
3.211:989
3.211:753
3.211:320
3.211:326
3.211:562
3.211:766
3.214:986
3.214:984
3.214:984
3.231:987
3.231:989
3.231:766
3.231:471
3.236:644
3.236:973
3.236:985
3.236:981
3.236:983
3.236:986
3.237:987
3.237:989
3.237:674
3.237:243
3.240:324
3.240:412
3.240:538
3.240:967
3.240:945
3.240:818
3.240:491
3.240:242
3.241:17
3.241:19
3.244:18
3.244:261
3.244:590
3.244:902
3.244:735
3.244:630
3.260:630
3.260:523
3.260:442
3.260:54
3.264:19
3.264:17
3.264:17
3.265:111
3.265:610
3.265:643
3.265:543
3.265:307
3.265:113
3.265:17
3.268:19
3.268:21
3.268:364
3.268:702
3.268:923
3.268:801
3.268:825
3.269:720
3.270:582
3.270:144
3.273:18
3.273:18
3.273:17
3.273:183
3.273:686
3.273:746
3.292:657
3.292:347
3.292:182
3.292:17
3.293:18
3.293:72
3.293:443
3.293:791
3.293:974
3.293:876
3.297:820
3.297:735
3.297:545
3.297:111
3.297:18
3.297:17
3.297:56
3.297:359
3.297:726
3.297:759
3.301:696
3.301:406
3.301:213
3.301:17
3.301:18
3.301:56
3.301:443
3.301:822
3.301:966
3.301:882
3.324:882
3.324:836
3.324:765
3.325:571
3.325:123
3.325:18
3.325:34
3.325:119
3.326:424
3.326:751
3.326:824
3.326:699
3.326:377
3.326:212
3.326:17
3.326:18
3.326:124
3.326:466
3.327:952
3.329:989
3.330:899
3.330:849
3.330:716
3.330:614
3.330:112
3.330:18
3.330:30
3.330:99
3.330:447
3.333:781
3.350:803
3.350:654
3.350:371
3.350:189
3.350:17
3.350:18
3.354:172
3.355:531
3.355:989
3.355:989
3.355:920
3.356:875
3.356:752
3.356:533
3.356:64
3.357:18
3.358:48
3.358:129
3.359:554
3.359:819
3.359:826
3.359:667
3.359:399
3.360:212
3.360:17
3.360:18
3.362:169
3.362:596
3.362:988
3.363:988
3.379:988
3.379:917
3.379:898
3.379:782
3.379:572
3.383:78
3.384:18
3.384:18
3.384:157
3.385:633
3.385:844
3.388:855
3.389:648
3.392:383
3.394:237
3.395:17
3.395:17
3.395:286
3.396:622
3.396:987
3.396:989
3.396:924
3.396:785
3.397:764
3.397:531
3.397:61
3.397:18
3.397:127
3.397:180
3.398:692
3.407:841
3.407:867
3.411:686
3.412:426
3.412:255
3.412:17
3.412:17
3.412:341
3.412:656
3.412:988
3.412:989
3.416:939
3.416:899
3.416:762
3.416:583
3.416:73
3.416:17
3.416:72
3.416:253
3.416:819
3.416:925
3.416:921
3.420:688
3.420:426
3.421:246
3.422:17
3.422:17
3.423:427
3.423:699
3.423:987
3.439:987
3.440:989
3.440:956
3.440:935
3.440:856
3.441:580
3.441:105
3.441:17
3.441:145
3.441:302
3.444:826
3.444:957
3.446:947
3.446:726
3.446:473
3.446:285
3.446:17
3.447:64
3.447:504
3.447:759
3.448:986
3.448:987
3.448:989
3.448:877
3.449:811
3.449:559
3.449:92
3.449:35
3.449:243
3.450:326
3.468:865
3.469:967
3.469:974
3.471:729
3.471:467
3.471:306
3.471:19
3.472:44
3.472:449
3.472:751
3.474:986
3.474:988
3.474:989
3.474:989
3.474:884
3.474:623
3.474:108
3.477:153
3.477:265
3.477:373
3.477:941
3.477:980
3.477:952
3.477:741
3.477:482
3.477:271
3.477:17
3.480:99
3.480:495
3.481:782
3.497:782
3.497:986
3.497:988
3.497:986
3.497:853
3.497:782
3.501:519
3.501:44
3.501:17
3.501:160
3.502:280
3.502:828
3.503:909
3.503:868
3.503:609
3.504:377
3.506:166
3.506:17
3.506:27
3.506:443
3.506:729
3.506:987
3.506:988
3.506:906
3.506:810
3.506:656
3.509:395
3.510:17
3.512:19
3.512:112
3.525:196
3.526:712
3.526:780
3.530:731
3.530:436
3.530:238
3.530:27
3.530:18
3.530:17
3.531:321
3.531:675
3.531:989
3.531:845
3.534:744
3.534:788
3.534:608
3.534:266
3.534:18
3.534:18
3.534:17
3.535:135
3.535:574
3.535:684
3.538:666
3.538:376
3.538:205
3.538:17
3.538:19
3.538:18
3.538:333
3.554:333
3.554:606
3.559:955
3.559:847
3.559:680
3.559:624
3.559:519
3.559:150
3.559:18
3.559:18
3.559:17
3.560:109
3.563:599
3.563:677
3.563:620
3.563:321
3.563:150
3.563:17
3.563:19
3.564:17
3.564:316
3.564:637
3.567:885
3.567:807
3.567:754
3.567:710
3.567:630
3.567:183
3.567:18
3.567:17
3.587:24
3.587:167
3.587:606
3.588:693
3.588:597
3.588:308
3.588:162
3.588:18
3.588:19
3.591:17
3.591:352
3.591:712
3.591:914
3.592:792
3.592:755
3.592:702
3.592:543
3.592:122
3.592:18
3.596:17
3.596:47
3.596:196
3.596:700
3.596:724
3.596:628
3.596:306
3.596:133
3.596:18
3.596:19
3.600:20
3.616:20
3.616:369
3.617:776
3.617:942
3.617:848
3.617:836
3.617:749
3.617:526
3.620:97
3.621:18
3.621:18
3.621:17
3.622:270
3.622:703
3.622:758
3.622:647
3.622:350
3.623:188
3.624:17
3.625:18
3.625:162
3.625:440
3.625:869
3.625:970
3.625:845
3.625:794
3.626:672
3.626:560
3.628:93
3.628:18
3.644:46
3.645:111
3.645:410
3.645:725
3.645:809
3.648:591
3.648:285
3.649:155
3.649:17
3.649:18
3.649:141
3.649:451
3.649:882
3.649:972
3.652:852
3.654:806
3.654:692
3.654:524
3.655:53
3.655:18
3.655:17
3.655:61
3.656:459
3.656:764
3.656:767
3.656:640
3.657:386
3.657:210
3.657:17
3.657:18
3.673:18
3.673:188
3.673:512
3.673:989
3.677:989
3.677:891
3.677:800
3.677:657
3.677:485
3.677:41
3.678:18
3.678:18
3.678:65
3.678:499
3.682:720
3.682:789
3.682:639
3.682:355
3.682:208
3.682:17
3.682:18
3.682:185
3.682:523
3.682:989
3.686:979
3.686:900
3.686:862
3.687:696
3.687:528
3.687:30
3.707:18
3.707:105
3.707:160
3.707:634
3.707:778
3.707:806
3.707:617
3.707:347
3.707:179
3.707:18
3.710:18
3.710:157
3.710:541
3.710:989
3.710:970
3.710:898
3.710:859
3.711:739
3.711:499
3.711:17
3.715:18
3.715:18
3.715:129
3.715:683
3.715:799
3.715:833
3.715:643
3.715:354
3.715:178
3.715:18
3.734:18
3.734:18
3.735:245
3.736:559
3.736:989
3.736:966
3.736:837
3.736:826
3.736:719
3.739:486
3.739:17
3.739:18
3.739:17
3.739:125
3.739:658
3.739:777
3.739:812
3.739:583
3.739:334
3.743:170
3.743:18
3.743:18
3.743:247
3.743:524
3.743:989
3.743:924
3.743:868
3.743:891
3.743:714
3.746:525
3.763:17
3.763:17
3.763:101
3.763:179
3.763:738
3.763:839
3.768:808
3.768:558
3.768:328
3.769:157
3.769:18
3.769:17
3.770:317
3.770:653
3.770:988
3.770:918
3.772:855
3.772:783
3.772:673
3.772:439
3.772:17
3.772:18
3.772:67
3.773:154
3.773:723
3.773:819
3.776:789
3.776:554
3.776:324
3.776:155
3.792:155
3.792:18
3.792:18
3.792:306
3.792:568
3.796:989
3.796:890
3.796:858
3.797:904
3.797:762
3.797:472
3.797:17
3.797:17
3.797:17
3.797:114
3.800:688
3.800:816
3.800:816
3.800:598
3.801:345
3.801:148
3.801:18
3.801:17
3.801:324
3.801:696
3.804:988
3.804:936
3.804:872
3.805:799
3.805:665
3.820:391
3.821:17
3.825:17
3.825:131
3.825:225
3.825:711
3.825:795
3.825:757
3.825:536
3.825:301
3.825:108
3.826:18
3.829:17
3.829:398
3.829:680
3.829:988
3.829:936
3.829:862
3.829:876
3.829:704
3.830:366
3.833:18
3.833:18
3.833:47
3.833:205
3.833:703
3.833:816
3.833:782
3.833:565
3.834:322
3.849:322
3.854:105
3.854:18
3.854:19
3.854:384
3.854:788
3.854:988
3.855:959
3.855:844
3.855:730
3.858:665
3.858:357
3.858:17
3.858:17
3.858:82
3.858:264
3.858:794
3.858:821
3.858:773
3.859:448
3.859:259
3.861:36
3.862:18
3.862:17
3.862:419
3.862:719
3.862:988
3.862:922
3.862:810
3.862:821
3.882:679
3.882:318
3.882:17
3.882:93
3.882:161
3.882:289
3.883:801
3.886:836
3.886:749
3.887:459
3.887:256
3.887:30
3.887:18
3.887:17
3.887:377
3.887:776
3.888:988
3.891:940
3.891:847
3.891:753
3.891:617
3.891:230
3.891:18
3.891:37
3.891:156
3.891:321
3.892:737
3.895:823
3.895:763
3.895:424
3.911:424
3.911:258
3.911:18
3.911:18
3.911:86
3.912:463
3.912:772
3.915:990
3.915:898
3.915:820
3.915:726
3.915:639
3.915:229
3.915:18
3.916:17
3.916:46
3.916:311
3.923:753
3.924:804
3.925:685
3.925:433
3.926:259
3.927:17
3.927:18
3.928:157
3.929:465
3.929:820
3.929:989
3.930:895
3.930:809
3.941:728
3.941:599
3.941:177
3.944:17
3.946:17
3.946:101
3.946:350
3.947:735
3.947:789
3.947:687
3.948:452
3.948:278
3.948:18
3.950:18
3.953:197
3.953:463
3.954:829
3.954:988
3.954:918
3.954:813
3.955:712
3.955:621
3.955:165
3.955:18
3.955:17
3.955:103
3.956:411
3.956:782
3.956:852
3.957:677
3.977:677
3.978:417
3.978:284
3.978:17
3.979:18
3.980:174
3.982:499
3.984:927
3.985:989
3.991:904
3.993:878
