0.000:325
0.001:290
0.001:269
0.001:228
0.001:184
0.001:165
0.001:156
0.002:160
0.002:185
0.002:221
0.002:245
0.002:263
0.002:275
0.003:302
0.003:348
0.003:362
0.003:351
0.003:344
0.003:326
0.003:296
0.003:246
0.004:229
0.004:217
0.004:187
0.004:143
0.004:139
0.004:147
0.004:153
0.005:178
0.005:202
0.005:202
0.005:221
0.005:238
0.005:263
0.005:313
0.005:349
0.005:372
0.005:373
0.005:355
0.006:334
0.006:326
0.006:301
0.006:258
0.006:232
0.006:208
0.006:188
0.006:179
0.006:169
0.006:199
0.006:221
0.007:239
0.007:257
0.007:297
0.007:311
0.007:352
0.007:398
0.007:405
0.007:411
0.007:400
0.007:360
0.007:325
0.008:310
0.008:299
0.008:278
0.008:263
0.008:243
0.008:227
0.008:222
0.008:217
0.008:248
0.008:290
0.008:331
0.009:345
0.009:359
0.009:394
0.009:432
0.009:454
0.009:460
0.009:444
0.009:418
0.009:384
0.009:361
0.009:326
0.009:313
0.009:287
0.010:282
0.010:261
0.010:261
0.010:281
0.010:294
0.010:294
0.010:348
0.010:359
0.010:392
0.010:419
0.010:451
0.010:475
0.010:474
0.011:467
0.011:465
0.011:442
0.011:426
0.012:402
0.012:370
0.012:350
0.012:327
0.012:284
0.012:272
0.012:287
0.012:300
0.012:315
0.013:359
0.013:387
0.014:393
0.014:416
0.014:467
0.014:509
0.014:526
0.014:525
0.014:497
0.014:478
0.015:440
0.015:415
0.015:398
0.015:400
0.015:352
0.015:316
0.016:292
0.016:308
0.016:331
0.016:337
0.016:379
0.016:409
0.016:433
0.016:444
0.017:477
0.017:544
0.017:545
0.017:536
0.017:526
0.017:489
0.017:477
0.017:455
0.017:413
0.017:390
0.017:346
0.017:301
0.017:295
0.017:329
0.018:365
0.018:365
0.018:384
0.018:397
0.018:427
0.018:454
0.018:481
0.018:502
0.018:517
0.018:542
0.018:539
0.018:521
0.018:505
0.018:480
0.019:462
0.019:434
0.019:417
0.019:379
0.019:342
0.019:330
0.019:338
0.019:354
0.019:375
0.019:399
0.019:431
0.019:447
0.019:434
0.019:492
0.019:558
0.020:579
0.020:584
0.020:535
0.020:498
0.020:469
0.020:424
0.020:409
0.020:416
0.020:386
0.020:335
0.020:329
0.020:343
0.020:361
0.020:382
0.021:406
0.021:433
0.021:463
0.021:482
0.021:519
0.021:555
0.021:564
0.021:555
0.021:534
0.021:510
0.021:488
0.021:472
0.021:438
0.021:411
0.021:368
0.021:337
0.022:329
0.022:359
0.022:359
0.022:367
0.022:382
0.022:425
0.022:455
0.022:473
0.022:488
0.022:523
0.022:550
0.022:564
0.022:563
0.022:535
0.022:493
0.022:481
0.022:462
0.022:444
0.023:418
0.023:376
0.023:360
0.023:344
0.023:352
0.023:368
0.023:402
0.023:429
0.023:444
0.023:457
0.023:479
0.023:513
0.023:550
0.023:562
0.023:556
0.023:542
0.023:521
0.023:495
0.024:474
0.024:447
0.024:415
0.024:380
0.024:352
0.024:340
0.024:355
0.024:386
0.024:406
0.024:416
0.024:430
0.024:448
0.024:480
0.024:521
0.024:552
0.024:564
0.024:548
0.024:529
0.024:497
0.024:477
0.025:448
0.025:439
0.025:421
0.025:376
0.025:341
0.025:333
0.025:333
0.025:339
0.025:368
0.025:406
0.025:419
0.025:444
0.025:474
0.025:485
0.025:531
0.025:555
0.025:567
0.025:568
0.025:539
0.025:518
0.025:482
0.026:460
0.026:443
0.026:416
0.026:384
0.026:350
0.026:358
0.026:383
0.026:393
0.026:388
0.026:418
0.026:455
0.026:476
0.026:501
0.026:547
0.026:573
0.026:591
0.026:595
0.026:555
0.026:520
0.026:499
0.026:463
0.027:434
0.027:425
0.027:391
0.027:359
0.027:352
0.027:373
0.027:397
0.027:434
0.027:448
0.027:470
0.027:492
0.027:516
0.027:565
0.028:582
0.028:588
0.028:587
0.028:589
0.028:550
0.028:516
0.028:496
0.028:455
0.028:435
0.029:398
0.029:392
0.029:392
0.029:392
0.029:413
0.030:422
0.030:441
0.030:472
0.031:500
0.031:501
0.031:518
0.031:561
0.031:600
0.032:597
0.032:580
0.032:563
0.032:541
0.032:521
0.032:492
0.032:452
0.033:438
0.033:401
0.033:365
0.033:370
0.033:392
0.033:413
0.033:439
0.033:444
0.033:479
0.034:524
0.034:551
0.034:576
0.034:602
0.034:598
0.034:598
0.034:570
0.034:541
0.034:525
0.035:505
0.035:487
0.035:453
0.035:396
0.035:377
0.035:378
0.035:400
0.035:411
0.035:439
0.035:468
0.036:493
0.036:512
0.036:540
0.036:572
0.036:589
0.036:598
0.036:583
0.036:568
0.036:532
0.037:512
0.037:500
0.037:477
0.037:453
0.037:418
0.037:418
0.037:397
0.037:390
0.037:398
0.037:421
0.038:445
0.038:465
0.038:493
0.038:507
0.038:534
0.038:577
0.038:605
0.038:604
0.039:591
0.039:563
0.039:534
0.039:511
0.039:486
0.039:465
0.039:438
0.039:405
0.039:384
0.039:383
0.039:396
0.040:415
0.040:448
0.040:479
0.040:500
0.040:514
0.040:551
0.040:595
0.040:630
0.040:645
0.040:636
0.040:611
0.041:580
0.041:559
0.041:536
0.041:511
0.041:487
0.041:445
0.041:420
0.041:410
0.041:432
0.041:454
0.041:478
0.042:503
0.042:523
0.042:540
0.042:573
0.042:616
0.042:636
0.042:641
0.042:629
0.042:611
0.042:593
0.042:561
0.042:531
0.043:517
0.043:492
0.043:492
0.043:458
0.043:439
0.043:433
0.043:442
0.043:447
0.043:468
0.043:491
0.044:519
0.044:537
0.044:567
0.044:607
0.045:624
0.045:611
0.045:589
0.045:570
0.045:547
0.045:512
0.045:488
0.045:472
0.045:443
0.045:392
0.046:366
0.046:351
0.046:373
0.046:390
0.046:407
0.046:442
0.046:454
0.046:485
0.046:511
0.046:536
0.046:550
0.046:570
0.046:546
0.046:529
0.046:503
0.047:465
0.047:439
0.047:439
0.047:404
0.047:383
0.047:372
0.047:360
0.047:357
0.047:385
0.047:418
0.047:448
0.047:471
0.047:491
0.047:512
0.047:538
0.047:572
0.047:578
0.048:552
0.048:534
0.048:496
0.048:483
0.048:471
0.048:445
0.048:445
0.048:404
0.048:372
0.048:346
0.048:354
0.048:375
0.048:410
0.048:439
0.048:462
0.048:474
0.048:474
0.048:511
0.048:594
0.048:615
0.048:588
0.048:575
0.049:559
0.049:529
0.049:497
0.049:480
0.049:453
0.049:421
0.049:395
0.049:378
0.049:380
0.049:398
0.049:414
0.049:441
0.049:471
0.049:487
0.049:512
0.049:558
0.049:599
0.049:612
0.049:635
0.049:626
0.049:615
0.050:588
0.050:571
0.050:551
0.050:533
0.050:520
0.050:513
0.050:525
0.050:543
0.050:566
0.050:593
0.050:620
0.050:647
0.050:696
0.050:739
0.050:778
0.050:821
0.050:838
0.050:848
0.050:864
0.050:833
0.050:790
0.051:747
0.051:706
0.051:706
0.051:688
0.051:666
0.051:656
0.051:670
0.051:688
0.051:756
0.051:833
0.051:908
0.051:986
0.051:990
0.051:989
0.051:988
0.051:988
0.051:988
0.051:988
0.051:989
0.051:978
0.051:866
0.052:743
0.052:595
0.052:445
0.052:302
0.052:185
0.052:125
0.052:96
0.052:89
0.052:106
0.052:139
0.052:185
0.052:224
0.052:249
0.052:300
0.052:360
0.052:392
0.052:400
0.052:406
0.052:401
0.052:401
0.052:389
0.053:377
0.053:376
0.053:358
0.053:336
0.053:330
0.053:338
0.053:363
0.053:390
0.053:418
0.053:445
0.053:461
0.053:479
0.053:509
0.053:548
0.053:566
0.053:564
0.053:552
0.053:523
0.053:495
0.053:466
0.053:466
0.053:443
0.054:421
0.054:391
0.054:358
0.054:344
0.054:354
0.054:362
0.054:391
0.054:415
0.054:450
0.054:475
0.054:497
0.054:535
0.054:567
0.054:582
0.054:582
0.054:561
0.054:525
0.054:499
0.054:480
0.054:462
0.054:440
0.055:410
0.055:378
0.055:358
0.055:366
0.055:390
0.055:422
0.055:428
0.055:465
0.055:499
0.055:527
0.055:556
0.055:566
0.055:604
0.055:601
0.055:590
0.055:563
0.055:530
0.055:494
0.055:476
0.055:462
0.055:425
0.056:400
0.056:396
0.056:402
0.056:417
0.056:434
0.056:476
0.056:508
0.056:508
0.056:520
0.056:560
0.056:609
0.056:636
0.056:616
0.056:601
0.056:572
0.056:540
0.056:540
0.056:511
0.056:482
0.056:479
0.056:434
0.057:407
0.057:422
0.057:432
0.057:440
0.057:451
0.057:478
0.057:512
0.057:531
0.057:552
0.057:591
0.057:617
0.057:628
0.057:624
0.057:610
0.057:596
0.057:568
0.057:538
0.057:515
0.057:507
0.057:483
0.057:452
0.058:440
0.058:441
0.058:459
0.058:491
0.058:509
0.058:523
0.058:548
0.058:572
0.058:607
0.058:629
0.058:657
0.058:659
0.058:648
0.058:618
0.058:583
0.058:557
0.058:530
0.058:517
0.058:496
0.058:459
0.058:462
0.059:482
0.059:486
0.059:500
0.059:524
0.059:556
0.059:576
0.059:603
0.059:650
0.059:684
0.059:692
0.059:688
0.059:671
0.059:631
0.059:631
0.059:611
0.059:598
0.059:583
0.059:555
0.059:512
0.059:470
0.059:489
0.059:511
0.060:518
0.060:544
0.060:571
0.060:596
0.060:623
0.060:647
0.060:687
0.060:718
0.060:735
0.060:731
0.060:711
0.060:685
0.060:662
0.060:639
0.060:621
0.060:596
0.060:575
0.061:545
0.061:534
0.061:545
0.062:570
0.062:603
0.062:625
0.062:645
0.062:670
0.062:701
0.062:749
0.062:775
0.062:776
0.062:770
0.062:759
0.062:741
0.062:722
0.063:697
0.063:672
0.063:654
0.063:616
0.063:590
0.063:593
0.063:606
0.063:625
0.063:656
0.064:685
0.064:717
0.064:730
0.064:749
0.064:787
0.064:826
0.064:832
0.064:822
0.064:808
0.064:808
0.064:781
0.064:750
0.064:725
0.064:708
0.064:687
0.065:651
0.065:622
0.065:615
0.065:626
0.065:642
0.065:668
0.065:690
0.065:712
0.065:733
0.065:758
0.065:796
0.065:819
0.065:824
0.065:812
0.066:794
0.066:760
0.066:728
0.066:694
0.066:671
0.066:645
0.066:606
0.066:577
0.066:569
0.066:566
0.066:576
0.066:597
0.066:618
0.066:649
0.066:670
0.067:692
0.067:729
0.067:750
0.067:755
0.067:737
0.067:705
0.067:666
0.067:628
0.067:604
0.067:584
0.067:549
0.067:494
0.067:453
0.067:443
0.067:458
0.068:467
0.068:472
0.068:474
0.068:479
0.068:473
0.068:483
0.068:520
0.068:538
0.068:528
0.068:508
0.068:508
0.068:490
0.068:458
0.068:422
0.068:390
0.069:368
0.069:341
0.069:286
0.069:252
0.069:238
0.069:245
0.069:261
0.069:290
0.069:305
0.069:314
0.069:319
0.069:342
0.069:390
0.069:415
0.069:406
0.069:412
0.069:402
0.069:350
0.069:311
0.069:288
0.069:276
0.070:254
0.070:189
0.070:163
0.070:161
0.070:172
0.070:186
0.070:201
0.070:220
0.070:236
0.070:253
0.070:280
0.070:332
0.070:368
0.070:368
0.070:347
0.070:329
0.070:306
0.070:272
0.070:250
0.070:236
0.070:220
0.071:187
0.071:161
0.071:156
0.071:161
0.071:179
0.071:201
0.071:228
0.071:252
0.071:282
0.071:321
0.071:358
0.071:378
0.071:378
0.071:378
0.071:370
0.071:354
0.071:331
0.071:311
0.071:299
0.071:280
0.071:256
0.072:217
0.072:199
0.072:197
0.072:208
0.072:230
0.072:256
0.072:279
0.072:299
0.072:321
0.072:353
0.072:399
0.072:425
0.072:432
0.072:420
0.072:400
0.072:377
0.072:353
0.072:329
0.072:310
0.072:288
0.072:250
0.073:233
0.073:230
0.073:245
0.073:268
0.073:295
0.073:324
0.073:351
0.073:371
0.073:398
0.073:439
0.073:461
0.073:466
0.073:452
0.073:433
0.073:411
0.073:385
0.073:363
0.073:343
0.073:319
0.073:283
0.073:265
0.074:263
0.074:277
0.074:304
0.074:332
0.074:361
0.074:383
0.074:402
0.074:434
0.074:472
0.074:486
0.074:486
0.074:489
0.074:477
0.074:456
0.074:433
0.074:408
0.074:383
0.074:363
0.074:340
0.074:303
0.074:284
0.075:285
0.075:304
0.075:326
0.075:351
0.075:379
0.075:406
0.075:424
0.075:442
0.075:483
0.075:511
0.075:516
0.075:498
0.075:476
0.075:446
0.075:426
0.075:406
0.075:386
0.075:355
0.075:315
0.075:303
0.076:297
0.076:319
0.076:347
0.076:369
0.076:398
0.076:425
0.076:443
0.076:455
0.076:484
0.076:523
0.076:540
0.076:522
0.076:498
0.076:464
0.076:430
0.076:405
0.076:377
0.076:353
0.076:358
0.077:341
0.077:325
0.077:331
0.077:365
0.077:399
0.077:404
0.077:417
0.077:449
0.077:475
0.078:527
0.078:527
0.078:551
0.078:524
0.078:517
0.078:486
0.078:459
0.079:438
0.079:413
0.079:415
0.079:395
0.079:338
0.079:330
0.079:317
0.079:330
0.079:353
0.079:393
0.079:430
0.079:441
0.080:460
0.080:468
0.080:513
0.080:527
0.080:526
0.080:507
0.080:476
0.080:448
0.080:432
0.080:402
0.081:377
0.081:387
0.081:372
0.081:373
0.081:367
0.081:384
0.081:419
0.081:423
0.081:452
0.081:456
0.081:452
0.081:478
0.081:498
0.081:484
0.081:460
0.082:451
0.082:451
0.082:443
0.082:432
0.082:427
0.082:419
0.082:401
0.082:373
0.082:388
0.082:404
0.082:407
0.082:433
0.082:442
0.082:450
0.082:454
0.083:459
0.083:473
0.083:473
0.083:482
0.083:474
0.083:469
0.083:481
0.083:451
0.083:436
0.083:444
0.083:440
0.083:425
0.083:409
0.083:397
0.083:398
0.084:403
0.084:429
0.084:447
0.084:445
0.084:449
0.084:450
0.084:446
0.084:488
0.084:511
0.084:492
0.084:478
0.084:491
0.084:467
0.084:455
0.084:460
0.085:458
0.085:464
0.085:439
0.085:419
0.085:410
0.085:424
0.085:462
0.085:468
0.085:456
0.085:467
0.085:484
0.086:489
0.086:497
0.086:511
0.086:496
0.086:483
0.086:486
0.086:473
0.086:472
0.086:466
0.086:465
0.086:464
0.086:439
0.087:423
0.087:443
0.087:448
0.087:453
0.087:468
0.087:475
0.087:481
0.087:481
0.087:483
0.087:483
0.087:484
0.088:501
0.088:507
0.088:504
0.088:496
0.088:479
0.088:468
0.088:467
0.088:464
0.088:463
0.088:449
0.088:442
0.088:449
0.088:467
0.088:463
0.089:459
0.089:479
0.089:494
0.089:469
0.089:463
0.089:486
0.089:493
0.089:484
0.089:470
0.089:459
0.089:455
0.089:451
0.089:443
0.090:448
0.090:448
0.090:451
0.090:453
0.090:448
0.090:453
0.090:457
0.090:470
0.090:485
0.090:488
0.090:498
0.090:508
0.090:514
0.090:518
0.091:513
0.091:510
0.091:504
0.091:493
0.091:486
0.091:478
0.091:473
0.091:462
0.091:445
0.092:438
0.092:447
0.092:446
0.092:461
0.092:475
0.092:476
0.092:488
0.092:478
0.092:478
0.092:497
0.092:520
0.092:525
0.093:526
0.093:519
0.093:516
0.093:486
0.093:468
0.093:475
0.093:471
0.093:461
0.093:432
0.093:422
0.093:422
0.093:437
0.094:462
0.094:485
0.095:499
0.095:509
0.095:514
0.095:538
0.095:564
0.095:572
0.095:577
0.095:579
0.095:564
0.095:544
0.096:515
0.096:485
0.096:477
0.096:466
0.096:432
0.096:401
0.096:391
0.096:392
0.096:416
0.096:458
0.096:494
0.096:518
0.096:530
0.096:556
0.097:590
0.097:623
0.097:631
0.097:624
0.097:612
0.097:598
0.097:555
0.097:525
0.097:503
0.097:483
0.097:448
0.098:419
0.098:406
0.098:412
0.098:430
0.098:461
0.098:483
0.098:496
0.098:496
0.098:514
0.098:534
0.098:571
0.098:590
0.098:594
0.098:586
0.098:572
0.098:536
0.098:508
0.098:473
0.098:448
0.099:428
0.099:383
0.099:366
0.099:364
0.099:356
0.099:354
0.099:366
0.099:377
0.099:451
0.099:481
0.099:498
0.099:530
0.099:546
0.099:558
0.099:556
0.099:541
0.099:512
0.099:497
0.100:456
0.100:429
0.100:422
0.100:392
0.100:366
0.100:364
0.100:362
0.100:382
0.100:413
0.100:444
0.100:461
0.100:474
0.100:504
0.100:560
0.100:591
0.100:594
0.100:574
0.100:548
0.100:534
0.100:515
0.100:487
0.101:467
0.101:449
0.101:402
0.101:371
0.101:371
0.101:383
0.101:396
0.101:429
0.101:452
0.101:452
0.101:474
0.101:502
0.101:531
0.101:570
0.101:609
0.101:617
0.101:596
0.101:574
0.101:561
0.101:524
0.101:498
0.102:475
0.102:462
0.102:421
0.102:397
0.102:390
0.102:399
0.102:412
0.102:450
0.102:480
0.102:509
0.102:528
0.102:569
0.102:618
0.102:655
0.102:681
0.102:671
0.102:653
0.102:634
0.102:597
0.102:574
0.102:573
0.103:574
0.103:559
0.103:545
0.103:553
0.103:571
0.103:600
0.103:647
0.103:694
0.103:733
0.103:752
0.103:780
0.103:836
0.103:885
0.103:912
0.103:926
0.103:914
0.103:886
0.103:856
0.103:831
0.103:832
0.103:845
0.103:830
0.104:834
0.104:865
0.104:918
0.104:981
0.104:989
0.104:989
0.104:989
0.104:988
0.104:988
0.104:988
0.104:988
0.104:989
0.104:990
0.104:922
0.104:807
0.104:673
0.104:530
0.104:389
0.104:273
0.104:194
0.104:121
0.104:85
0.105:77
0.105:99
0.105:139
0.105:184
0.105:226
0.105:260
0.105:294
0.105:332
0.105:391
0.105:430
0.105:445
0.105:439
0.105:428
0.105:414
0.105:398
0.105:389
0.105:386
0.105:375
0.105:346
0.105:332
0.105:329
0.106:345
0.106:372
0.106:404
0.106:430
0.106:456
0.106:476
0.106:505
0.106:555
0.106:586
0.106:588
0.106:573
0.106:545
0.106:504
0.106:466
0.106:436
0.106:410
0.106:384
0.106:335
0.106:308
0.106:302
0.106:321
0.106:351
0.107:351
0.107:386
0.107:424
0.107:458
0.107:490
0.107:525
0.107:587
0.107:629
0.108:647
0.108:633
0.108:604
0.108:557
0.108:515
0.108:481
0.108:445
0.108:405
0.108:345
0.108:303
0.108:294
0.108:311
0.108:344
0.108:389
0.108:433
0.109:469
0.109:504
0.109:550
0.109:626
0.109:668
0.109:677
0.109:662
0.109:632
0.109:594
0.109:552
0.109:507
0.109:470
0.109:430
0.109:369
0.109:334
0.110:324
0.110:334
0.110:368
0.110:415
0.110:459
0.110:501
0.110:532
0.110:580
0.110:653
0.110:697
0.110:713
0.110:692
0.111:656
0.111:615
0.111:575
0.111:536
0.111:502
0.111:462
0.111:393
0.111:354
0.111:347
0.111:365
0.112:365
0.112:399
0.112:443
0.112:482
0.112:520
0.112:559
0.112:606
0.112:680
0.113:722
0.113:734
0.113:715
0.113:682
0.113:639
0.113:599
0.113:553
0.113:518
0.113:476
0.113:410
0.113:370
0.114:362
0.114:394
0.114:428
0.114:470
0.114:512
0.114:552
0.114:585
0.114:628
0.114:705
0.114:752
0.114:758
0.115:733
0.115:706
0.115:663
0.115:612
0.115:563
0.115:536
0.115:496
0.115:432
0.115:397
0.115:387
0.115:407
0.115:445
0.115:488
0.115:529
0.116:573
0.116:607
0.116:664
0.116:736
0.116:775
0.116:777
0.116:757
0.116:726
0.116:682
0.116:638
0.116:597
0.116:563
0.116:522
0.116:456
0.116:419
0.117:413
0.117:413
0.117:442
0.117:485
0.117:527
0.117:568
0.117:608
0.117:643
0.117:697
0.117:769
0.117:812
0.117:826
0.117:802
0.117:769
0.117:722
0.118:672
0.118:636
0.118:604
0.118:559
0.118:490
0.118:464
0.118:463
0.118:478
0.118:512
0.118:565
0.118:613
0.118:654
0.118:692
0.118:747
0.119:817
0.119:858
0.119:869
0.119:850
0.119:816
0.119:765
0.119:720
0.119:676
0.119:646
0.119:606
0.119:549
0.119:519
0.119:513
0.119:537
0.119:572
0.120:618
0.120:660
0.120:698
0.120:737
0.120:792
0.120:862
0.120:895
0.120:901
0.120:875
0.120:840
0.120:792
0.121:747
0.121:704
0.121:673
0.121:625
0.121:558
0.121:524
0.121:524
0.121:519
0.121:540
0.121:577
0.122:624
0.122:665
0.122:699
0.122:733
0.122:784
0.122:851
0.122:881
0.122:880
0.122:852
0.122:814
0.122:764
0.122:711
0.122:663
0.122:623
0.122:568
0.122:498
0.123:463
0.123:456
0.123:472
0.123:501
0.123:542
0.123:581
0.123:611
0.123:635
0.123:687
0.123:745
0.123:771
0.123:763
0.123:725
0.123:679
0.123:622
0.123:567
0.123:521
0.123:476
0.123:416
0.124:340
0.124:298
0.124:288
0.124:305
0.124:324
0.124:357
0.124:391
0.124:419
0.124:443
0.124:488
0.124:545
0.124:560
0.124:549
0.124:516
0.124:469
0.124:418
0.124:367
0.124:319
0.124:279
0.125:215
0.125:144
0.125:144
0.125:113
0.125:108
0.125:133
0.125:164
0.125:200
0.125:236
0.125:269
0.125:296
0.125:348
0.125:409
0.125:435
0.125:431
0.125:401
0.125:361
0.125:315
0.125:267
0.125:222
0.126:185
0.126:135
0.126:73
0.126:51
0.126:49
0.126:74
0.126:114
0.126:160
0.126:205
0.126:238
0.126:267
0.126:326
0.126:392
0.126:421
0.126:420
0.126:395
0.126:356
0.126:311
0.126:265
0.127:232
0.127:202
0.127:150
0.127:91
0.127:69
0.127:72
0.128:100
0.128:143
0.128:190
0.128:231
0.128:270
0.128:307
0.128:369
0.128:435
0.128:461
0.128:460
0.128:438
0.129:401
0.129:358
0.129:313
0.129:275
0.129:248
0.129:199
0.129:199
0.129:141
0.129:122
0.129:129
0.129:157
0.129:193
0.129:243
0.129:282
0.129:317
0.130:352
0.130:417
0.130:484
0.130:514
0.130:513
0.130:488
0.130:445
0.130:397
0.130:357
0.130:322
0.130:291
0.130:236
0.130:179
0.130:160
0.130:166
0.130:197
0.131:241
0.131:287
0.131:328
0.131:366
0.131:403
0.131:471
0.131:536
0.131:557
0.131:554
0.131:527
0.131:491
0.131:445
0.131:400
0.131:360
0.131:326
0.131:271
0.131:218
0.131:200
0.131:209
0.131:238
0.131:279
0.132:323
0.132:360
0.132:398
0.132:435
0.132:497
0.132:559
0.132:590
0.132:590
0.132:565
0.132:524
0.132:479
0.132:430
0.132:389
0.132:356
0.132:356
0.132:296
0.132:248
0.132:238
0.132:252
0.132:270
0.132:303
0.132:345
0.133:394
0.133:433
0.133:466
0.133:528
0.133:583
0.133:609
0.133:608
0.133:577
0.133:529
0.133:487
0.133:449
0.133:408
0.133:368
0.133:315
0.133:263
0.133:244
0.133:252
0.133:284
0.133:321
0.133:364
0.133:410
0.133:458
0.134:492
0.134:552
0.134:612
0.134:627
0.134:621
0.134:594
0.134:550
0.134:504
0.134:459
0.134:423
0.134:385
0.134:321
0.134:264
0.134:258
0.134:267
0.134:294
0.134:334
0.134:376
0.134:419
0.134:454
0.134:487
0.135:553
0.135:605
0.135:622
0.135:622
0.135:596
0.135:555
0.135:508
0.135:459
0.135:417
0.135:417
0.135:383
0.135:320
0.135:267
0.135:253
0.135:267
0.135:295
0.135:338
0.135:382
0.135:425
0.135:457
0.135:496
0.135:564
0.136:620
0.136:638
0.136:629
0.136:595
0.136:551
0.136:506
0.136:462
0.136:426
0.136:386
0.136:316
0.136:265
0.136:253
0.136:266
0.136:296
0.136:339
0.136:381
0.136:421
0.136:456
0.136:494
0.136:562
0.136:617
0.137:632
0.137:619
0.137:588
0.137:546
0.137:502
0.137:454
0.137:415
0.137:378
0.137:310
0.137:254
0.137:234
0.137:243
0.137:269
0.137:307
0.137:347
0.138:380
0.138:407
0.138:433
0.138:484
0.138:506
0.138:496
0.138:466
0.138:421
0.138:373
0.138:323
0.138:279
0.138:279
0.138:242
0.138:198
0.138:129
0.138:76
0.138:61
0.138:71
0.139:107
0.139:154
0.139:200
0.139:245
0.139:282
0.139:331
0.139:417
0.139:486
0.139:520
0.139:513
0.139:465
0.139:389
0.139:325
0.139:269
0.139:222
0.139:174
0.139:93
0.139:40
0.141:32
0.141:50
0.141:79
0.141:135
0.141:206
0.141:280
0.141:342
0.141:405
0.141:497
0.141:570
0.141:611
0.141:596
0.141:549
0.141:481
0.141:411
0.141:348
0.141:297
0.141:243
0.141:151
0.141:88
0.141:65
0.141:84
0.141:121
0.141:175
0.141:225
0.141:264
0.141:289
0.142:324
0.142:416
0.142:493
0.142:521
0.142:511
0.142:479
0.142:446
0.142:398
0.142:398
0.142:345
0.142:302
0.142:267
0.142:192
0.143:139
0.143:128
0.143:137
0.143:170
0.143:216
0.143:276
0.143:335
0.143:374
0.143:430
0.143:527
0.143:597
0.143:617
0.143:595
0.143:554
0.144:499
0.144:441
0.144:398
0.144:357
0.144:314
0.145:231
0.145:171
0.145:158
0.145:189
0.145:237
0.145:286
0.145:333
0.145:384
0.145:428
0.145:477
0.145:554
0.145:615
0.145:638
0.145:614
0.145:572
0.146:516
0.146:457
0.146:410
0.146:385
0.146:346
0.146:260
0.146:213
0.146:216
0.146:247
0.146:299
0.146:363
0.146:416
0.147:464
0.147:519
0.147:577
0.147:666
0.147:729
0.147:745
0.147:722
0.147:695
0.147:644
0.147:644
0.147:588
0.147:546
0.147:511
0.147:463
0.147:386
0.147:328
0.147:314
0.147:339
0.147:379
0.147:428
0.147:477
0.147:524
0.148:563
0.148:617
0.148:695
0.148:744
0.148:758
0.148:740
0.148:695
0.148:636
0.148:585
0.148:526
0.148:477
0.148:423
0.148:340
0.148:294
0.148:279
0.148:296
0.148:324
0.148:377
0.148:432
0.148:479
0.148:519
0.148:568
0.149:646
0.149:691
0.149:693
0.149:673
0.149:636
0.149:580
0.149:521
0.149:468
0.149:426
0.149:376
0.149:292
0.149:243
0.149:230
0.149:252
0.149:290
0.149:345
0.149:398
0.149:444
0.149:486
0.149:543
0.149:626
0.149:676
0.150:691
0.150:667
0.150:628
0.150:628
0.150:570
0.150:515
0.150:471
0.150:434
0.150:385
0.150:306
0.150:263
0.150:258
0.150:279
0.150:316
0.150:371
0.150:424
0.150:471
0.151:513
0.151:570
0.151:656
0.151:705
0.151:717
0.151:694
0.151:652
0.151:599
0.151:544
0.151:493
0.151:453
0.151:404
0.151:325
0.151:282
0.151:271
0.151:298
0.151:341
0.151:395
0.151:446
0.151:491
0.151:531
0.151:592
0.152:680
0.152:727
0.152:737
0.152:714
0.152:673
0.152:616
0.152:561
0.152:511
0.152:468
0.152:411
0.152:331
0.152:297
0.152:301
0.152:334
0.152:384
0.152:448
0.152:509
0.152:562
0.152:608
0.152:681
0.152:773
0.152:822
0.153:833
0.153:814
0.153:814
0.153:788
0.153:755
0.153:725
0.153:691
0.153:666
0.153:625
0.153:573
0.155:559
0.155:559
0.155:585
0.155:623
0.155:686
0.155:755
0.155:816
0.155:874
0.155:941
0.155:989
0.155:989
0.155:989
0.155:989
0.156:990
0.156:960
0.156:920
0.156:890
0.156:879
0.156:850
0.156:800
0.156:789
0.156:793
0.156:808
0.156:817
0.156:819
0.156:811
0.156:789
0.156:757
0.157:742
0.157:732
0.157:678
0.157:590
0.157:487
0.157:392
0.157:307
0.157:251
0.157:213
0.157:195
0.157:163
0.157:106
0.157:85
0.157:94
0.158:139
0.158:193
0.158:253
0.158:312
0.158:363
0.158:407
0.158:478
0.158:569
0.158:619
0.158:640
0.158:640
0.158:631
0.158:606
0.158:561
0.158:517
0.158:474
0.159:439
0.159:392
0.159:320
0.159:280
0.159:278
0.159:307
0.159:347
0.159:398
0.159:448
0.159:493
0.159:535
0.159:599
0.159:678
0.159:716
0.159:720
0.160:693
0.160:651
0.160:590
0.160:539
0.160:495
0.160:459
0.160:399
0.160:325
0.160:290
0.160:291
0.160:323
0.160:367
0.160:418
0.160:473
0.160:518
0.161:557
0.161:629
0.161:705
0.161:738
0.161:745
0.161:716
0.162:671
0.162:613
0.162:558
0.162:510
0.162:468
0.162:400
0.162:329
0.162:306
0.163:313
0.163:347
0.163:388
0.163:438
0.163:487
0.163:533
0.163:575
0.163:642
0.163:720
0.163:757
0.163:757
0.164:754
0.164:723
0.164:679
0.164:626
0.164:570
0.164:521
0.164:475
0.164:412
0.164:336
0.164:304
0.164:310
0.164:337
0.164:378
0.164:437
0.164:496
0.165:541
0.165:575
0.165:649
0.165:732
0.165:766
0.165:769
0.165:743
0.165:709
0.165:659
0.165:594
0.165:528
0.165:491
0.165:440
0.165:372
0.165:337
0.165:337
0.165:372
0.165:416
0.165:461
0.165:522
0.166:580
0.166:615
0.166:681
0.166:767
0.166:806
0.166:809
0.166:772
0.166:718
0.166:657
0.166:607
0.166:570
0.166:530
0.166:447
0.166:383
0.166:363
0.166:376
0.166:406
0.166:430
0.166:479
0.166:546
0.166:587
0.166:628
0.167:720
0.167:790
0.167:790
0.167:803
0.167:817
0.167:796
0.167:781
0.167:733
0.167:658
0.167:606
0.167:566
0.167:498
0.167:439
0.167:400
0.167:404
0.167:435
0.167:459
0.167:544
0.167:598
0.167:640
0.167:685
0.168:763
0.168:852
0.168:869
0.168:862
0.168:833
0.168:778
0.168:731
0.168:677
0.168:626
0.168:591
0.168:514
0.168:446
0.168:421
0.168:428
0.168:454
0.168:503
0.168:554
0.168:621
0.168:676
0.168:723
0.168:809
0.168:884
0.169:893
0.169:895
0.169:871
0.169:823
0.169:768
0.169:713
0.169:673
0.169:630
0.169:538
0.169:469
0.169:445
0.169:466
0.169:504
0.169:545
0.169:594
0.169:666
0.169:722
0.169:765
0.169:835
0.169:835
0.169:911
0.170:958
0.170:963
0.170:914
0.170:863
0.170:817
0.170:760
0.170:713
0.170:684
0.170:609
0.170:536
0.170:517
0.170:520
0.171:545
0.171:586
0.171:656
0.171:726
0.171:770
0.171:799
0.171:889
0.171:964
0.171:990
0.171:990
0.171:959
0.171:892
0.171:836
0.172:773
0.172:735
0.172:698
0.172:623
0.172:549
0.172:514
0.172:515
0.172:546
0.172:594
0.172:641
0.172:693
0.172:739
0.172:777
0.172:854
0.173:9293
0.173:17
0.173:17
0.173:17
0.173:17
0.173:17
0.173:17
0.173:
0.173:70
0.173:70
0.173:83
0.173:102
0.173:111
0.173:108
0.173:92
0.173:78
0.173:62
0.173:37
0.174:18
0.174:17
0.174:17
0.174:17
0.174:17
0.174:17
0.174:17
0.174:17
0.174:17
0.174:17
0.174:17
0.174:17
0.174:17
0.174:17
0.174:17
0.174:17
0.174:17
0.174:17
0.175:17
0.175:17
0.175:17
0.175:17
0.175:17
0.175:17
0.175:17
0.175:17
0.175:17
0.175:17
0.175:17
0.175:17
0.175:17
0.175:17
0.175:17
0.175:17
0.175:17
0.175:17
0.176:17
0.176:17
0.176:17
0.176:17
0.176:17
0.176:17
0.176:17
0.176:17
0.176:17
0.176:17
0.176:17
0.176:17
0.176:17
0.176:17
0.176:17
0.176:17
0.176:17
0.176:17
0.177:17
0.177:17
0.177:17
0.177:17
0.177:17
0.177:17
0.177:17
0.177:17
0.177:17
0.177:17
0.177:17
0.177:17
0.177:17
0.177:17
0.177:17
0.177:17
0.177:17
0.177:17
0.178:17
0.178:17
0.178:17
0.178:17
0.178:17
0.178:17
0.178:17
0.179:17
0.179:17
0.179:17
0.179:17
0.179:17
0.179:17
0.179:17
0.179:17
0.179:17
0.179:17
0.179:17
0.179:17
0.180:17
0.180:17
0.180:17
0.180:17
0.180:17
0.180:17
0.180:17
0.180:17
0.180:17
0.180:17
0.180:17
0.180:17
0.180:17
0.180:17
0.181:18
0.181:18
0.181:18
0.181:17
0.181:18
0.181:17
0.181:17
0.181:18
0.181:17
0.181:17
0.181:17
0.181:17
0.181:17
0.181:17
0.181:17
0.181:17
0.181:18
0.182:18
0.182:17
0.182:18
0.182:18
0.182:18
0.182:18
0.182:18
0.182:18
0.182:18
0.182:18
0.184:18
0.184:18
0.184:17
0.184:17
0.184:17
0.184:17
0.184:18
0.184:18
0.184:18
0.204:18
0.204:18
0.204:18
0.204:18
0.205:18
0.209:18
0.209:18
0.209:18
0.209:18
0.209:18
0.209:18
0.209:18
0.209:18
0.209:18
0.209:18
0.209:18
0.209:18
0.213:18
0.213:18
0.213:18
0.213:18
0.213:18
0.213:18
0.213:18
0.213:18
0.213:18
0.213:18
0.213:18
0.217:18
0.217:18
0.233:18
0.233:18
0.233:17
0.237:18
0.237:18
0.237:18
0.237:17
0.237:18
0.237:18
0.237:18
0.237:18
0.237:18
0.237:18
0.237:18
0.237:18
0.241:18
0.241:18
0.241:18
0.241:18
0.241:18
0.241:18
0.241:18
0.241:18
0.243:18
0.243:18
0.243:18
0.243:18
0.244:18
0.245:18
0.245:18
0.265:18
0.265:18
0.265:18
0.265:18
0.265:19
0.265:19
0.265:18
0.265:19
0.266:18
0.266:17
0.266:18
0.270:18
0.270:18
0.270:18
0.270:18
0.270:18
0.270:18
0.270:18
0.270:18
0.270:18
0.270:18
0.270:18
0.270:18
0.274:18
0.274:18
0.274:18
0.274:18
0.274:18
0.274:18
0.274:18
0.294:18
0.294:18
0.294:18
0.294:18
0.294:18
0.294:18
0.294:17
0.294:18
0.294:18
0.295:17
0.299:18
0.299:18
0.299:18
0.299:18
0.299:18
0.299:18
0.299:18
0.299:18
0.299:18
0.299:18
0.299:18
0.299:18
0.303:18
0.303:18
0.303:18
0.303:18
0.303:18
0.303:17
0.303:18
0.303:17
0.323:17
0.323:17
0.323:17
0.323:18
0.323:18
0.323:17
0.327:18
0.327:17
0.328:17
0.328:17
0.328:17
0.328:18
0.328:18
0.328:17
0.328:17
0.328:17
0.328:17
0.329:17
0.331:17
0.331:17
0.331:17
0.331:17
0.331:17
0.331:17
0.331:17
0.331:17
0.332:17
0.332:17
0.332:17
0.332:17
0.351:17
0.351:17
0.351:17
0.351:17
0.352:17
0.356:17
0.356:17
0.356:17
0.356:17
0.356:17
0.356:17
0.356:17
0.356:17
0.356:17
0.356:17
0.356:17
0.356:17
0.360:17
0.360:17
0.360:17
0.360:17
0.360:17
0.360:17
0.360:17
0.361:17
0.361:17
0.361:17
0.361:17
0.361:17
0.363:17
0.380:17
0.385:17
0.385:17
0.385:17
0.385:17
0.385:17
0.385:17
0.385:17
0.385:17
0.385:17
0.385:17
0.385:17
0.385:17
0.389:17
0.389:17
0.389:17
0.389:19
0.389:36
0.389:45
0.389:49
0.389:49
0.389:51
0.389:40
0.389:34
0.389:34
0.392:33
0.392:40
0.392:42
0.392:46
0.392:56
0.413:56
0.413:70
0.413:81
0.413:96
0.413:100
0.413:111
0.413:127
0.413:140
0.413:159
0.413:171
0.418:165
0.418:158
0.418:159
0.418:148
0.418:146
0.418:146
0.418:148
0.418:153
0.418:145
0.418:145
0.421:148
0.422:159
0.422:173
0.422:186
0.422:196
0.422:207
0.422:215
0.422:226
0.422:245
0.424:259
0.441:263
0.441:259
0.441:253
0.441:254
0.441:247
0.441:246
0.446:255
0.446:261
0.446:257
0.446:257
0.446:270
0.446:282
0.446:294
0.446:309
0.447:325
0.447:339
0.450:352
0.450:369
0.450:392
0.450:401
0.450:397
0.450:387
0.450:373
0.450:363
0.450:360
0.454:361
0.454:368
0.454:367
0.454:362
0.455:371
0.470:371
0.470:383
0.471:397
0.471:417
0.471:438
0.475:454
0.475:466
0.475:477
0.475:494
0.475:515
0.475:529
0.475:532
0.475:537
0.475:541
0.475:541
0.478:545
0.478:551
0.479:558
0.479:566
0.479:565
0.479:572
0.479:581
0.479:595
0.479:611
0.482:627
0.482:641
0.482:656
0.482:668
0.482:685
0.482:704
0.499:718
0.499:720
0.504:719
0.504:723
0.504:731
0.504:736
0.504:734
0.504:736
0.504:743
0.504:743
0.504:745
0.504:755
0.507:771
0.508:788
0.508:807
0.508:821
0.508:836
0.508:856
0.508:880
0.508:907
0.508:922
0.511:933
0.512:942
0.512:943
0.512:944
0.512:953
0.512:964
0.512:972
0.512:981
0.512:985
0.527:985
0.532:990
0.532:990
0.532:989
0.532:989
0.532:988
0.532:988
0.532:988
0.533:988
0.533:988
0.533:987
0.535:987
0.535:987
0.535:987
0.536:987
0.536:987
0.536:987
0.536:987
0.536:986
0.536:986
0.540:986
0.540:986
0.540:986
0.540:986
0.540:985
0.540:985
0.540:985
0.540:985
0.540:984
0.540:984
0.560:984
0.561:984
0.561:984
0.561:984
0.561:983
0.561:984
0.561:984
0.565:984
0.565:984
0.565:984
0.565:984
0.565:984
0.565:984
0.565:984
0.565:984
0.565:983
0.565:983
0.569:983
0.569:983
0.569:983
0.569:983
0.569:983
0.569:983
0.569:983
0.569:983
0.569:983
0.569:983
0.572:983
0.572:983
0.572:983
0.589:983
0.589:983
0.589:983
0.590:983
0.590:983
0.590:983
0.590:982
0.593:983
0.594:983
0.594:982
0.594:982
0.594:981
0.594:981
0.594:982
0.595:981
0.595:982
0.598:982
0.598:981
0.598:981
0.598:981
0.598:981
0.598:980
0.598:980
0.598:979
0.598:979
0.598:978
0.601:978
0.602:978
0.602:977
0.602:978
0.618:978
0.618:978
0.618:979
0.622:980
0.622:981
0.622:982
0.622:984
0.622:985
0.622:986
0.622:987
0.622:988
0.622:988
0.622:989
0.626:989
0.626:989
0.626:988
0.626:989
0.626:989
0.626:989
0.626:989
0.626:988
0.626:988
0.630:988
0.630:987
0.630:988
0.630:988
0.630:988
0.630:988
0.630:989
0.630:989
0.646:989
0.646:989
0.650:989
0.651:989
0.651:989
0.651:989
0.651:989
0.651:989
0.651:989
0.651:989
0.651:989
0.651:989
0.654:988
0.654:989
0.654:989
0.654:989
0.654:989
0.654:989
0.654:989
0.654:989
0.654:989
0.654:990
0.658:990
0.658:990
0.658:990
0.658:989
0.658:989
0.658:989
0.659:990
0.659:989
0.680:990
0.680:989
0.680:990
0.680:990
0.680:989
0.680:989
0.680:990
0.681:990
0.681:990
0.684:990
0.684:982
0.684:975
0.684:961
0.684:955
0.684:956
0.684:972
0.684:980
0.684:989
0.687:989
0.687:990
0.687:990
0.687:990
0.687:990
0.687:990
0.687:986
0.688:973
0.688:967
0.688:956
0.691:939
0.691:924
0.708:924
0.708:920
0.708:914
0.708:902
0.708:907
0.708:912
0.708:922
0.708:942
0.711:972
0.713:990
0.713:990
0.713:989
0.713:990
0.713:990
0.713:990
0.713:983
0.713:964
0.716:939
0.716:908
0.716:878
0.717:859
0.717:850
0.717:843
0.717:830
0.717:827
0.717:829
0.717:833
0.720:838
0.720:844
0.720:847
0.736:846
0.736:847
0.736:850
0.736:855
0.737:854
0.741:849
0.741:838
0.741:830
0.741:820
0.741:813
0.741:806
0.741:802
0.741:793
0.741:780
0.744:778
0.744:783
0.744:795
0.744:808
0.745:820
0.745:834
0.745:835
0.745:834
0.745:835
0.745:842
0.748:843
0.748:838
0.748:827
0.748:814
0.748:803
0.748:795
0.765:795
0.765:789
0.765:784
0.765:778
0.769:762
0.769:757
0.769:762
0.769:766
0.769:771
0.769:771
0.770:781
0.770:786
0.770:790
0.774:798
0.774:806
0.774:801
0.774:792
0.774:783
0.774:771
0.774:761
0.774:755
0.774:752
0.774:749
0.777:745
0.778:734
0.778:735
0.778:738
0.778:743
0.778:754
0.778:765
0.793:768
0.797:770
0.797:772
0.797:779
0.797:780
0.797:779
0.797:773
0.799:759
0.799:752
0.799:743
0.802:733
0.802:728
0.802:728
0.802:722
0.803:711
0.803:713
0.803:721
0.803:728
0.803:734
0.803:741
0.806:746
0.806:752
0.806:758
0.806:757
0.806:764
0.806:765
0.806:764
0.806:755
0.806:747
0.809:738
0.827:738
0.827:729
0.827:724
0.827:725
0.827:716
0.828:704
0.828:708
0.828:714
0.828:719
0.831:726
0.831:734
0.831:739
0.831:744
0.831:743
0.831:747
0.831:755
0.831:757
0.832:751
0.832:739
0.834:728
0.834:714
0.834:704
0.835:697
0.835:694
0.835:688
0.835:680
0.835:681
0.835:682
0.838:686
0.838:698
0.855:705
0.855:705
0.856:707
0.856:700
0.856:706
0.856:719
0.860:723
0.860:717
0.860:705
0.860:690
0.860:675
0.860:658
0.861:648
0.861:637
0.861:618
0.861:604
0.864:596
0.864:590
0.864:587
0.864:588
0.864:592
0.864:595
0.864:597
0.864:600
0.864:606
0.867:615
0.868:611
0.868:611
0.868:609
0.868:601
0.884:601
0.884:593
0.884:581
0.884:566
0.884:555
0.888:543
0.888:527
0.888:518
0.888:513
0.888:511
0.888:515
0.888:514
0.888:511
0.888:510
0.888:508
0.892:510
0.892:513
0.892:506
0.892:496
0.892:484
0.892:474
0.892:462
0.892:456
0.892:450
0.896:442
0.896:430
0.896:416
0.896:411
0.896:410
0.896:410
0.912:414
0.913:419
0.916:421
0.916:423
0.916:422
0.916:425
0.916:434
0.916:432
0.916:425
0.916:414
0.916:406
0.920:397
0.920:388
0.920:381
0.920:378
0.920:369
0.921:361
0.921:362
0.921:363
0.921:372
0.921:374
0.925:380
0.925:384
0.925:392
0.925:393
0.925:395
0.925:401
0.925:401
0.926:397
0.926:386
0.941:386
0.945:378
0.945:371
0.945:367
0.945:367
0.945:372
0.945:369
0.946:362
0.946:362
0.946:367
0.946:372
0.949:378
0.949:386
0.949:393
0.949:396
0.949:402
0.949:407
0.949:414
0.949:412
0.949:409
0.954:399
0.954:387
0.954:378
0.954:374
0.954:364
0.954:361
0.954:360
0.954:357
0.954:359
0.954:363
0.973:369
0.973:376
0.973:388
0.973:394
0.974:403
0.974:409
0.974:416
0.978:426
0.978:427
0.978:422
0.979:416
0.979:410
0.979:400
0.979:390
0.979:381
0.979:376
0.979:366
0.982:354
0.982:353
0.982:357
0.982:368
0.982:378
0.982:386
0.982:395
0.982:403
0.982:411
0.986:415
0.986:427
0.986:432
0.986:432
1.002:432
1.002:433
1.002:435
1.002:434
1.002:428
1.002:425
1.002:418
1.006:410
1.006:396
1.006:392
1.006:396
1.006:404
1.006:412
1.006:421
1.006:424
1.006:428
1.011:432
1.011:440
1.011:448
1.011:445
1.012:434
1.012:423
1.012:415
1.012:407
1.012:401
1.012:397
1.015:392
1.015:388
1.015:384
1.015:386
1.031:396
1.031:407
1.031:416
1.036:426
1.036:434
1.036:442
1.036:447
1.036:455
1.036:462
1.036:460
1.036:454
1.036:445
1.036:439
1.039:432
1.039:425
1.039:417
1.039:409
1.039:401
1.039:395
1.040:397
1.040:398
1.040:401
1.043:406
1.043:409
1.043:410
1.043:415
1.043:417
1.044:424
1.044:432
1.044:434
1.060:434
1.060:434
1.064:428
1.064:420
1.064:407
1.064:404
1.064:405
1.064:408
1.064:402
1.064:390
1.064:384
1.065:386
1.068:390
1.068:400
1.068:407
1.068:416
1.068:422
1.068:424
1.068:431
1.068:437
1.068:437
1.068:435
1.072:427
1.072:420
1.072:414
1.072:408
1.072:405
1.072:401
1.072:390
1.072:385
1.092:390
1.092:394
1.092:400
1.092:409
1.092:413
1.094:417
1.094:420
1.094:422
1.094:427
1.097:430
1.097:429
1.097:422
1.097:414
1.097:405
1.097:398
1.097:390
1.097:384
1.097:382
1.101:378
1.101:371
1.101:367
1.101:370
1.101:378
1.101:383
1.102:391
1.102:400
1.102:404
1.102:407
1.104:417
1.104:424
1.121:424
1.121:425
1.121:422
1.121:417
1.121:408
1.121:402
1.121:399
1.122:395
1.126:393
1.126:386
1.126:378
1.126:383
1.126:389
1.126:396
1.126:398
1.126:405
1.127:415
1.130:422
1.130:426
1.130:431
1.130:439
1.130:436
1.130:432
1.130:423
1.130:414
1.130:407
1.131:399
1.133:394
1.133:391
1.133:386
1.150:379
1.150:381
1.150:386
1.150:392
1.150:399
1.153:409
1.154:416
1.154:421
1.154:427
1.154:436
1.154:443
1.154:433
1.154:423
1.154:411
1.159:405
1.159:400
1.159:398
1.159:390
1.159:386
1.159:382
1.159:375
1.159:374
1.159:380
1.159:387
1.162:398
1.162:406
1.162:413
1.162:418
1.162:418
1.162:423
1.178:423
1.178:432
1.178:432
1.179:429
1.183:423
1.183:415
1.184:408
1.184:403
1.184:396
1.184:390
1.184:383
1.184:373
1.184:371
1.187:372
1.187:381
1.187:392
1.187:397
1.187:401
1.187:402
1.187:406
1.187:413
1.187:422
1.187:422
1.191:416
1.191:403
1.191:395
1.191:390
1.191:384
1.191:379
1.191:376
1.207:374
1.212:366
1.212:376
1.212:388
1.212:401
1.212:413
1.212:425
1.212:428
1.212:432
1.213:430
1.216:433
1.216:441
1.216:439
1.216:434
1.216:427
1.216:418
1.216:406
1.216:403
1.216:401
1.216:394
1.220:385
1.220:381
1.220:385
1.220:392
1.220:400
1.220:406
1.220:412
1.220:417
1.220:418
1.224:421
1.241:421
1.241:428
1.241:439
1.241:441
1.241:436
1.241:427
1.241:419
1.241:411
1.241:402
1.244:396
1.244:392
1.244:386
1.244:383
1.245:386
1.245:392
1.245:402
1.245:411
1.245:420
1.245:424
1.249:427
1.249:427
1.249:432
1.249:441
1.249:442
1.249:437
1.249:428
1.249:422
1.249:415
1.253:405
1.253:398
1.269:400
1.269:396
1.269:391
1.269:390
1.269:398
1.269:406
1.273:411
1.273:418
1.273:422
1.273:426
1.273:430
1.273:438
1.273:449
1.273:448
1.273:448
1.273:443
1.276:437
1.276:432
1.277:429
1.277:429
1.277:430
1.277:423
1.277:419
1.277:421
1.277:424
1.281:426
1.281:430
1.281:438
1.281:446
1.281:447
1.297:447
1.297:450
1.297:458
1.298:466
1.298:464
1.302:462
1.302:452
1.302:446
1.302:438
1.302:437
1.302:433
1.302:427
1.302:419
1.302:418
1.302:421
1.305:428
1.305:437
1.305:445
1.305:455
1.305:464
1.305:469
1.305:472
1.305:476
1.305:482
1.310:479
1.311:470
1.311:463
1.311:457
1.311:448
1.311:440
1.326:434
1.326:431
1.330:422
1.330:415
1.330:416
1.330:421
1.330:429
1.330:435
1.330:440
1.331:447
1.331:450
1.335:452
1.335:457
1.335:460
1.335:459
1.335:458
1.335:452
1.335:444
1.335:436
1.335:429
1.336:425
1.339:422
1.339:415
1.339:409
1.339:416
1.339:425
1.339:435
1.339:441
1.339:446
1.339:450
1.354:450
1.359:451
1.359:451
1.359:460
1.359:470
1.359:467
1.359:461
1.359:451
1.360:445
1.360:439
1.360:434
1.362:430
1.362:428
1.362:420
1.362:409
1.362:411
1.362:417
1.364:426
1.364:438
1.364:447
1.367:451
1.367:456
1.367:459
1.367:465
1.367:473
1.367:471
1.367:469
1.367:464
1.367:456
1.367:445
1.387:436
1.387:435
1.387:431
1.387:418
1.388:410
1.388:409
1.388:412
1.392:418
1.392:421
1.392:425
1.392:426
1.392:425
1.392:427
1.392:437
1.392:443
1.392:440
1.392:436
1.396:431
1.396:425
1.396:418
1.396:417
1.396:419
1.396:421
1.396:415
1.396:409
1.396:414
1.400:426
1.400:439
1.400:454
1.400:466
1.415:466
1.415:475
1.416:489
1.416:499
1.416:503
1.416:510
1.421:507
1.421:501
1.421:492
1.421:488
1.421:480
1.421:472
1.421:473
1.421:473
1.421:464
1.421:459
1.425:467
1.425:473
1.425:479
1.425:483
1.425:492
1.425:508
1.425:519
1.425:522
1.425:529
1.425:529
1.428:523
1.429:518
1.429:512
1.429:506
1.445:499
1.445:492
1.445:488
1.449:483
1.449:476
1.449:467
1.449:468
1.449:470
1.449:478
1.449:487
1.449:491
1.449:493
1.449:496
1.453:492
1.453:492
1.453:492
1.453:486
1.453:480
1.453:475
1.453:465
1.453:452
1.453:442
1.457:435
1.457:435
1.457:424
1.457:422
1.457:434
1.457:438
1.457:447
1.457:457
1.473:457
1.473:465
1.478:470
1.478:478
1.478:480
1.478:489
1.478:492
1.479:488
1.479:481
1.479:472
1.479:459
1.479:456
1.482:451
1.482:445
1.482:438
1.482:432
1.482:426
1.482:429
1.482:435
1.482:443
1.482:452
1.486:460
1.486:464
1.486:465
1.486:467
1.486:480
1.486:486
1.486:482
1.486:476
1.486:463
1.506:454
1.506:447
1.506:444
1.506:440
1.506:436
1.506:431
1.506:427
1.506:429
1.507:433
1.510:437
1.510:445
1.510:454
1.510:458
1.510:460
1.511:460
1.511:467
1.511:474
1.511:469
1.515:465
1.515:459
1.515:452
1.515:443
1.515:435
1.515:431
1.515:437
1.515:428
1.515:426
1.515:430
1.518:442
1.518:456
1.534:456
1.534:470
1.534:483
1.535:495
1.535:508
1.535:516
1.535:525
1.535:529
1.539:528
1.539:525
1.539:520
1.539:514
1.540:515
1.540:530
1.540:545
1.540:553
1.540:548
1.542:546
1.544:553
1.544:568
1.544:582
1.544:589
1.544:582
1.544:588
1.544:613
1.544:649
1.544:680
1.546:703
1.547:714
1.547:717
1.564:719
1.564:729
1.564:749
1.564:781
1.564:806
1.567:838
1.567:873
1.567:909
1.567:960
1.568:990
1.568:989
1.568:989
1.568:989
1.568:989
1.572:990
1.572:964
1.572:923
1.572:881
1.572:803
1.572:717
1.572:615
1.572:511
1.572:421
1.572:357
1.575:316
1.575:289
1.576:268
1.576:262
1.576:277
1.576:289
1.592:289
1.592:302
1.592:322
1.592:335
1.597:348
1.597:355
1.597:364
1.597:382
1.597:395
1.597:401
1.597:411
1.597:417
1.597:416
1.601:419
1.601:422
1.601:422
1.601:419
1.601:410
1.601:405
1.601:409
1.601:413
1.602:417
1.602:425
1.605:434
1.605:442
1.605:448
1.605:450
1.606:457
1.606:461
1.606:457
1.621:446
1.625:438
1.625:433
1.625:426
1.625:419
1.625:412
1.625:408
1.625:394
1.625:385
1.625:391
1.630:396
1.630:402
1.630:408
1.630:412
1.630:418
1.630:426
1.630:432
1.630:440
1.630:443
1.630:443
1.633:445
1.633:443
1.633:436
1.633:434
1.633:431
1.633:428
1.633:425
1.633:417
1.633:412
1.637:418
1.653:418
1.653:426
1.653:434
1.653:444
1.653:455
1.653:457
1.653:457
1.653:461
1.653:473
1.657:480
1.658:481
1.658:476
1.658:469
1.658:459
1.659:452
1.659:447
1.659:445
1.659:445
1.660:440
1.661:437
1.661:446
1.661:459
1.661:466
1.661:474
1.661:482
1.662:485
1.662:489
1.662:492
1.666:502
1.666:512
1.682:513
1.682:507
1.683:500
1.683:492
1.683:484
1.683:484
1.687:486
1.687:486
1.687:478
1.687:473
1.687:478
1.687:487
1.687:495
1.687:504
1.687:511
1.687:519
1.690:522
1.690:519
1.690:531
1.691:539
1.691:533
1.691:523
1.691:511
1.691:501
1.691:494
1.695:490
1.695:488
1.695:486
1.695:480
1.695:477
1.710:477
1.711:482
1.711:490
1.711:496
1.711:504
1.716:512
1.716:518
1.716:520
1.716:527
1.716:542
1.716:552
1.716:548
1.716:541
1.716:536
1.716:530
1.719:524
1.719:523
1.719:524
1.720:522
1.720:516
1.720:515
1.720:522
1.720:529
1.720:536
1.723:545
1.723:547
1.723:544
1.723:540
1.723:544
1.723:556
1.740:559
1.740:559
1.744:556
1.744:554
1.744:550
1.744:542
1.744:536
1.744:534
1.744:533
1.744:529
1.744:526
1.748:532
1.748:540
1.748:550
1.748:563
1.748:573
1.748:582
1.748:588
1.748:590
1.748:607
1.748:617
1.752:613
1.752:611
1.752:604
1.752:597
1.752:591
1.752:586
1.752:584
1.752:579
1.752:569
1.767:569
1.773:571
1.773:578
1.773:583
1.773:591
1.773:600
1.773:608
1.773:613
1.773:613
1.774:616
1.776:627
1.776:632
1.776:633
1.776:625
1.777:622
1.777:617
1.777:611
1.777:607
1.777:607
1.777:604
1.781:595
1.781:591
1.781:597
1.781:602
1.781:609
1.781:616
1.781:616
1.781:619
1.781:625
1.781:628
1.801:638
1.801:646
1.801:642
1.801:638
1.801:623
1.801:612
1.801:608
1.806:608
1.806:606
1.806:603
1.806:595
1.806:590
1.806:592
1.806:597
1.806:604
1.806:608
1.806:615
1.810:620
1.810:625
1.810:626
1.810:632
1.810:629
1.810:621
1.810:616
1.810:606
1.811:593
1.813:585
1.813:576
1.813:567
1.813:557
1.830:557
1.830:542
1.830:531
1.830:531
1.830:531
1.830:531
1.834:532
1.834:534
1.834:532
1.834:528
1.834:528
1.834:534
1.834:535
1.834:529
1.834:519
1.834:508
1.838:495
1.838:483
1.838:474
1.838:466
1.838:458
1.838:444
1.838:433
1.838:428
1.838:426
1.842:427
1.842:427
1.843:424
1.844:423
1.844:421
1.858:415
1.858:415
1.858:411
1.863:400
1.863:386
1.863:375
1.863:360
1.863:348
1.863:339
1.863:330
1.863:322
1.863:308
1.863:298
1.867:302
1.867:311
1.867:315
1.867:317
1.867:319
1.867:316
1.867:310
1.867:316
1.867:325
1.871:325
1.871:319
1.871:311
1.871:302
1.871:292
1.871:284
1.871:279
1.871:274
1.886:274
1.887:272
1.892:262
1.892:259
1.892:264
1.892:268
1.892:277
1.892:287
1.892:296
1.893:300
1.893:304
1.893:313
1.896:326
1.896:333
1.896:330
1.896:325
1.896:318
1.896:310
1.896:307
1.896:303
1.896:301
1.900:303
1.900:297
1.900:294
1.900:299
1.900:307
1.900:315
1.900:319
1.900:325
1.901:330
1.920:334
1.920:336
1.920:344
1.920:349
1.920:348
1.920:344
1.920:339
1.920:333
1.920:327
1.923:323
1.923:324
1.923:320
1.923:309
1.923:307
1.923:315
1.925:326
1.925:336
1.925:342
1.928:350
1.928:356
1.928:357
1.928:363
1.928:375
1.928:381
1.928:378
1.928:370
1.928:364
1.929:359
1.932:355
1.932:349
1.948:349
1.948:339
1.948:342
1.948:340
1.948:336
1.948:340
1.948:346
1.948:354
1.953:364
1.953:370
1.953:377
1.953:379
1.953:384
1.953:398
1.953:406
1.953:405
1.953:398
1.957:390
1.957:382
1.957:378
1.957:374
1.957:374
1.957:372
1.957:366
1.957:363
1.957:369
1.957:377
1.960:386
1.961:396
1.961:405
1.977:408
1.977:410
1.977:417
1.977:428
1.977:433
1.981:431
1.981:425
1.982:419
1.982:411
1.982:407
1.982:404
1.982:401
1.982:399
1.982:390
1.986:389
1.986:392
1.986:399
1.986:406
1.986:416
1.986:421
1.986:425
1.986:429
1.986:433
1.986:444
1.989:450
1.989:448
1.989:441
1.989:434
1.989:428
1.989:421
2.006:421
2.006:419
2.006:417
2.006:417
2.010:408
2.010:403
2.010:409
2.010:416
2.010:424
2.010:430
2.010:434
2.010:438
2.010:438
2.015:443
2.015:451
2.015:454
2.015:450
2.015:443
2.015:436
2.015:426
2.015:420
2.015:417
2.015:416
2.018:416
2.018:409
2.018:406
2.018:410
2.018:417
2.018:428
2.018:436
2.039:442
2.039:444
2.039:445
2.039:446
2.039:453
2.039:454
2.039:451
2.040:447
2.040:441
2.040:435
2.043:428
2.043:425
2.043:425
2.043:420
2.044:412
2.044:410
2.044:412
2.044:419
2.044:430
2.044:436
2.047:438
2.047:443
2.047:450
2.047:456
2.047:466
2.047:471
2.047:466
2.047:457
2.047:447
2.051:437
2.067:437
2.068:430
2.068:422
2.068:420
2.068:420
2.068:410
2.068:410
2.068:416
2.068:423
2.072:428
2.072:437
2.072:443
2.072:449
2.072:453
2.072:455
2.072:461
2.072:462
2.072:460
2.072:456
2.076:448
2.076:440
2.076:436
2.076:432
2.076:432
2.076:430
2.076:423
2.076:419
2.076:422
2.080:428
2.080:435
2.096:443
2.096:448
2.096:451
2.096:453
2.096:456
2.096:462
2.100:463
2.100:462
2.100:456
2.100:450
2.100:444
2.100:439
2.100:432
2.100:430
2.100:428
2.105:420
2.105:417
2.105:420
2.105:428
2.105:434
2.105:441
2.105:447
2.105:450
2.105:453
2.105:461
2.108:473
2.108:475
2.108:471
2.108:466
2.108:463
2.124:463
2.124:456
2.124:446
2.124:443
2.124:440
2.129:432
2.129:421
2.129:422
2.129:429
2.129:436
2.129:440
2.129:450
2.129:455
2.129:459
2.130:457
2.132:461
2.132:472
2.132:477
2.132:475
2.133:469
2.133:463
2.133:455
2.133:448
2.133:445
2.137:441
2.137:437
2.137:428
2.137:427
2.137:428
2.137:438
2.153:449
2.153:457
2.158:462
2.158:470
2.158:468
2.158:473
2.158:480
2.158:486
2.158:484
2.158:470
2.158:459
2.162:450
2.162:446
2.162:444
2.162:443
2.162:438
2.162:430
2.162:428
2.162:432
2.162:440
2.162:447
2.164:452
2.166:459
2.166:465
2.166:467
2.166:467
2.166:477
2.166:484
2.166:481
2.166:469
2.181:469
2.186:458
2.186:450
2.186:446
2.186:444
2.186:441
2.186:432
2.186:423
2.186:427
2.186:432
2.191:436
2.191:446
2.191:458
2.191:463
2.191:463
2.191:464
2.191:466
2.191:474
2.191:477
2.191:475
2.194:468
2.194:458
2.194:453
2.194:448
2.194:436
2.194:436
2.194:432
2.194:424
2.194:423
2.194:430
2.215:442
2.215:449
2.215:454
2.215:458
2.215:463
2.215:465
2.215:471
2.219:482
2.219:484
2.219:480
2.219:473
2.219:464
2.219:460
2.219:456
2.219:449
2.219:444
2.219:440
2.223:432
2.223:434
2.223:432
2.223:435
2.223:444
2.223:455
2.223:459
2.223:462
2.223:464
2.227:466
2.227:476
2.227:480
2.227:477
2.243:477
2.243:472
2.243:463
2.243:455
2.243:449
2.243:443
2.248:442
2.248:440
2.248:432
2.248:432
2.248:437
2.248:443
2.248:451
2.248:460
2.248:465
2.248:469
2.252:471
2.252:474
2.252:487
2.252:493
2.252:486
2.252:477
2.252:469
2.252:460
2.252:452
2.256:448
2.256:445
2.256:442
2.256:432
2.256:430
2.272:434
2.272:438
2.272:444
2.276:451
2.276:458
2.277:460
2.277:461
2.277:466
2.277:475
2.277:480
2.277:480
2.277:471
2.277:460
2.280:454
2.280:448
2.280:442
2.280:441
2.280:438
2.280:434
2.280:434
2.281:438
2.281:441
2.285:448
2.285:455
2.285:458
2.285:460
2.285:465
2.285:469
2.285:474
2.285:472
2.300:472
2.300:469
2.305:463
2.305:457
2.305:447
2.305:439
2.305:433
2.305:431
2.305:425
2.305:412
2.305:407
2.306:411
2.309:423
2.310:430
2.310:435
2.310:444
2.310:452
2.310:455
2.311:462
2.311:475
2.311:481
2.312:486
2.312:485
2.312:481
2.312:476
2.312:477
2.312:472
2.314:468
2.314:465
2.314:455
2.334:450
2.334:452
2.334:463
2.334:466
2.334:470
2.334:481
2.334:488
2.334:490
2.334:497
2.337:510
2.338:512
2.338:509
2.338:503
2.338:497
2.338:492
2.338:486
2.338:485
2.338:489
2.342:483
2.342:472
2.342:468
2.344:476
2.344:485
2.344:492
2.344:500
2.344:504
2.344:503
2.344:504
2.346:507
2.346:515
2.361:515
2.361:517
2.361:511
2.362:496
2.362:483
2.362:472
2.362:468
2.362:457
2.366:447
2.366:446
2.366:438
2.366:433
2.366:431
2.366:437
2.366:443
2.366:451
2.366:454
2.371:453
2.371:454
2.371:461
2.371:467
2.371:467
2.371:466
2.371:460
2.371:454
2.371:446
2.372:442
2.375:438
2.375:437
2.375:435
2.390:428
2.390:431
2.390:436
2.390:442
2.394:447
2.394:454
2.394:458
2.394:465
2.394:470
2.394:475
2.394:485
2.394:486
2.394:483
2.394:472
2.399:462
2.399:454
2.399:448
2.399:445
2.399:444
2.399:441
2.399:436
2.399:435
2.399:434
2.399:440
2.402:452
2.402:462
2.402:467
2.402:472
2.402:477
2.402:485
2.419:485
2.419:489
2.419:488
2.419:483
2.423:475
2.423:471
2.423:466
2.423:467
2.424:461
2.424:456
2.424:452
2.424:441
2.424:438
2.428:446
2.428:451
2.428:459
2.428:467
2.428:473
2.428:478
2.428:482
2.428:488
2.428:502
2.428:508
2.431:508
2.431:508
2.431:510
2.431:508
2.431:512
2.432:510
2.432:507
2.452:504
2.452:498
2.452:501
2.452:516
2.452:540
2.452:566
2.452:591
2.452:606
2.452:614
2.452:620
2.457:634
2.457:653
2.457:650
2.457:641
2.457:632
2.457:638
2.457:653
2.457:666
2.457:681
2.461:691
2.461:691
2.461:686
2.461:700
2.461:740
2.461:782
2.461:820
2.461:867
2.461:918
2.461:971
2.465:990
2.480:990
2.480:989
2.480:989
2.480:989
2.480:989
2.480:989
2.481:990
2.481:975
2.481:916
2.485:862
2.485:783
2.485:691
2.485:578
2.485:483
2.485:413
2.485:370
2.485:343
2.485:330
2.485:320
2.489:322
2.489:331
2.489:347
2.489:361
2.489:368
2.489:368
2.489:361
2.489:354
2.489:348
2.492:348
2.492:352
2.509:360
2.509:365
2.509:368
2.509:379
2.509:389
2.509:404
2.514:412
2.514:419
2.514:426
2.514:433
2.514:434
2.514:438
2.514:447
2.514:444
2.514:439
2.518:431
2.518:428
2.518:423
2.518:415
2.518:414
2.518:415
2.518:415
2.518:406
2.518:403
2.518:404
2.522:416
2.522:424
2.522:431
2.522:436
2.522:441
2.537:441
2.537:443
2.537:447
2.538:456
2.538:458
2.542:455
2.542:448
2.543:441
2.543:431
2.543:426
2.543:427
2.543:424
2.543:420
2.544:415
2.544:420
2.546:426
2.546:431
2.546:438
2.546:449
2.546:454
2.546:458
2.546:460
2.547:467
2.547:480
2.550:485
2.550:485
2.550:476
2.550:467
2.550:464
2.550:463
2.566:460
2.567:453
2.571:449
2.571:444
2.571:443
2.571:448
2.571:455
2.571:461
2.571:467
2.571:471
2.571:471
2.576:472
2.576:477
2.576:490
2.576:495
2.576:491
2.577:480
2.577:476
2.577:471
2.577:469
2.577:469
2.579:468
2.579:467
2.579:468
2.579:477
2.579:486
2.579:496
2.579:503
2.579:506
2.579:506
2.594:506
2.600:510
2.600:514
2.600:519
2.600:528
2.600:534
2.600:536
2.600:528
2.600:514
2.600:506
2.604:500
2.604:494
2.604:491
2.604:490
2.604:480
2.604:474
2.604:477
2.604:485
2.604:494
2.604:501
2.608:510
2.608:515
2.608:521
2.608:532
2.608:544
2.609:546
2.609:545
2.609:540
2.609:535
2.611:525
2.628:516
2.628:512
2.628:513
2.629:512
2.629:507
2.629:505
2.629:511
2.633:519
2.633:525
2.633:531
2.633:540
2.633:546
2.633:547
2.633:552
2.633:561
2.633:564
2.633:560
2.636:549
2.636:543
2.636:537
2.636:533
2.636:531
2.636:529
2.636:527
2.636:519
2.636:519
2.641:527
2.641:538
2.641:549
2.641:558
2.656:558
2.656:562
2.656:569
2.656:573
2.657:580
2.657:596
2.661:594
2.661:595
2.661:592
2.661:586
2.661:580
2.661:577
2.661:576
2.661:574
2.661:567
2.662:560
2.665:564
2.666:572
2.666:578
2.666:586
2.666:592
2.666:598
2.666:603
2.666:606
2.666:615
2.669:626
2.669:629
2.669:631
2.669:627
2.669:618
2.685:608
2.685:605
2.685:600
2.690:597
2.690:591
2.690:586
2.690:589
2.690:596
2.690:607
2.691:620
2.691:629
2.691:634
2.691:637
2.694:637
2.694:641
2.694:651
2.694:655
2.695:654
2.695:650
2.695:639
2.695:630
2.695:625
2.698:626
2.698:624
2.698:617
2.698:608
2.698:608
2.698:610
2.699:616
2.699:621
2.714:621
2.714:627
2.719:629
2.719:632
2.719:629
2.719:634
2.719:642
2.719:640
2.719:637
2.719:627
2.719:615
2.719:607
2.723:600
2.723:595
2.723:594
2.723:586
2.723:575
2.723:568
2.723:568
2.723:573
2.723:576
2.727:577
2.727:573
2.727:570
2.727:566
2.727:567
2.727:571
2.727:566
2.727:555
2.727:546
2.747:532
2.747:513
2.747:503
2.747:497
2.747:494
2.747:484
2.747:468
2.747:460
2.747:455
2.751:453
2.751:451
2.751:443
2.751:439
2.751:435
2.752:432
2.752:435
2.752:437
2.752:431
2.755:419
2.755:405
2.755:395
2.755:381
2.755:366
2.755:351
2.755:339
2.755:328
2.755:318
2.755:314
2.758:307
2.758:316
2.775:316
2.776:323
2.776:324
2.776:321
2.776:321
2.776:319
2.776:323
2.776:327
2.780:323
2.780:321
2.780:319
2.780:315
2.780:310
2.780:302
2.780:292
2.780:284
2.780:277
2.784:266
2.784:267
2.784:275
2.784:284
2.784:289
2.784:293
2.784:299
2.784:297
2.784:299
2.784:307
2.788:319
2.788:320
2.788:319
2.804:310
2.805:301
2.805:296
2.805:290
2.808:286
2.809:281
2.809:274
2.809:270
2.809:273
2.809:277
2.810:283
2.810:288
2.810:298
2.810:305
2.812:309
2.812:313
2.812:323
2.812:330
2.813:327
2.813:321
2.813:319
2.814:313
2.814:310
2.817:306
2.817:310
2.817:314
2.817:311
2.817:306
2.817:309
2.817:316
2.832:316
2.832:328
2.832:335
2.832:343
2.837:350
2.837:356
2.837:354
2.837:359
2.837:368
2.837:368
2.837:364
2.837:356
2.837:349
2.843:341
2.843:334
2.843:334
2.843:331
2.843:324
2.843:318
2.843:324
2.843:333
2.843:348
2.844:357
2.845:369
2.845:374
2.845:377
2.845:380
2.845:387
2.845:395
2.845:399
2.865:398
2.865:392
2.865:384
2.865:377
2.865:371
2.867:371
2.867:373
2.867:367
2.867:360
2.867:362
2.870:363
2.870:367
2.870:375
2.870:382
2.870:391
2.870:400
2.870:405
2.870:418
2.870:431
2.874:427
2.874:416
2.874:406
2.874:402
2.875:388
2.875:387
2.875:389
2.875:393
2.875:390
2.875:388
2.877:393
2.894:393
2.894:400
2.894:405
2.894:409
2.894:414
2.894:416
2.894:416
2.894:416
2.895:427
2.899:436
2.899:431
2.899:425
2.899:418
2.899:406
2.899:398
2.899:391
2.899:393
2.899:392
2.899:387
2.903:379
2.903:384
2.903:387
2.903:393
2.903:401
2.903:408
2.903:416
2.903:430
2.903:437
2.907:450
2.907:460
2.923:460
2.923:453
2.923:447
2.923:437
2.923:424
2.923:419
2.927:420
2.927:422
2.927:416
2.927:406
2.927:400
2.927:399
2.927:406
2.927:413
2.927:419
2.932:424
2.932:429
2.932:429
2.932:434
2.932:444
2.932:449
2.932:451
2.932:441
2.932:436
2.932:432
2.935:430
2.935:431
2.935:431
2.935:427
2.935:418
2.951:418
2.951:417
2.952:418
2.952:423
2.952:428
2.956:429
2.956:430
2.956:430
2.956:425
2.956:437
2.956:447
2.956:445
2.956:435
2.956:423
2.960:413
2.960:404
2.960:402
2.960:399
2.960:397
2.960:398
2.960:401
2.960:404
2.960:405
2.960:414
2.964:421
2.964:429
2.964:436
2.964:444
2.964:446
2.964:453
2.980:458
2.980:457
2.984:452
2.984:443
2.984:433
2.984:422
2.984:413
2.984:404
2.984:403
2.984:392
2.984:386
2.989:385
2.989:388
2.989:394
2.989:400
2.989:408
2.989:412
2.989:414
2.989:415
2.989:419
2.989:426
2.993:430
2.993:430
2.993:427
2.993:418
2.993:414
2.993:409
2.993:410
2.993:404
2.993:395
3.009:395
3.014:390
3.014:391
3.014:396
3.014:407
3.014:415
3.014:423
3.014:427
3.014:425
3.014:422
3.018:426
3.018:433
3.018:433
3.018:430
3.018:418
3.018:406
3.018:402
3.018:395
3.018:390
3.018:389
3.022:387
3.022:379
3.022:379
3.022:384
3.022:387
3.022:393
3.022:395
3.022:397
3.022:402
3.025:408
3.041:416
3.041:425
3.041:421
3.042:417
3.042:406
3.042:397
3.042:390
3.046:384
3.046:383
3.046:382
3.046:375
3.046:367
3.046:367
3.046:368
3.046:378
3.046:385
3.046:389
3.049:393
3.049:394
3.049:395
3.049:404
3.049:413
3.049:412
3.049:403
3.050:396
3.050:395
3.054:392
3.054:385
3.054:380
3.054:378
3.070:378
3.070:371
3.070:368
3.070:371
3.070:376
3.070:384
3.075:397
3.076:403
3.076:410
3.076:415
3.076:417
3.076:418
3.076:420
3.076:419
3.076:411
3.076:400
3.079:388
3.079:380
3.079:378
3.079:377
3.079:376
3.079:370
3.079:365
3.079:370
3.079:375
3.083:386
3.083:396
3.083:404
3.083:412
3.083:415
3.099:417
3.099:425
3.099:429
3.103:417
3.103:407
3.103:391
3.103:385
3.103:378
3.103:377
3.103:373
3.103:372
3.103:369
3.103:359
3.108:356
3.108:360
3.108:372
3.108:381
3.108:387
3.108:392
3.108:394
3.108:398
3.108:406
3.111:414
3.111:410
3.111:408
3.111:399
3.111:392
3.111:380
3.111:368
3.111:362
3.128:362
3.128:360
3.132:355
3.132:348
3.132:347
3.132:357
3.132:374
3.132:389
3.132:397
3.132:398
3.132:402
3.132:409
3.135:420
3.135:432
3.136:428
3.136:420
3.136:417
3.136:413
3.136:410
3.136:407
3.136:411
3.140:411
3.140:405
3.140:400
3.140:399
3.140:401
3.140:406
3.140:406
3.140:411
3.140:414
3.160:412
3.160:415
3.161:429
3.161:443
3.161:443
3.161:443
3.161:439
3.161:435
3.165:433
3.165:428
3.165:429
3.165:427
3.165:419
3.165:415
3.165:425
3.165:434
3.165:438
3.165:446
3.169:451
3.169:450
3.169:453
3.169:451
3.169:449
3.169:451
3.169:443
3.169:434
3.169:425
3.169:416
3.172:411
3.172:400
3.190:400
3.190:397
3.190:399
3.190:396
3.190:392
3.190:391
3.190:397
3.190:408
3.194:419
3.194:427
3.194:433
3.194:435
3.194:438
3.194:441
3.194:447
3.194:442
3.194:434
3.198:432
3.198:426
3.198:414
3.198:409
3.198:401
3.198:394
3.198:387
3.198:384
3.198:386
3.198:384
3.201:388
3.201:400
3.201:402
3.218:405
3.218:406
3.218:413
3.218:422
3.222:432
3.222:432
3.222:424
3.222:421
3.222:416
3.222:414
3.222:414
3.222:414
3.222:417
3.222:411
3.226:403
3.227:406
3.227:412
3.227:419
3.228:427
3.228:435
3.228:440
3.228:438
3.228:438
3.230:445
3.230:456
3.230:457
3.230:448
3.230:444
3.230:438
3.230:431
3.246:431
3.246:429
3.246:424
3.251:421
3.251:421
3.251:421
3.251:428
3.251:438
3.251:451
3.251:457
3.251:458
3.251:459
3.251:461
3.255:464
3.255:475
3.255:484
3.255:485
3.256:483
3.256:480
3.256:479
3.256:482
3.256:483
3.256:482
3.259:479
3.259:473
3.259:466
3.259:469
3.259:480
3.259:504
3.259:529
3.280:547
3.280:558
3.280:570
3.280:577
3.280:594
3.280:609
3.280:608
3.280:599
3.280:589
3.280:589
3.284:599
3.284:613
3.284:634
3.284:648
3.284:654
3.284:657
3.284:661
3.284:669
3.285:692
3.288:720
3.288:741
3.288:772
3.288:804
3.288:832
3.288:862
3.288:882
3.288:884
3.288:874
3.288:844
3.292:800
3.308:800
3.308:763
3.308:723
3.309:678
3.309:638
3.309:587
3.309:526
3.309:476
3.309:437
3.312:405
3.312:388
3.312:388
3.312:395
3.312:405
3.312:414
3.312:425
3.312:428
3.312:426
3.317:426
3.317:418
3.317:406
3.317:399
3.317:393
3.317:392
3.317:389
3.317:382
3.317:377
3.317:386
3.320:404
3.320:418
3.336:431
3.336:443
3.336:451
3.336:456
3.336:459
3.336:466
3.340:472
3.340:468
3.340:461
3.341:455
3.341:452
3.341:448
3.341:444
3.341:443
3.341:441
3.345:433
3.345:427
3.345:429
3.346:434
3.346:443
3.346:453
3.346:458
3.346:464
3.346:465
3.346:467
3.349:473
3.349:478
3.349:475
3.349:469
3.349:459
3.365:459
3.365:452
3.365:446
3.365:441
3.365:439
3.370:440
3.370:438
3.370:437
3.370:440
3.370:445
3.370:458
3.370:470
3.370:479
3.370:486
3.374:490
3.374:489
3.374:500
3.374:510
3.374:508
3.374:503
3.374:494
3.374:486
3.374:483
3.374:478
3.378:478
3.378:477
3.378:469
3.378:465
3.378:466
3.378:473
3.394:479
3.394:486
3.398:491
3.398:494
3.398:495
3.398:495
3.398:506
3.398:516
3.398:516
3.398:511
3.398:504
3.403:500
3.403:494
3.403:489
3.403:483
3.403:482
3.403:475
3.403:468
3.403:470
3.403:477
3.403:486
3.406:495
3.406:503
3.406:503
3.406:504
3.406:508
3.406:517
3.406:524
3.406:522
3.406:519
3.422:519
3.427:517
3.427:511
3.428:501
3.428:497
3.428:496
3.428:495
3.428:489
3.428:484
3.428:489
3.431:494
3.431:502
3.431:511
3.431:520
3.431:523
3.431:528
3.431:530
3.431:539
3.431:545
3.431:541
3.435:536
3.435:529
3.435:523
3.435:519
3.435:515
3.435:512
3.435:513
3.436:506
3.436:502
3.439:504
3.455:508
3.455:516
3.455:525
3.455:531
3.455:540
3.455:542
3.455:546
3.459:555
3.460:561
3.460:558
3.460:552
3.460:546
3.460:543
3.461:538
3.461:532
3.461:532
3.461:531
3.463:526
3.463:524
3.463:528
3.463:533
3.463:540
3.463:547
3.463:555
3.463:560
3.463:563
3.467:567
3.467:576
3.467:583
3.467:582
3.484:582
3.484:574
3.484:566
3.484:563
3.484:561
3.484:559
3.489:559
3.489:562
3.489:563
3.489:565
3.489:573
3.489:582
3.489:592
3.489:601
3.489:607
3.489:612
3.493:617
3.493:620
3.493:630
3.493:629
3.493:621
3.493:619
3.494:614
3.494:607
3.494:600
3.496:596
3.496:591
3.496:583
3.496:574
3.496:569
3.513:574
3.513:586
3.513:599
3.517:612
3.517:621
3.517:628
3.517:632
3.517:637
3.517:651
3.517:659
3.518:660
3.518:655
3.521:650
3.521:640
3.521:632
3.521:626
3.521:621
3.521:618
3.521:607
3.522:600
3.522:606
3.522:612
3.525:621
3.526:625
3.526:630
3.526:634
3.526:638
3.526:645
3.526:658
3.526:661
3.541:661
3.541:658
3.546:652
3.546:642
3.546:631
3.546:624
3.546:618
3.546:613
3.546:608
3.546:595
3.546:589
3.547:587
3.550:590
3.550:594
3.550:596
3.550:596
3.550:595
3.550:591
3.550:588
3.550:593
3.550:596
3.554:588
3.554:576
3.554:567
3.554:552
3.554:538
3.554:527
3.554:516
3.554:506
3.554:489
3.574:477
3.575:470
3.575:467
3.575:468
3.575:470
3.575:466
3.575:462
3.576:455
3.578:448
3.578:447
3.578:443
3.578:429
3.578:414
3.579:401
3.579:391
3.579:381
3.579:370
3.579:364
3.582:365
3.582:360
3.582:352
3.582:356
3.582:364
3.582:372
3.582:374
3.583:374
3.583:369
3.587:362
3.587:356
3.587:353
3.602:353
3.602:353
3.602:347
3.602:335
3.602:323
3.602:310
3.602:300
3.602:295
3.607:292
3.607:289
3.607:278
3.607:271
3.607:270
3.607:276
3.607:283
3.607:290
3.607:298
3.611:307
3.611:315
3.611:319
3.612:327
3.612:332
3.612:332
3.612:329
3.612:323
3.612:318
3.613:313
3.614:307
3.614:306
3.614:305
3.632:302
3.632:300
3.632:305
3.632:309
3.636:313
3.636:325
3.636:332
3.636:337
3.636:340
3.636:346
3.636:357
3.636:357
3.636:349
3.636:338
3.640:330
3.640:321
3.640:314
3.640:310
3.640:308
3.640:309
3.640:303
3.640:304
3.640:312
3.643:319
3.644:329
3.644:336
3.644:346
3.644:356
3.644:364
3.644:372
3.660:372
3.660:386
3.660:390
3.664:382
3.664:373
3.665:369
3.665:367
3.665:362
3.665:356
3.665:354
3.665:356
3.665:350
3.665:349
3.669:353
3.669:362
3.669:372
3.669:385
3.669:398
3.669:404
3.669:410
3.669:417
3.669:431
3.669:436
3.672:437
3.673:432
3.673:426
3.673:418
3.673:410
3.673:403
3.673:396
3.692:393
3.693:386
3.693:384
3.693:388
3.693:396
3.694:405
3.694:415
3.694:423
3.694:432
3.694:436
3.697:436
3.697:446
3.697:454
3.697:453
3.697:450
3.697:447
3.697:441
3.697:437
3.697:438
3.701:438
3.701:437
3.701:432
3.701:427
3.701:427
3.701:435
3.701:441
3.701:446
3.701:448
3.701:453
3.705:458
3.721:458
3.721:465
3.721:476
3.721:473
3.721:467
3.722:453
3.722:440
3.722:435
3.722:430
3.725:429
3.725:428
3.725:426
3.726:416
3.726:421
3.726:433
3.726:448
3.726:461
3.726:468
3.729:471
3.729:475
3.730:481
3.730:483
3.730:491
3.730:494
3.730:487
3.730:477
3.730:466
3.730:458
3.734:451
3.734:447
3.750:443
3.750:440
3.750:431
3.750:422
3.750:418
3.750:420
3.754:428
3.754:432
3.754:441
3.754:450
3.754:457
3.755:460
3.755:473
3.755:478
3.755:480
3.759:481
3.759:479
3.759:473
3.759:467
3.759:460
3.759:460
3.759:453
3.759:442
3.760:436
3.760:438
3.763:445
3.763:452
3.763:457
3.763:460
3.763:461
3.778:461
3.778:459
3.778:463
3.778:471
3.778:476
3.783:479
3.783:478
3.783:476
3.783:471
3.783:460
3.783:450
3.783:444
3.783:438
3.783:429
3.787:427
3.787:435
3.787:440
3.787:444
3.787:456
3.787:462
3.787:467
3.787:470
3.787:471
3.787:484
3.791:491
3.792:488
3.792:480
3.792:478
3.792:473
3.792:464
3.808:455
3.808:448
3.812:447
3.812:439
3.812:436
3.812:439
3.812:445
3.812:453
3.812:458
3.813:464
3.813:470
3.816:473
3.816:479
3.816:489
3.816:489
3.816:480
3.816:472
3.817:463
3.817:452
3.817:444
3.817:435
3.820:433
3.820:435
3.820:431
3.820:432
3.820:437
3.820:445
3.820:455
3.821:465
3.821:474
3.836:474
3.840:478
3.841:478
3.841:483
3.841:494
3.841:496
3.841:492
3.841:484
3.842:473
3.842:464
3.845:455
3.845:447
3.845:443
3.845:439
3.845:427
3.845:429
3.846:432
3.846:438
3.846:444
3.846:447
3.849:447
3.849:448
3.849:454
3.849:458
3.849:467
3.849:471
3.849:467
3.849:459
3.849:454
3.853:449
3.868:447
3.868:448
3.868:450
3.868:449
3.868:441
3.868:438
3.869:439
3.874:448
3.874:459
3.874:469
3.874:474
3.874:479
3.874:480
3.874:481
3.874:489
3.874:489
3.874:485
3.877:479
3.877:474
3.877:466
3.877:459
3.877:453
3.877:452
3.877:459
3.878:455
3.878:452
3.881:449
3.881:454
3.881:463
3.881:476
3.898:476
3.898:485
3.898:487
3.898:488
3.898:492
3.898:504
3.902:509
3.902:504
3.902:496
3.902:488
3.902:482
3.902:480
3.902:478
3.903:474
3.903:469
3.903:455
3.905:448
3.905:450
3.905:453
3.905:456
3.905:464
3.906:470
3.906:474
3.906:474
3.906:479
3.909:489
3.909:491
3.910:487
3.910:482
3.910:473
3.926:467
3.927:465
3.927:466
3.931:462
3.931:461
3.931:451
3.931:450
3.931:450
3.931:458
3.931:467
3.931:473
3.931:472
3.935:473
3.935:472
3.935:471
3.935:479
3.935:479
3.935:476
3.935:463
3.935:455
3.935:448
3.935:446
3.939:444
3.939:447
3.939:450
3.939:450
3.939:455
3.939:466
3.939:483
3.939:494
3.955:494
3.955:504
3.960:514
3.960:517
3.960:515
3.960:515
3.960:522
3.961:525
3.961:519
3.961:510
3.961:497
3.961:484
3.963:477
3.963:471
3.963:467
3.963:467
3.964:464
3.964:464
3.964:469
3.964:477
3.964:483
3.968:499
3.968:515
3.968:521
3.968:523
3.968:527
3.968:540
3.968:547
3.968:548
3.968:541
3.988:533
3.988:525
3.988:520
3.988:516
3.988:514
3.988:512
3.988:500
3.988:494
3.992:493
3.992:494
3.992:501
3.992:506
3.992:507
3.992:505
3.992:499
3.992:496
3.992:503
3.994:506
3.996:501
3.996:496
3.996:489
3.996:485
3.996:479
3.996:472
3.996:471
3.996:468
3.996:458
4.000:454
4.000:456
4.000:462
4.016:462
4.016:472
4.016:479
4.016:485
4.016:493
4.016:496
4.016:501
4.021:515
4.021:515
4.021:516
4.021:509
4.021:498
4.021:489
4.021:482
4.021:474
4.021:467
4.021:461
4.024:451
4.025:444
4.025:447
4.025:453
4.025:465
4.025:484
4.025:490
4.025:494
4.025:502
4.025:515
4.028:526
4.028:529
4.028:524
4.045:517
4.045:507
4.045:497
4.045:492
4.049:487
4.049:486
4.049:480
4.049:470
4.050:472
4.050:475
4.050:479
4.050:487
4.050:492
4.050:495
4.053:497
4.053:499
4.053:503
4.053:512
4.053:511
4.054:508
4.054:502
4.054:499
4.054:492
4.057:486
4.058:483
4.058:481
4.058:481
4.058:478
4.058:485
4.058:498
4.074:498
4.074:519
4.074:539
4.078:558
4.078:570
4.078:575
4.078:579
4.078:586
4.078:594
4.078:601
4.078:611
4.078:615
4.078:613
4.082:608
4.082:608
4.082:597
4.082:594
4.082:591
4.082:583
4.082:579
4.082:580
4.082:598
4.086:630
4.086:662
4.086:682
4.086:699
4.086:705
4.086:708
4.086:720
4.086:741
4.107:764
4.107:784
4.108:817
4.108:852
4.108:879
4.108:918
4.108:953
4.109:972
4.109:987
4.109:990
4.110:990
4.110:990
4.111:982
4.111:960
4.111:928
4.111:875
4.111:802
4.111:728
4.111:650
4.115:571
4.115:509
4.115:463
4.115:422
4.115:386
4.115:361
4.115:352
4.115:359
4.115:361
4.115:353
4.119:351
4.136:351
4.136:358
4.136:371
4.136:387
4.136:404
4.136:427
4.136:447
4.136:465
4.136:482
4.140:497
4.140:503
4.140:503
4.140:493
4.140:482
4.140:470
4.140:460
4.140:450
4.140:451
4.143:452
4.143:443
4.143:442
4.143:448
4.143:461
4.144:470
4.144:476
4.144:480
4.144:483
4.144:485
4.147:497
4.147:510
4.164:510
4.164:503
4.164:491
4.164:476
4.164:462
4.164:451
4.167:441
4.167:439
4.167:436
4.168:430
4.168:434
4.168:449
4.168:465
4.168:478
4.168:493
4.172:504
4.172:513
4.172:520
4.172:532
4.172:550
4.172:554
4.172:552
4.172:541
4.172:531
4.172:521
4.176:514
4.176:509
4.176:504
4.176:495
4.176:486
4.192:486
4.192:487
4.193:491
4.193:498
4.193:507
4.196:512
4.196:519
4.196:525
4.196:530
4.196:537
4.196:551
4.196:553
4.196:551
4.196:547
4.201:540
4.201:531
4.201:526
4.201:523
4.201:518
4.201:512
4.201:501
4.201:501
4.201:512
4.201:526
4.205:542
4.205:547
4.205:551
4.205:564
4.205:570
4.205:578
4.221:587
4.221:590
4.225:585
4.225:578
4.225:571
4.225:561
4.225:554
4.225:550
4.225:548
4.226:539
4.226:526
4.230:522
4.230:527
4.230:535
4.230:541
4.230:553
4.230:559
4.230:566
4.230:572
4.230:580
4.230:593
4.233:596
4.233:593
4.233:587
4.234:579
4.234:567
4.234:558
4.234:555
4.234:554
4.234:549
4.249:549
4.254:537
4.254:536
4.254:541
4.254:551
4.254:562
4.254:570
4.254:577
4.254:582
4.254:588
4.258:596
4.258:608
4.258:611
4.258:610
4.258:602
4.258:594
4.258:584
4.258:577
4.258:573
4.258:570
4.262:564
4.262:556
4.262:558
4.262:563
4.262:573
4.262:582
4.262:591
4.262:599
4.262:603
4.266:608
4.282:614
4.282:625
4.282:626
4.282:623
4.282:614
4.282:608
4.282:598
4.287:594
4.287:592
4.287:590
4.287:584
4.287:573
4.287:574
4.287:580
4.287:591
4.287:601
4.291:612
4.291:620
4.292:629
4.292:636
4.292:645
4.292:657
4.292:661
4.292:660
4.292:654
4.292:647
4.295:639
4.295:630
4.295:624
4.295:622
4.311:622
4.311:617
4.311:611
4.311:610
4.311:619
4.311:629
4.315:643
4.315:653
4.315:659
4.315:663
4.315:665
4.315:672
4.315:684
4.315:684
4.315:683
4.315:675
4.319:668
4.319:660
4.319:653
4.319:650
4.319:646
4.319:641
4.319:632
4.319:632
4.319:639
4.324:651
4.325:659
4.325:662
4.325:668
4.325:672
4.339:677
4.339:685
4.339:694
4.344:694
4.344:687
4.344:676
4.344:663
4.344:652
4.344:644
4.344:638
4.344:633
4.344:625
4.347:613
4.348:611
4.348:616
4.348:625
4.348:633
4.348:641
4.348:645
4.348:644
4.348:639
4.348:641
4.352:649
4.352:649
4.352:641
4.352:626
4.352:611
4.352:597
4.352:581
4.352:569
4.368:569
4.368:564
4.373:559
4.373:545
4.373:537
4.373:534
4.373:538
4.374:540
4.374:544
4.374:543
4.374:541
4.377:540
4.377:544
4.377:545
4.377:537
4.377:525
4.377:507
4.377:491
4.377:475
4.377:462
4.377:448
4.381:440
4.381:428
4.381:412
4.381:406
4.381:403
4.381:405
4.381:408
4.381:410
4.381:411
4.401:412
4.401:408
4.401:410
4.402:415
4.402:411
4.402:402
4.402:390
4.402:377
4.406:364
4.406:353
4.406:346
4.406:339
4.406:332
4.406:321
4.406:319
4.406:323
4.406:328
4.406:338
4.410:347
4.410:350
4.410:352
4.410:354
4.410:359
4.410:368
4.410:367
4.410:361
4.410:352
4.414:343
4.414:334
4.414:324
4.430:324
4.430:321
4.430:316
4.430:309
4.430:302
4.430:300
4.430:305
4.434:314
4.434:324
4.434:331
4.434:336
4.434:343
4.434:348
4.434:357
4.434:367
4.434:369
4.434:363
4.438:353
4.438:345
4.438:335
4.438:331
4.438:327
4.438:325
4.438:319
4.438:313
4.438:315
4.442:326
4.442:338
4.442:347
4.442:356
4.458:363
4.458:369
4.458:371
4.458:381
4.463:390
4.463:389
4.463:385
4.463:378
4.463:370
4.463:364
4.463:360
4.463:355
4.463:353
4.463:345
4.467:336
4.467:338
4.467:342
4.467:352
4.467:361
4.467:372
4.467:383
4.467:389
4.467:393
4.470:400
4.470:410
4.471:410
4.471:407
4.471:402
4.471:396
4.471:389
4.487:389
4.487:383
4.487:381
4.491:380
4.492:374
4.492:366
4.492:369
4.492:376
4.492:387
4.492:399
4.492:406
4.492:410
4.492:414
4.496:415
4.496:423
4.496:433
4.496:431
4.496:425
4.496:417
4.496:410
4.496:404
4.496:399
4.500:396
4.500:397
4.500:391
4.500:382
4.500:385
4.500:391
4.500:401
4.500:408
4.520:418
4.520:427
4.520:434
4.520:438
4.520:447
4.520:455
4.520:456
4.520:453
4.520:444
4.520:437
4.524:430
4.524:425
4.524:419
4.524:418
4.524:408
4.525:400
4.525:401
4.525:407
4.525:416
4.529:425
4.529:434
4.529:441
4.529:448
4.529:452
4.529:463
4.529:470
4.529:468
4.529:461
4.529:453
4.532:447
4.548:447
4.548:437
4.549:433
4.549:432
4.549:429
4.549:421
4.549:413
4.549:414
4.549:424
4.552:433
4.552:439
4.552:445
4.552:452
4.552:457
4.552:460
4.552:471
4.554:477
4.554:472
4.557:466
4.557:457
4.557:448
4.557:442
4.557:436
4.557:431
4.557:431
4.557:422
4.557:415
4.557:419
4.561:427
4.561:435
4.577:443
4.577:452
4.577:459
4.577:462
4.577:462
4.577:472
4.581:481
4.581:481
4.581:472
4.581:460
4.581:452
4.581:442
4.582:434
4.582:429
4.582:428
4.586:421
4.586:416
4.586:416
4.586:420
4.586:431
4.586:442
4.586:452
4.586:459
4.586:463
4.586:467
4.589:475
4.589:484
4.589:483
4.590:477
4.590:466
4.606:466
4.606:458
4.606:445
4.606:442
4.606:442
4.610:440
4.610:429
4.610:419
4.610:422
4.610:427
4.610:435
4.611:443
4.611:453
4.611:461
4.615:466
4.615:469
4.615:476
4.615:484
4.615:483
4.615:476
4.615:467
4.615:457
4.615:448
4.615:445
4.618:439
4.618:437
4.618:428
4.618:422
4.619:425
4.619:432
4.635:439
4.639:449
4.639:458
4.639:463
4.639:469
4.639:470
4.639:477
4.639:486
4.639:488
4.639:481
4.639:472
4.642:462
4.642:454
4.642:446
4.642:442
4.642:439
4.642:435
4.644:429
4.644:433
4.644:437
4.644:444
4.647:451
4.647:458
4.647:465
4.647:470
4.647:476
4.647:486
4.647:492
4.647:493
4.647:489
4.663:489
4.667:480
4.667:471
4.667:461
4.668:452
4.668:448
4.668:447
4.668:440
4.668:431
4.668:433
4.672:437
4.672:446
4.672:454
4.672:462
4.672:466
4.672:466
4.672:473
4.672:487
4.672:497
4.672:496
4.676:485
4.676:475
4.676:466
4.676:456
4.676:449
4.676:446
4.676:444
4.676:438
4.676:431
4.680:432
4.696:437
4.696:445
4.696:456
4.696:466
4.696:475
4.696:477
4.696:483
4.701:493
4.701:500
4.701:498
4.701:492
4.701:484
4.701:476
4.701:466
4.701:459
4.701:455
4.704:452
4.704:443
4.704:435
4.704:435
4.704:441
4.704:450
4.704:461
4.704:468
4.704:475
4.704:477
4.709:480
4.709:491
4.709:499
4.709:494
4.725:494
4.725:487
4.725:477
4.725:468
4.725:460
4.725:454
4.729:450
4.729:449
4.729:442
4.729:434
4.729:436
4.729:441
4.729:451
4.729:460
4.729:469
4.729:472
4.732:474
4.732:477
4.732:485
4.732:492
4.732:492
4.732:485
4.732:476
4.732:465
4.732:451
4.737:444
4.737:443
4.737:443
4.737:434
4.737:426
4.753:428
4.753:433
4.753:443
4.757:451
4.757:457
4.757:464
4.757:465
4.757:463
4.757:472
4.757:481
4.757:479
4.757:474
4.762:466
4.762:460
4.762:456
4.762:454
4.762:451
4.762:452
4.762:452
4.762:451
4.762:455
4.762:462
4.766:472
4.766:482
4.766:490
4.766:495
4.766:496
4.766:495
4.766:501
4.766:509
4.782:509
4.782:508
4.787:503
4.787:495
4.787:489
4.787:484
4.787:482
4.787:485
4.787:481
4.787:474
4.787:465
4.790:469
4.791:477
4.791:488
4.791:497
4.791:506
4.791:514
4.791:518
4.791:521
4.791:529
4.791:537
4.795:535
4.795:527
4.795:518
4.795:509
4.795:500
4.796:492
4.796:486
4.796:480
4.796:469
4.815:459
4.815:456
4.815:457
4.815:464
4.815:471
4.815:476
4.815:479
4.815:481
4.819:484
4.819:491
4.819:499
4.819:496
4.819:488
4.819:483
4.819:473
4.819:464
4.819:454
4.819:450
4.823:447
4.824:437
4.824:426
4.824:430
4.824:437
4.824:446
4.824:456
4.824:466
4.824:473
4.827:477
4.827:479
4.827:487
4.844:487
4.844:497
4.844:494
4.844:487
4.844:476
4.844:467
4.844:460
4.848:455
4.848:450
4.848:448
4.848:442
4.848:435
4.848:439
4.848:445
4.848:454
4.848:463
4.848:470
4.852:476
4.852:479
4.852:481
4.852:491
4.852:501
4.852:501
4.852:496
4.852:487
4.852:477
4.856:467
4.856:462
4.856:459
4.856:457
4.872:448
4.872:441
4.872:445
4.872:451
4.877:459
4.877:469
4.877:479
4.877:486
4.877:490
4.877:494
4.877:502
4.877:509
4.877:508
4.877:503
4.880:497
4.881:488
4.881:480
4.881:477
4.881:479
4.881:481
4.881:482
4.881:482
4.881:492
4.885:503
4.885:518
4.885:529
4.885:541
4.885:553
4.885:567
4.885:585
4.900:585
4.900:608
4.900:621
4.905:620
4.905:611
4.905:598
4.906:587
4.906:579
4.906:572
4.906:568
4.906:565
4.906:567
4.906:568
4.909:581
4.909:594
4.909:599
4.909:606
4.909:608
4.909:618
4.909:640
4.909:667
4.909:721
4.914:778
4.914:822
4.914:869
4.914:924
4.914:969
4.914:989
4.914:989
4.914:989
4.934:989
4.934:989
4.934:989
4.934:989
4.934:989
4.934:977
4.934:898
4.934:804
4.934:713
4.934:622
4.938:552
4.938:501
4.938:456
4.938:409
4.938:372
4.938:351
4.938:340
4.938:333
4.938:327
4.942:323
4.942:325
4.942:324
4.942:330
4.942:349
4.942:373
4.942:398
4.942:417
4.942:431
4.942:443
4.945:447
4.962:447
4.962:451
4.963:465
4.963:475
4.963:473
4.963:469
4.963:460
4.963:450
4.963:440
4.965:431
4.965:424
4.965:422
4.965:411
4.967:403
4.967:406
4.967:412
4.967:420
4.967:430
4.971:436
4.971:442
4.971:447
4.971:453
4.971:465
4.971:475
4.971:475
4.971:470
4.971:461
4.971:453
4.974:447
4.974:443
4.991:440
4.991:438
4.991:430
4.991:423
4.991:427
4.995:434
4.995:443
4.995:452
4.995:461
4.995:468
4.995:472
4.995:476
4.996:487
4.996:495
4.996:493
4.999:487
4.999:479
4.999:471
4.999:464
4.999:458
4.999:456
5.000:453
5.000:444
5.000:440
5.000:443
5.002:450
5.002:460
5.002:469
5.002:477
5.002:482
5.020:482
5.020:485
5.020:489
5.020:501
5.020:512
5.024:511
5.024:505
5.024:497
5.024:486
5.024:478
5.024:473
5.024:470
5.024:469
5.025:462
5.028:456
5.028:460
5.028:468
5.028:477
5.028:488
5.028:498
5.028:505
5.028:508
5.028:511
5.029:521
5.032:527
5.032:527
5.032:519
5.032:511
5.032:503
5.032:496
5.048:491
5.052:488
5.052:485
5.052:478
5.052:471
5.052:476
5.052:486
5.052:496
5.052:506
5.052:513
5.052:517
5.056:521
5.057:523
5.057:533
5.057:538
5.057:537
5.057:534
5.057:527
5.057:516
5.057:508
5.060:503
5.060:501
5.060:500
5.060:493
5.060:488
5.060:492
5.060:501
5.060:510
5.060:518
5.060:529
5.076:529
5.080:538
5.080:542
5.080:546
5.081:557
5.081:563
5.081:560
5.081:556
5.081:546
5.081:538
5.085:530
5.085:526
5.085:523
5.085:522
5.085:515
5.085:508
5.085:512
5.085:520
5.086:532
5.086:542
5.089:553
5.089:558
5.090:561
5.090:565
5.090:582
5.090:591
5.090:593
5.090:588
5.090:577
5.093:568
5.109:561
5.109:558
5.110:557
5.110:556
5.110:548
5.110:542
5.110:545
5.114:552
5.114:564
5.114:573
5.114:582
5.114:589
5.114:595
5.114:598
5.114:611
5.114:618
5.118:616
5.118:611
5.118:607
5.118:601
5.118:596
5.118:589
5.118:585
5.118:585
5.118:577
5.118:573
5.121:577
5.121:584
5.121:596
5.122:606
5.138:606
5.138:616
5.138:622
5.138:628
5.138:634
5.138:647
5.143:651
5.143:648
5.143:643
5.143:635
5.143:626
5.143:619
5.143:611
5.143:607
5.143:606
5.147:597
5.147:590
5.147:593
5.147:601
5.147:610
5.147:619
5.147:627
5.147:632
5.147:635
5.147:637
5.151:646
5.151:653
5.151:650
5.151:644
5.151:636
5.167:623
5.167:612
5.167:603
5.171:598
5.171:594
5.171:586
5.171:581
5.171:582
5.171:585
5.171:590
5.171:595
5.171:598
5.175:600
5.175:598
5.176:597
5.176:601
5.176:602
5.176:595
5.176:582
5.176:567
5.176:555
5.176:542
5.180:528
5.180:520
5.180:512
5.180:495
5.180:482
5.180:478
5.180:481
5.180:485
5.195:485
5.195:488
5.200:488
5.200:487
5.200:485
5.200:480
5.200:481
5.200:478
5.200:469
5.200:453
5.200:438
5.204:424
5.205:409
5.205:396
5.205:387
5.205:381
5.205:366
5.205:354
5.205:354
5.205:356
5.205:360
5.208:365
5.208:369
5.208:369
5.208:366
5.208:363
5.208:371
5.208:373
5.208:367
5.208:359
5.228:348
5.228:335
5.228:322
5.228:311
5.228:306
5.228:302
5.228:288
5.228:282
5.233:284
5.233:288
5.233:295
5.233:305
5.233:311
5.233:313
5.233:316
5.233:319
5.233:329
5.233:332
5.236:330
5.236:322
5.236:314
5.236:309
5.236:304
5.236:298
5.236:295
5.236:293
5.236:288
5.241:285
5.241:289
5.241:297
5.257:297
5.257:306
5.257:316
5.257:324
5.257:329
5.257:331
5.257:333
5.261:346
5.261:352
5.261:350
5.261:344
5.262:335
5.262:329
5.262:324
5.262:321
5.262:319
5.262:319
5.265:311
5.265:305
5.265:311
5.265:319
5.265:329
5.265:338
5.265:345
5.265:352
5.265:360
5.270:364
5.270:373
5.270:381
5.270:384
5.286:379
5.286:371
5.286:363
5.286:356
5.290:352
5.291:350
5.291:347
5.291:337
5.291:333
5.291:338
5.291:347
5.291:358
5.291:370
5.292:379
5.294:384
5.294:389
5.294:392
5.294:405
5.294:412
5.294:412
5.294:408
5.294:399
5.294:388
5.298:381
5.298:378
5.298:375
5.298:375
5.298:366
5.298:360
5.298:364
5.314:364
5.314:373
5.314:383
5.319:392
5.319:402
5.319:408
5.319:412
5.319:415
5.319:427
5.319:434
5.319:429
5.319:422
5.319:415
5.323:410
5.324:404
5.324:400
5.324:397
5.324:394
5.324:382
5.324:379
5.324:383
5.324:390
5.327:399
5.327:409
5.327:417
5.327:426
5.327:432
5.327:436
5.327:450
5.327:458
5.348:453
5.348:443
5.348:434
5.348:423
5.348:415
5.348:411
5.348:407
5.348:403
5.348:393
5.352:391
5.352:395
5.352:404
5.352:413
5.352:420
5.352:428
5.352:433
5.352:435
5.352:441
5.352:454
5.355:460
5.355:457
5.355:455
5.355:448
5.355:435
5.356:426
5.356:420
5.356:420
5.356:416
5.356:407
5.359:404
5.375:404
5.375:409
5.375:416
5.375:423
5.375:429
5.375:433
5.375:440
5.375:447
5.376:450
5.379:460
5.379:466
5.379:464
5.379:458
5.379:449
5.379:442
5.379:434
5.380:428
5.380:426
5.384:422
5.384:411
5.384:407
5.384:409
5.384:417
5.384:426
5.386:437
5.386:445
5.386:449
5.386:451
5.388:456
5.388:470
5.404:476
5.405:474
5.405:464
5.405:454
5.405:446
5.409:439
5.409:434
5.409:429
5.409:425
5.409:415
5.409:413
5.409:416
5.409:423
5.409:429
5.409:440
5.413:449
5.413:453
5.413:455
5.413:458
5.413:467
5.413:471
5.413:469
5.413:463
5.413:453
5.417:443
5.417:434
5.417:430
5.417:429
5.417:427
5.417:418
5.432:418
5.432:416
5.432:423
5.432:430
5.432:441
5.437:450
5.437:456
5.437:460
5.437:462
5.437:462
5.437:473
5.437:478
5.437:476
5.438:470
5.441:458
5.441:447
5.441:441
5.441:436
5.441:433
5.441:430
5.441:420
5.441:417
5.441:421
5.441:428
5.445:438
5.445:446
5.445:453
5.445:458
5.445:460
5.445:466
5.462:478
5.466:484
5.466:482
5.466:474
5.466:466
5.466:455
5.467:449
5.467:446
5.467:443
5.467:438
5.467:428
5.470:423
5.470:428
5.470:431
5.470:439
5.470:449
5.470:458
5.470:464
5.470:465
5.470:471
5.474:481
5.474:485
5.474:485
5.474:481
5.474:472
5.474:462
5.474:456
5.474:449
5.474:448
5.474:446
5.495:446
5.495:437
5.495:430
5.495:433
5.495:436
5.495:442
5.495:451
5.496:460
5.496:468
5.496:470
5.499:474
5.499:485
5.499:491
5.499:490
5.499:483
5.499:473
5.499:462
5.499:455
5.499:451
5.499:450
5.502:448
5.502:434
5.502:430
5.502:430
5.502:436
5.502:443
5.502:455
5.502:464
5.502:469
5.506:472
5.523:474
5.523:485
5.523:490
5.523:486
5.523:478
5.523:468
5.523:462
5.528:453
5.528:446
5.528:444
5.528:443
5.528:432
5.528:431
5.528:435
5.528:441
5.528:450
5.532:459
5.532:465
5.532:471
5.532:473
5.532:477
5.532:488
5.532:494
5.532:489
5.532:482
5.532:472
5.535:463
5.535:455
5.535:452
5.535:446
5.552:446
5.552:442
5.552:436
5.552:433
5.552:437
5.552:444
5.556:451
5.556:460
5.556:466
5.556:472
5.556:476
5.556:482
5.556:492
5.556:496
5.556:493
5.560:484
5.560:474
5.560:464
5.560:458
5.560:453
5.560:449
5.560:444
5.560:433
5.560:430
5.560:435
5.564:443
5.564:450
5.564:458
5.564:468
5.564:475
5.580:478
5.580:482
5.580:495
5.584:499
5.585:495
5.585:485
5.585:475
5.585:465
5.585:459
5.585:450
5.585:448
5.585:444
5.589:433
5.590:431
5.590:433
5.590:441
5.590:451
5.590:459
5.590:464
5.590:470
5.590:473
5.590:478
5.593:487
5.593:487
5.593:481
5.593:472
5.593:462
5.593:451
5.593:445
5.593:442
5.609:442
5.609:441
5.614:439
5.614:432
5.614:434
5.614:442
5.614:453
5.614:465
5.614:476
5.614:486
5.614:492
5.618:495
5.618:499
5.618:507
5.618:511
5.618:507
5.618:497
5.618:487
5.618:477
5.618:470
5.618:466
5.622:465
5.622:463
5.622:458
5.622:458
5.622:465
5.622:476
5.623:486
5.623:496
5.623:503
5.642:508
5.642:510
5.642:514
5.642:527
5.642:531
5.642:527
5.642:518
5.642:508
5.646:498
5.646:492
5.646:484
5.646:480
5.646:476
5.646:463
5.646:456
5.646:458
5.647:462
5.647:467
5.650:476
5.650:480
5.650:483
5.650:485
5.650:489
5.650:498
5.650:500
5.650:494
5.650:483
5.655:473
5.655:463
5.655:457
5.671:457
5.671:450
5.671:446
5.671:441
5.671:428
5.671:422
5.671:424
5.675:432
5.675:440
5.675:448
5.675:454
5.675:462
5.675:466
5.675:473
5.675:485
5.675:489
5.675:485
5.679:477
5.679:471
5.679:462
5.679:454
5.679:450
5.679:448
5.679:442
5.679:431
5.679:429
5.682:434
5.682:439
5.682:447
5.682:456
5.699:462
5.699:471
5.699:474
5.699:480
5.704:492
5.704:493
5.704:490
5.704:481
5.704:473
5.704:464
5.704:456
5.704:449
5.704:445
5.704:440
5.708:432
5.708:430
5.708:434
5.708:441
5.708:452
5.708:463
5.708:469
5.708:475
5.708:478
5.712:484
5.712:495
5.712:499
5.712:493
5.712:486
5.712:478
5.712:467
5.727:467
5.727:460
5.727:458
5.732:456
5.732:450
5.732:441
5.732:443
5.732:452
5.732:466
5.732:482
5.732:502
5.732:516
5.732:526
5.736:531
5.736:536
5.736:547
5.736:550
5.736:550
5.736:549
5.736:556
5.736:562
5.736:569
5.739:569
5.740:568
5.740:563
5.740:555
5.740:564
5.740:572
5.740:569
5.740:572
5.761:592
5.761:628
5.761:656
5.761:671
5.762:689
5.762:704
5.762:704
5.762:706
5.762:715
5.764:738
5.765:750
5.765:770
5.765:804
5.765:844
5.765:880
5.765:908
5.765:932
5.765:951
5.765:974
5.769:977
5.769:957
5.769:925
5.769:888
5.769:849
5.769:799
5.769:741
5.769:663
5.769:578
5.769:498
5.772:432
5.789:432
5.789:384
5.789:357
5.789:339
5.789:331
5.789:328
5.789:324
5.789:327
5.789:335
5.794:349
5.794:362
5.794:374
5.794:384
5.794:392
5.794:396
5.794:407
5.794:428
5.794:440
5.798:445
5.798:444
5.798:442
5.798:437
5.798:432
5.798:429
5.798:426
5.798:419
5.798:409
5.798:405
5.801:408
5.801:415
5.817:424
5.817:434
5.817:437
5.817:443
5.817:444
5.823:451
5.823:465
5.824:468
5.824:465
5.824:457
5.824:448
5.824:438
5.824:432
5.824:427
5.824:420
5.827:414
5.827:409
5.827:412
5.827:416
5.827:424
5.827:435
5.827:446
5.827:452
5.827:457
5.831:463
5.831:470
5.831:483
5.831:485
5.831:480
5.831:473
5.847:473
5.847:467
5.847:459
5.847:452
5.851:448
5.851:445
5.851:439
5.851:430
5.851:429
5.851:434
5.851:445
5.851:455
5.851:466
5.851:472
5.855:476
5.855:479
5.855:483
5.856:494
5.856:497
5.856:491
5.856:481
5.856:473
5.856:465
5.856:458
5.859:455
5.859:451
5.859:447
5.859:441
5.859:440
5.859:446
5.874:456
5.879:464
5.879:476
5.879:486
5.879:493
5.879:498
5.879:503
5.879:515
5.879:519
5.879:514
5.879:507
5.883:494
5.883:485
5.884:481
5.884:479
5.884:477
5.884:473
5.884:463
5.884:461
5.884:463
5.887:469
5.887:482
5.888:496
5.888:506
5.888:513
5.888:515
5.888:521
5.888:533
5.888:536
5.888:533
5.908:533
5.908:522
5.908:513
5.908:505
5.908:497
5.908:494
5.908:491
5.908:486
5.909:478
5.909:477
5.912:481
5.912:492
5.912:502
5.912:512
5.912:517
5.912:523
5.912:526
5.912:534
5.912:545
5.916:549
5.917:546
5.917:540
5.917:532
5.917:521
5.917:515
5.917:513
5.917:510
5.917:506
5.917:499
5.920:496
5.937:498
5.937:508
5.937:522
5.937:532
5.937:539
5.937:546
5.937:550
5.941:558
5.941:570
5.941:572
5.941:568
5.941:558
5.942:550
5.942:541
5.942:537
5.942:537
5.944:533
5.944:528
5.944:520
5.944:523
5.944:529
5.946:540
5.946:550
5.946:558
5.946:564
5.946:570
5.949:576
5.949:586
5.949:599
5.949:602
5.965:602
5.965:601
5.966:592
5.966:583
5.966:577
5.966:571
5.969:570
5.969:571
5.969:569
5.969:560
5.969:560
5.969:567
5.969:580
5.969:593
5.969:600
5.973:605
5.973:611
5.973:615
5.973:619
5.973:624
5.973:629
5.973:631
5.973:625
5.973:615
5.973:605
5.977:597
5.978:592
5.978:591
5.978:587
5.978:576
5.994:575
5.994:581
5.994:591
5.998:599
5.998:608
5.998:614
5.998:620
5.998:625
5.998:630
5.998:638
5.998:639
5.998:634
6.002:625
6.002:616
6.002:607
6.002:598
6.002:591
6.002:587
6.002:581
6.002:573
6.002:571
6.002:575
6.007:581
6.007:588
6.007:592
6.007:598
6.007:600
6.007:601
6.007:604
6.007:612
6.022:612
6.022:609
6.027:601
6.027:589
6.027:576
6.027:560
6.027:549
6.027:543
6.027:537
6.027:528
6.027:516
6.031:511
6.031:509
6.031:512
6.031:514
6.031:517
6.031:515
6.031:515
6.031:509
6.031:509
6.031:515
6.035:512
6.035:501
6.035:486
6.035:469
6.035:449
6.036:435
6.036:424
6.036:416
6.036:403
6.056:387
6.056:379
6.056:376
6.056:378
6.056:382
6.056:387
6.056:389
6.056:386
6.060:380
6.060:383
6.060:390
6.060:389
6.060:381
6.060:367
6.060:352
6.061:341
6.061:335
6.061:327
6.064:319
6.064:308
6.064:296
6.064:294
6.064:298
6.064:305
6.064:314
6.064:324
6.064:328
6.067:329
6.068:334
6.068:341
6.084:341
6.084:351
6.084:349
6.084:341
6.084:329
6.084:319
6.084:311
6.088:305
6.088:301
6.089:298
6.089:290
6.089:283
6.089:284
6.089:290
6.089:296
6.089:303
6.089:307
6.092:314
6.092:319
6.092:323
6.092:331
6.092:342
6.092:344
6.092:339
6.092:332
6.092:328
6.096:318
6.096:312
6.096:308
6.097:306
6.113:301
6.113:296
6.113:296
6.113:300
6.116:311
6.117:317
6.117:329
6.117:337
6.117:340
6.117:343
6.117:352
6.117:364
6.117:365
6.120:361
6.121:355
6.121:349
6.121:342
6.121:336
6.121:334
6.121:332
6.121:331
6.121:325
6.121:325
6.125:329
6.125:341
6.125:351
6.125:364
6.126:377
6.126:383
6.126:387
6.141:387
6.141:392
6.141:400
6.146:399
6.146:396
6.146:385
6.146:379
6.146:372
6.146:369
6.146:367
6.146:366
6.146:361
6.146:353
6.150:353
6.150:360
6.150:370
6.150:380
6.150:390
6.150:397
6.150:403
6.150:409
6.150:418
6.154:428
6.154:432
6.154:428
6.154:419
6.154:410
6.154:401
6.154:396
6.154:394
6.174:393
6.174:387
6.174:381
6.174:380
6.174:385
6.175:395
6.175:406
6.175:413
6.175:419
6.178:423
6.178:426
6.178:434
6.178:442
6.178:442
6.178:440
6.179:431
6.179:423
6.179:415
6.179:406
6.182:406
6.182:407
6.182:402
6.182:397
6.182:401
6.182:405
6.182:416
6.182:422
6.184:433
6.186:441
6.186:444
6.203:444
6.203:446
6.203:454
6.203:464
6.203:463
6.203:458
6.203:451
6.203:443
6.203:435
6.207:425
6.207:421
6.207:416
6.207:411
6.207:402
6.207:401
6.207:403
6.207:416
6.208:425
6.211:434
6.211:440
6.211:446
6.211:450
6.211:457
6.212:469
6.212:472
6.212:470
6.212:463
6.212:453
6.214:445
6.215:442
6.231:439
6.231:434
6.231:426
6.231:416
6.231:416
6.235:423
6.235:433
6.236:441
6.236:450
6.236:456
6.236:461
6.236:463
6.236:468
6.236:478
6.236:480
6.239:473
6.240:463
6.240:455
6.240:447
6.240:441
6.240:437
6.240:433
6.240:427
6.240:417
6.244:417
6.244:422
6.244:429
6.244:436
6.244:441
6.244:447
6.260:447
6.260:456
6.260:460
6.260:466
6.264:476
6.264:476
6.264:473
6.265:464
6.265:453
6.265:442
6.265:436
6.265:433
6.265:431
6.265:428
6.269:421
6.269:420
6.269:427
6.269:433
6.269:441
6.269:450
6.269:456
6.269:459
6.269:460
6.272:469
6.273:478
6.273:477
6.273:474
6.273:463
6.273:452
6.273:443
6.289:436
6.293:435
6.293:430
6.293:424
6.293:412
6.293:412
6.293:417
6.293:424
6.293:433
6.293:443
6.293:448
6.297:451
6.297:454
6.297:463
6.297:472
6.297:472
6.297:469
6.297:457
6.298:450
6.298:441
6.301:436
6.301:431
6.301:427
6.301:424
6.301:417
6.302:420
6.302:428
6.302:436
6.302:443
6.302:451
6.321:451
6.322:456
6.322:459
6.322:463
6.322:470
6.322:481
6.322:481
6.322:474
6.322:460
6.322:447
6.325:441
6.325:436
6.325:430
6.325:429
6.325:421
6.325:413
6.326:415
6.326:421
6.326:431
6.329:438
6.329:446
6.329:453
6.329:458
6.330:463
6.330:468
6.330:476
6.330:475
6.330:469
6.330:462
6.333:452
6.350:443
6.350:434
6.350:432
6.350:433
6.350:424
6.351:418
6.351:421
6.354:429
6.354:439
6.354:446
6.354:452
6.354:457
6.355:465
6.355:466
6.355:470
6.355:480
6.359:479
6.359:473
6.359:465
6.359:457
6.359:449
6.359:443
6.359:441
6.359:439
6.359:430
6.359:423
6.362:426
6.362:432
6.362:443
6.362:450
6.379:450
6.379:460
6.379:466
6.379:468
6.379:468
6.379:479
6.383:485
6.383:480
6.383:478
6.383:467
6.383:458
6.383:450
6.383:447
6.383:444
6.383:441
6.387:437
6.387:429
6.387:431
6.387:436
6.387:445
6.387:455
6.387:462
6.387:468
6.387:471
6.387:478
6.391:485
6.391:494
6.391:495
6.391:492
6.391:481
6.407:474
6.407:463
6.412:453
6.412:445
6.412:447
6.412:437
6.412:430
6.412:429
6.412:439
6.412:450
6.412:459
6.412:465
6.416:472
6.416:473
6.416:473
6.416:484
6.416:492
6.416:492
6.416:488
6.416:482
6.416:472
6.416:465
6.419:459
6.419:453
6.419:451
6.419:442
6.420:431
6.420:433
6.420:438
6.420:443
6.436:443
6.436:456
6.440:465
6.440:469
6.440:471
6.440:477
6.440:488
6.441:494
6.441:492
6.441:483
6.441:471
6.445:465
6.445:456
6.445:449
6.445:445
6.445:445
6.445:440
6.445:431
6.445:434
6.446:438
6.446:450
6.449:455
6.449:462
6.449:469
6.449:474
6.449:480
6.449:490
6.449:494
6.450:493
6.450:488
6.468:475
6.469:466
6.469:455
6.469:454
6.469:450
6.469:447
6.469:439
6.469:428
6.474:431
6.474:437
6.474:449
6.474:460
6.474:469
6.474:474
6.474:476
6.474:479
6.474:493
6.474:506
6.477:500
6.477:491
6.478:480
6.478:469
6.478:461
6.478:454
6.478:451
6.478:450
6.478:440
6.481:434
6.481:433
6.482:436
6.498:436
6.498:447
6.498:456
6.498:466
6.498:475
6.498:476
6.498:476
6.502:488
6.502:496
6.502:494
6.502:489
6.502:481
6.502:471
6.502:456
6.502:449
6.502:445
6.502:445
6.506:434
6.506:427
6.506:428
6.506:434
6.506:444
6.506:454
6.506:463
6.506:466
6.506:466
6.510:469
6.510:478
6.510:479
6.510:481
6.526:479
6.526:468
6.526:455
6.526:447
6.531:440
6.531:438
6.531:434
6.531:429
6.531:425
6.531:427
6.531:438
6.531:450
6.531:465
6.535:478
6.535:490
6.535:499
6.535:503
6.535:509
6.535:515
6.535:512
6.535:505
6.535:492
6.535:482
6.539:475
6.539:470
6.539:465
6.540:461
6.540:457
6.540:452
6.540:457
6.555:457
6.555:465
6.555:475
6.559:481
6.559:489
6.559:495
6.559:499
6.559:504
6.559:514
6.559:524
6.559:524
6.560:520
6.560:515
6.562:504
6.564:496
6.564:487
6.564:483
6.564:477
6.564:467
6.564:461
6.564:459
6.564:465
6.568:471
6.568:481
6.568:486
6.568:487
6.568:486
6.568:483
6.568:487
6.568:494
6.589:493
6.589:485
6.589:474
6.589:463
6.589:455
6.589:448
6.589:444
6.589:441
6.590:432
6.592:422
6.592:422
6.592:427
6.592:436
6.592:442
6.592:450
6.592:457
6.592:462
6.592:464
6.592:471
6.596:475
6.596:473
6.596:468
6.596:461
6.596:452
6.596:442
6.596:436
6.596:431
6.596:430
6.600:425
6.600:420
6.617:420
6.617:422
6.617:430
6.617:438
6.617:447
6.617:454
6.617:454
6.617:456
6.620:461
6.620:474
6.620:482
6.620:481
6.620:472
6.622:458
6.622:451
6.623:440
6.623:432
6.623:434
6.625:434
6.625:425
6.625:419
6.625:421
6.625:425
6.626:435
6.626:445
6.626:454
6.626:464
6.626:468
6.629:472
6.629:485
6.645:494
6.645:493
6.645:485
6.645:475
6.645:467
6.650:457
6.650:445
6.650:446
6.650:445
6.650:437
6.650:428
6.650:432
6.650:446
6.650:464
6.650:479
6.654:493
6.654:504
6.654:511
6.654:518
6.654:531
6.654:540
6.654:541
6.654:539
6.654:536
6.657:535
6.657:538
6.657:540
6.657:539
6.657:532
6.657:521
6.674:521
6.674:517
6.674:522
6.674:532
6.678:545
6.678:552
6.678:570
6.678:598
6.678:624
6.678:640
6.678:654
6.678:664
6.678:667
6.678:662
6.682:669
6.682:685
6.682:713
6.682:750
6.682:789
6.682:828
6.682:872
6.682:915
6.682:955
6.686:990
6.686:990
6.686:989
6.686:989
6.686:989
6.686:989
6.686:990
6.702:956
6.707:899
6.707:813
6.707:714
6.707:609
6.707:529
6.707:469
6.707:414
6.707:369
6.707:339
6.707:314
6.710:303
6.711:309
6.711:314
6.711:324
6.711:340
6.711:352
6.711:362
6.711:372
6.711:381
6.715:410
6.715:432
6.715:438
6.715:438
6.715:434
6.715:427
6.715:424
6.715:421
6.715:417
6.715:414
6.735:414
6.735:405
6.735:395
6.735:394
6.735:394
6.736:405
6.736:413
6.736:421
6.736:426
6.736:426
6.739:429
6.739:437
6.739:449
6.739:452
6.739:444
6.739:434
6.739:424
6.739:417
6.739:413
6.744:410
6.744:407
6.744:397
6.744:396
6.744:400
6.744:407
6.744:416
6.744:424
6.744:435
6.744:444
6.748:449
6.764:451
6.764:460
6.764:466
6.764:463
6.764:456
6.764:450
6.765:445
6.767:439
6.768:433
6.768:430
6.768:426
6.768:415
6.768:410
6.768:412
6.768:420
6.768:431
6.772:438
6.772:446
6.772:456
6.772:463
6.772:468
6.774:480
6.774:488
6.774:487
6.774:481
6.774:473
6.776:463
6.776:456
6.776:453
6.776:452
6.792:452
6.792:448
6.792:436
6.792:430
6.792:431
6.793:441
6.797:447
6.797:455
6.797:465
6.797:473
6.797:477
6.797:480
6.797:491
6.797:499
6.797:498
6.801:493
6.801:486
6.801:477
6.801:470
6.801:467
6.801:460
6.801:461
6.801:455
6.801:451
6.801:455
6.805:459
6.805:470
6.806:477
6.806:487
6.806:497
6.821:501
6.821:503
6.825:514
6.825:520
6.826:519
6.826:515
6.826:508
6.826:500
6.826:491
6.826:487
6.826:485
6.826:478
6.830:471
6.830:472
6.830:477
6.830:482
6.830:493
6.830:503
6.830:511
6.831:519
6.831:525
6.831:529
6.834:537
6.834:546
6.834:540
6.834:532
6.834:523
6.834:514
6.834:508
6.834:502
6.849:502
6.849:501
6.854:501
6.854:496
6.854:494
6.854:497
6.854:502
6.854:513
6.854:524
6.854:532
6.854:538
6.858:540
6.858:547
6.858:563
6.858:569
6.858:566
6.858:558
6.858:551
6.858:542
6.858:533
6.858:528
6.861:528
6.862:524
6.862:517
6.862:511
6.862:515
6.862:523
6.862:534
6.862:546
6.862:553
6.883:563
6.883:572
6.883:577
6.883:590
6.883:594
6.883:590
6.883:585
6.883:580
6.887:571
6.887:564
6.887:557
6.887:554
6.887:553
6.887:543
6.887:542
6.888:544
6.888:552
6.891:560
6.891:571
6.891:578
6.891:588
6.891:600
6.891:601
6.891:611
6.891:617
6.891:615
6.891:611
6.895:604
6.895:595
6.895:588
6.911:588
6.911:584
6.911:580
6.911:575
6.911:567
6.911:562
6.911:565
6.915:575
6.916:584
6.916:594
6.916:605
6.916:608
6.916:608
6.916:612
6.916:620
6.916:627
6.916:623
6.919:615
6.919:605
6.920:594
6.920:585
6.920:581
6.920:575
6.920:572
6.920:563
6.920:559
6.922:560
6.924:563
6.924:569
6.924:578
6.939:586
6.939:589
6.939:588
6.940:588
6.944:595
6.944:597
6.944:592
6.944:582
6.944:571
6.944:558
6.944:545
6.944:534
6.944:527
6.949:518
6.949:505
6.949:497
6.949:497
6.949:498
6.949:503
6.949:507
6.949:511
6.949:511
6.949:511
6.952:510
6.952:515
6.952:514
6.952:504
6.952:493
6.952:483
6.952:465
6.968:465
6.968:450
6.968:440
6.972:429
6.972:422
6.972:406
6.972:393
6.973:389
6.973:390
6.973:391
6.973:393
6.973:400
6.977:398
6.977:393
6.977:392
6.977:397
6.977:402
6.977:396
6.977:386
6.977:371
6.977:358
6.977:346
6.981:336
6.981:334
6.981:323
6.981:308
6.981:302
6.981:301
6.981:308
6.981:316
7.002:322
7.002:327
7.002:332
7.002:332
7.002:331
7.002:345
7.002:352
7.002:349
7.002:342
7.005:332
7.005:319
7.005:307
7.005:302
7.005:297
7.006:294
7.006:283
7.006:279
7.006:285
7.006:292
7.010:301
7.010:306
7.010:315
7.010:324
7.010:326
7.010:330
7.010:346
7.010:351
7.010:347
7.014:338
7.014:332
7.030:332
7.030:323
7.030:316
7.030:312
7.030:312
7.030:308
7.030:298
7.030:293
7.034:297
7.034:307
7.034:319
7.034:328
7.034:335
7.034:343
7.034:347
7.034:358
7.034:372
7.036:376
7.038:370
7.038:365
7.038:356
7.039:348
7.039:340
7.039:337
7.039:334
7.039:335
7.039:326
7.042:322
7.042:325
7.042:336
7.058:348
7.058:358
7.058:364
7.058:369
7.059:374
7.063:380
7.063:394
7.063:398
7.063:394
7.063:387
7.063:379
7.063:370
7.063:363
7.063:359
7.063:358
7.067:357
7.067:349
7.067:346
7.067:352
7.067:361
7.067:373
7.067:382
7.067:387
7.067:389
7.071:398
7.071:404
7.071:416
7.072:422
7.072:422
7.072:413
7.086:413
7.087:404
7.087:394
7.087:386
7.092:383
7.092:377
7.092:374
7.092:366
7.092:365
7.092:371
7.092:382
7.092:391
7.092:396
7.092:401
7.096:409
7.096:414
7.096:419
7.096:432
7.096:437
7.096:434
7.096:426
7.096:413
7.096:405
7.100:395
7.100:392
7.100:393
7.100:390
7.100:383
7.100:384
7.100:388
7.116:396
7.120:406
7.120:417
7.120:426
7.120:431
7.121:436
7.121:441
7.122:453
7.122:455
7.122:451
7.122:443
7.123:434
7.125:425
7.125:418
7.125:411
7.125:408
7.125:403
7.125:394
7.125:393
7.125:399
7.129:409
7.129:418
7.129:424
7.129:432
7.129:436
7.129:439
7.129:445
7.129:457
7.129:463
7.129:459
7.149:459
7.149:452
7.149:444
7.149:431
7.149:421
7.149:417
7.149:416
7.149:414
7.149:409
7.149:404
7.152:409
7.152:417
7.152:423
7.152:432
7.152:438
7.152:443
7.152:447
7.152:453
7.152:466
7.157:468
7.157:462
7.157:453
7.157:444
7.157:435
7.157:426
7.157:423
7.157:423
7.157:420
7.157:409
7.161:405
7.177:406
7.177:416
7.177:427
7.177:437
7.177:443
7.177:446
7.177:449
7.181:453
7.181:461
7.181:463
7.181:458
7.181:447
7.181:439
7.181:428
7.181:419
7.181:414
7.186:414
7.186:410
7.186:403
7.186:403
7.186:409
7.186:415
7.186:423
7.186:434
7.186:443
7.186:451
7.189:455
7.189:458
7.189:469
7.189:475
7.206:475
7.206:473
7.206:460
7.206:448
7.206:437
7.206:430
7.210:426
7.210:426
7.210:423
7.210:413
7.210:409
7.210:413
7.210:423
7.210:432
7.210:441
7.215:446
7.215:456
7.215:456
7.215:459
7.215:471
7.215:475
7.215:473
7.215:461
7.215:451
7.215:441
7.217:430
7.217:423
7.218:422
7.218:418
7.218:408
7.235:407
7.235:416
7.239:425
7.239:436
7.239:447
7.239:455
7.239:458
7.239:461
7.239:465
7.239:474
7.239:475
7.239:471
7.243:467
7.243:456
7.243:443
7.243:437
7.243:430
7.243:426
7.243:426
7.243:418
7.243:416
7.243:417
7.246:424
7.246:432
7.246:442
7.246:451
7.247:455
7.247:458
7.247:464
7.247:474
7.262:474
7.263:479
7.267:474
7.267:466
7.267:458
7.267:448
7.267:441
7.267:435
7.267:433
7.268:430
7.268:418
7.271:418
7.272:423
7.272:431
7.272:438
7.272:445
7.272:450
7.272:456
7.272:461
7.272:468
7.272:477
7.276:476
7.276:473
7.276:464
7.276:455
7.276:446
7.276:440
7.276:441
7.276:439
7.276:435
7.296:426
7.296:425
7.296:428
7.296:437
7.296:446
7.296:456
7.296:464
7.296:470
7.301:475
7.301:479
7.301:488
7.301:487
7.301:483
7.301:474
7.301:463
7.301:452
7.301:445
7.304:440
7.304:437
7.305:434
7.305:426
7.305:422
7.305:427
7.305:437
7.305:446
7.305:454
7.305:461
7.309:464
7.309:466
7.309:473
7.325:473
7.325:485
7.325:487
7.325:479
7.325:470
7.325:463
7.325:455
7.329:447
7.329:443
7.329:441
7.329:436
7.329:426
7.329:424
7.329:426
7.329:433
7.329:444
7.333:453
7.333:458
7.334:462
7.334:469
7.334:478
7.334:489
7.334:491
7.334:486
7.334:478
7.334:469
7.337:460
7.338:454
7.338:449
7.338:443
7.353:439
7.354:429
7.354:427
7.354:432
7.358:441
7.358:448
7.358:455
7.358:461
7.358:466
7.358:467
7.358:477
7.358:485
7.358:484
7.362:482
7.362:473
7.362:464
7.362:454
7.362:448
7.362:441
7.362:437
7.362:433
7.362:424
7.362:424
7.366:432
7.366:440
7.366:447
7.366:455
7.366:464
7.366:468
7.366:471
7.382:471
7.382:479
7.382:491
7.386:493
7.386:488
7.387:477
7.387:466
7.387:455
7.387:449
7.387:444
7.387:440
7.387:436
7.391:426
7.391:425
7.391:430
7.391:435
7.391:443
7.391:453
7.391:464
7.391:471
7.391:474
7.391:482
7.395:490
7.395:492
7.395:488
7.395:478
7.395:470
7.395:461
7.395:454
7.395:448
7.415:445
7.415:441
7.415:430
7.415:432
7.415:438
7.415:448
7.415:460
7.415:465
7.415:470
7.419:476
7.419:479
7.419:485
7.419:495
7.419:495
7.419:487
7.419:481
7.419:475
7.419:464
7.419:456
7.424:449
7.424:448
7.424:442
7.424:433
7.424:437
7.424:435
7.424:441
7.424:454
7.424:461
7.427:464
7.427:469
7.443:469
7.443:474
7.443:479
7.443:489
7.443:487
7.443:481
7.443:479
7.443:471
7.448:461
7.448:455
7.448:448
7.448:442
7.448:437
7.448:429
7.449:430
7.449:432
7.449:441
7.449:454
7.452:464
7.452:469
7.452:472
7.452:475
7.452:485
7.452:496
7.452:495
7.452:490
7.452:481
7.455:471
7.455:459
7.456:450
7.472:446
7.473:442
7.473:436
7.473:426
7.473:422
7.477:425
7.477:436
7.477:444
7.477:449
7.477:453
7.477:456
7.477:456
7.477:461
7.477:473
7.477:476
7.480:474
7.480:468
7.481:462
7.481:455
7.481:453
7.481:453
7.481:454
7.481:453
7.481:447
7.485:451
7.485:457
7.485:466
7.485:472
7.485:478
7.485:481
7.500:481
7.500:486
7.500:489
7.500:496
7.505:510
7.505:512
7.505:506
7.505:499
7.505:488
7.505:483
7.505:478
7.505:475
7.505:475
7.505:469
7.509:461
7.509:460
7.509:464
7.509:475
7.509:483
7.509:491
7.509:500
7.509:502
7.509:505
7.514:516
7.514:530
7.514:526
7.514:523
7.514:513
7.514:501
7.514:490
7.529:482
7.534:474
7.534:468
7.534:460
7.534:450
7.534:443
7.534:444
7.534:450
7.534:457
7.534:464
7.534:467
7.538:469
7.538:471
7.538:479
7.538:487
7.538:486
7.538:483
7.538:472
7.538:463
7.538:452
7.542:444
7.542:437
7.542:432
7.542:428
7.542:421
7.542:417
7.542:420
7.542:432
7.542:442
7.543:451
7.563:451
7.563:457
7.563:464
7.563:467
7.563:471
7.563:483
7.563:484
7.563:481
7.563:471
7.563:463
7.566:457
7.566:446
7.566:440
7.566:436
7.566:427
7.566:417
7.566:420
7.566:424
7.566:433
7.571:444
7.572:452
7.572:459
7.572:467
7.572:470
7.572:477
7.572:488
7.572:488
7.572:485
7.572:477
7.574:470
7.591:461
7.591:452
7.591:450
7.591:449
7.591:442
7.591:430
7.595:429
7.595:436
7.595:443
7.595:450
7.595:463
7.595:469
7.595:471
7.596:473
7.596:482
7.596:493
7.600:495
7.600:489
7.600:477
7.600:467
7.600:464
7.600:463
7.600:465
7.600:467
7.600:467
7.600:465
7.603:471
7.603:479
7.603:488
7.603:497
7.619:497
7.620:507
7.620:520
7.620:534
7.620:541
7.620:560
7.624:576
7.624:579
7.624:573
7.624:561
7.624:552
7.624:547
7.624:547
7.624:549
7.624:545
7.628:550
7.628:568
7.628:601
7.628:625
7.628:646
7.628:664
7.628:674
7.628:677
7.628:694
7.628:723
7.631:760
7.631:814
7.631:852
7.631:883
7.631:921
7.648:968
7.648:990
7.653:990
7.653:989
7.653:989
7.653:989
7.653:989
7.653:989
7.653:978
7.653:939
7.653:883
7.653:814
7.657:736
7.657:649
7.657:574
7.657:523
7.657:484
7.657:435
7.657:398
7.657:366
7.657:346
7.661:342
7.661:335
7.661:326
7.661:323
7.661:320
7.661:316
7.661:321
7.661:334
7.661:353
7.677:353
7.682:379
7.682:399
7.682:413
7.682:424
7.682:432
7.682:442
7.682:453
7.682:451
7.682:448
7.682:438
7.685:428
7.685:418
7.685:410
7.685:399
7.685:396
7.685:390
7.685:380
7.685:380
7.685:388
7.686:395
7.689:403
7.689:414
7.689:421
7.689:426
7.689:431
7.689:443
7.689:454
7.689:452
7.689:448
7.709:439
7.709:435
7.709:425
7.709:419
7.709:417
7.709:417
7.709:411
7.709:402
7.714:402
7.714:409
7.714:421
7.714:427
7.714:433
7.714:440
7.714:443
7.714:446
7.714:456
7.718:468
7.718:468
7.718:462
7.718:459
7.718:451
7.718:444
7.718:438
7.718:435
7.718:433
7.718:425
7.722:416
7.722:417
7.722:426
7.738:426
7.738:436
7.738:445
7.738:456
7.738:462
7.738:468
7.738:472
7.743:481
7.743:495
7.743:495
7.743:491
7.743:480
7.743:472
7.743:466
7.743:462
7.743:454
7.747:454
7.747:449
7.747:441
7.747:441
7.747:445
7.747:457
7.747:468
7.747:478
7.747:485
7.747:491
7.751:496
7.751:508
7.751:517
7.751:517
7.766:508
7.766:499
7.766:494
7.766:486
7.770:482
7.771:479
7.771:475
7.771:465
7.771:455
7.771:455
7.771:461
7.771:468
7.771:478
7.775:487
7.775:496
7.775:503
7.775:501
7.775:512
7.775:524
7.775:524
7.775:517
7.775:513
7.775:502
7.780:494
7.780:488
7.780:486
7.780:486
7.780:481
7.780:476
7.780:476
7.795:476
7.795:485
7.796:496
7.800:506
7.800:516
7.800:522
7.800:526
7.800:528
7.800:540
7.800:548
7.800:545
7.800:540
7.803:533
7.805:527
7.805:517
7.805:510
7.805:503
7.805:503
7.805:496
7.806:492
7.806:495
7.806:502
7.808:513
7.808:523
7.808:533
7.808:541
7.808:546
7.808:553
7.808:560
7.808:568
7.829:570
7.829:566
7.829:559
7.829:553
7.829:544
7.829:539
7.829:537
7.829:535
7.829:529
7.833:520
7.833:522
7.833:525
7.833:533
7.833:547
7.833:555
7.833:563
7.833:565
7.833:572
7.833:583
7.836:598
7.836:595
7.836:590
7.837:589
7.837:586
7.837:580
7.837:573
7.837:571
7.837:570
7.841:565
7.841:560
7.857:560
7.857:560
7.857:565
7.857:576
7.858:589
7.858:599
7.858:607
7.858:611
7.861:614
7.861:624
7.861:632
7.861:633
7.861:627
7.861:618
7.861:607
7.861:598
7.861:592
7.861:591
7.866:588
7.866:580
7.866:577
7.866:578
7.866:583
7.866:590
7.866:599
7.866:610
7.866:619
7.870:623
7.870:624
7.870:632
7.886:636
7.886:632
7.886:628
7.886:620
7.886:607
7.890:601
7.890:593
7.890:588
7.890:584
7.890:575
7.890:566
7.890:563
7.890:567
7.890:576
7.890:581
7.894:587
7.894:589
7.894:587
7.894:585
7.894:590
7.894:592
7.894:587
7.894:576
7.894:561
7.898:553
7.898:537
7.898:526
7.898:517
7.898:512
7.898:498
7.914:498
7.914:487
7.914:483
7.914:482
7.919:487
7.919:492
7.919:495
7.919:496
7.919:494
7.919:489
7.919:492
7.919:489
7.919:483
7.919:472
7.923:454
7.923:436
7.923:420
7.923:406
7.923:396
7.923:387
7.923:372
7.923:358
7.923:356
7.927:358
7.927:360
7.927:370
7.927:371
7.927:371
7.927:370
7.927:373
7.942:379
7.948:381
7.948:374
7.948:363
7.948:351
7.948:337
7.948:323
7.948:316
7.948:311
7.948:306
7.952:295
7.952:283
7.952:285
7.952:289
7.952:299
7.952:304
7.952:310
7.952:317
7.952:320
7.952:322
7.956:330
7.956:336
7.956:334
7.956:330
7.956:322
7.956:314
7.956:308
7.956:297
7.956:292
7.956:290
7.976:290
7.976:281
7.976:276
7.976:281
7.976:292
7.976:303
7.976:311
7.976:319
7.976:327
7.976:331
7.979:336
7.980:346
7.980:351
7.980:348
7.980:341
7.980:334
7.980:323
7.980:315
7.980:310
7.984:309
7.984:309
7.984:301
7.984:298
7.984:302
7.984:306
7.984:317
7.984:326
7.984:334
7.984:343
7.988:349
8.004:356
8.004:368
8.004:372
8.004:369
8.004:365
8.004:361
8.009:353
8.009:345
8.009:337
8.009:334
8.009:334
8.009:325
8.009:322
8.009:326
8.009:332
8.009:341
8.013:354
8.013:363
8.013:367
8.013:373
8.013:377
8.013:390
8.013:395
8.013:394
8.013:388
8.017:383
8.017:376
8.017:371
8.017:364
8.017:363
8.033:363
8.033:364
8.033:352
8.033:350
8.033:354
8.038:364
8.038:373
8.038:381
8.038:388
8.038:395
8.038:401
8.038:404
8.038:417
8.038:426
8.038:424
8.042:419
8.042:410
8.042:400
8.042:390
8.042:387
8.042:384
8.042:385
8.042:374
8.042:368
8.042:378
8.045:384
8.045:394
8.045:405
8.045:414
8.045:419
8.061:423
8.062:427
8.066:439
8.066:446
8.067:446
8.067:440
8.067:428
8.067:417
8.067:410
8.067:406
8.067:403
8.067:399
8.070:392
8.070:388
8.071:393
8.071:400
8.071:408
8.071:416
8.071:424
8.071:432
8.071:437
8.074:443
8.074:451
8.074:456
8.074:452
8.074:448
8.074:438
8.074:429
8.074:422
8.075:416
8.090:416
8.095:412
8.095:409
8.095:401
8.095:398
8.095:401
8.095:407
8.095:417
8.095:425
8.095:436
8.095:439
8.099:441
8.099:446
8.099:459
8.099:465
8.099:464
8.099:458
8.099:450
8.099:442
8.099:432
8.099:426
8.103:423
8.103:423
8.103:414
8.103:406
8.103:408
8.103:412
8.103:420
8.103:429
8.103:436
8.122:441
8.123:443
8.123:446
8.123:456
8.123:463
8.123:462
8.123:456
8.123:449
8.128:439
8.128:432
8.128:427
8.128:427
8.128:425
8.128:416
8.128:412
8.128:415
8.128:421
8.132:430
8.132:440
8.132:446
8.132:452
8.132:455
8.132:458
8.132:467
8.132:472
8.132:467
8.132:459
8.135:450
8.135:444
8.135:437
8.152:437
8.152:432
8.152:429
8.152:427
8.152:419
8.152:412
8.152:415
8.156:423
8.156:434
8.156:441
8.156:447
8.156:455
8.156:458
8.156:459
8.156:468
8.156:477
8.160:474
8.160:465
8.160:454
8.160:444
8.160:437
8.160:431
8.160:428
8.160:425
8.161:416
8.161:410
8.164:415
8.164:423
8.164:431
8.164:439
8.181:448
8.181:455
8.181:461
8.181:466
8.184:480
8.184:487
8.184:481
8.184:472
8.184:457
8.184:447
8.185:441
8.185:436
8.185:432
8.189:428
8.189:417
8.189:416
8.189:420
8.189:429
8.189:440
8.189:450
8.189:455
8.189:458
8.189:461
8.192:464
8.192:476
8.192:482
8.192:476
8.192:470
8.192:460
8.192:449
8.209:449
8.209:440
8.209:435
8.214:433
8.214:431
8.214:418
8.214:413
8.214:417
8.214:424
8.214:430
8.214:438
8.214:446
8.218:454
8.218:460
8.218:464
8.218:479
8.218:485
8.218:481
8.218:477
8.218:467
8.218:456
8.218:449
8.222:442
8.222:437
8.222:436
8.222:427
8.222:423
8.222:425
8.222:431
8.222:444
8.242:451
8.242:455
8.242:460
8.242:462
8.242:468
8.242:479
8.242:482
8.242:478
8.242:470
8.246:463
8.246:455
8.246:447
8.246:437
8.246:436
8.246:438
8.246:428
8.246:425
8.246:428
8.246:435
8.249:440
8.250:447
8.250:457
8.250:467
8.250:471
8.250:474
8.250:483
8.250:489
8.250:485
8.254:479
8.254:467
8.271:467
8.271:457
8.271:447
8.271:440
8.271:436
8.271:432
8.271:421
8.271:418
8.275:421
8.275:428
8.275:436
8.275:446
8.275:455
8.275:463
8.275:466
8.276:470
8.276:481
8.276:484
8.279:481
8.279:477
8.279:471
8.279:463
8.279:455
8.279:446
8.279:443
8.279:438
8.279:433
8.283:427
8.283:429
8.283:438
8.299:448
8.299:459
8.299:466
8.299:473
8.299:474
8.304:478
8.304:488
8.304:493
8.304:491
8.304:479
8.304:469
8.304:459
8.304:451
8.305:444
8.305:439
8.307:435
8.307:425
8.307:421
8.307:426
8.307:432
8.307:440
8.307:450
8.307:459
8.308:467
8.312:473
8.312:479
8.312:492
8.312:497
8.312:494
8.312:485
8.328:485
8.328:476
8.328:465
8.328:454
8.332:445
8.332:443
8.332:439
8.332:429
8.332:427
8.332:431
8.332:437
8.332:445
8.332:453
8.332:460
8.336:469
8.337:475
8.337:481
8.337:492
8.337:496
8.337:493
8.337:484
8.338:474
8.338:465
8.341:457
8.341:450
8.341:444
8.341:438
8.341:430
8.341:428
8.341:432
8.356:442
8.361:452
8.361:460
8.361:465
8.361:469
8.361:471
8.361:472
8.361:483
8.361:489
8.361:486
8.365:476
8.365:466
8.365:458
8.365:450
8.365:445
8.365:444
8.365:443
8.365:435
8.365:433
8.366:436
8.369:444
8.369:453
8.369:462
8.369:470
8.369:474
8.371:477
8.371:481
8.371:494
8.371:495
8.371:489
8.390:489
8.390:481
8.390:471
8.390:461
