0.003:561
0.003:551
0.003:528
0.003:525
0.004:528
0.004:530
0.004:513
0.005:503
0.005:494
0.005:493
0.005:496
0.005:508
0.006:536
0.006:575
0.006:630
0.006:661
0.006:682
0.007:691
0.007:701
0.007:724
0.008:747
0.008:763
0.009:786
0.009:797
0.009:801
0.010:826
0.010:864
0.011:902
0.011:921
0.011:943
0.012:943
0.012:960
0.012:985
0.012:990
0.012:990
0.012:989
0.012:989
0.013:989
0.013:990
0.013:954
0.013:885
0.013:800
0.014:700
0.014:598
0.014:509
0.014:437
0.014:414
0.014:386
0.016:351
0.016:304
0.017:264
0.018:240
0.018:229
0.018:224
0.019:235
0.019:259
0.019:268
0.019:295
0.019:319
0.020:351
0.020:383
0.020:394
0.020:406
0.021:415
0.021:430
0.021:429
0.021:423
0.021:406
0.022:406
0.022:402
0.022:397
0.022:394
0.022:390
0.022:388
0.023:402
0.023:420
0.023:450
0.023:460
0.023:449
0.023:463
0.023:470
0.023:472
0.023:467
0.024:455
0.024:445
0.024:424
0.024:415
0.024:401
0.025:400
0.025:382
0.025:382
0.025:383
0.026:395
0.026:403
0.026:422
0.026:440
0.026:454
0.027:453
0.027:459
0.027:468
0.027:479
0.028:470
0.028:461
0.028:455
0.028:459
0.028:465
0.028:462
0.029:461
0.029:467
0.029:464
0.030:440
0.030:415
0.031:417
0.031:424
0.031:436
0.032:460
0.032:463
0.033:449
0.033:451
0.034:465
0.034:485
0.035:495
0.035:499
0.035:487
0.035:475
0.035:473
0.035:468
0.035:466
0.035:461
0.035:463
0.035:462
0.035:464
0.036:462
0.036:460
0.036:468
0.036:481
0.036:491
0.036:496
0.036:497
0.037:488
0.037:495
0.037:502
0.037:507
0.037:516
0.038:513
0.038:509
0.038:499
0.038:485
0.038:474
0.039:464
0.039:464
0.039:450
0.039:443
0.039:447
0.040:456
0.040:458
0.040:477
0.040:491
0.040:495
0.041:512
0.041:514
0.041:525
0.041:528
0.041:511
0.042:496
0.042:484
0.042:492
0.042:496
0.042:500
0.043:505
0.043:519
0.043:510
0.043:494
0.043:469
0.043:460
0.044:454
0.044:462
0.044:486
0.045:494
0.045:499
0.045:500
0.045:511
0.045:521
0.045:524
0.047:509
0.047:491
0.047:489
0.047:487
0.047:496
0.047:507
0.048:510
0.048:506
0.048:497
0.048:478
0.048:458
0.048:458
0.049:468
0.049:499
0.049:524
0.049:527
0.049:516
0.050:523
0.050:545
0.050:557
0.050:559
0.050:547
0.050:540
0.050:532
0.050:521
0.050:506
0.051:506
0.051:504
0.051:497
0.051:494
0.051:502
0.051:519
0.052:528
0.052:529
0.052:540
0.052:542
0.052:543
0.052:549
0.053:564
0.053:574
0.053:580
0.053:576
0.053:564
0.055:550
0.055:528
0.055:523
0.055:529
0.055:529
0.055:525
0.056:512
0.056:513
0.056:520
0.056:529
0.056:535
0.057:554
0.057:563
0.057:570
0.057:567
0.057:573
0.057:580
0.058:586
0.058:599
0.058:621
0.058:613
0.058:579
0.059:556
0.059:550
0.059:546
0.059:538
0.059:540
0.059:546
0.060:536
0.060:528
0.060:538
0.060:571
0.060:605
0.061:607
0.061:602
0.061:610
0.061:614
0.061:613
0.062:612
0.062:590
0.062:570
0.062:561
0.062:562
0.062:562
0.063:565
0.063:551
0.063:532
0.063:531
0.063:537
0.064:543
0.064:546
0.064:563
0.064:586
0.064:594
0.064:599
0.065:604
0.065:612
0.065:613
0.065:596
0.065:594
0.065:584
0.066:571
0.066:554
0.066:557
0.066:559
0.066:545
0.067:527
0.067:507
0.067:503
0.067:502
0.067:498
0.067:523
0.068:541
0.068:538
0.068:526
0.068:527
0.068:545
0.068:543
0.068:531
0.069:520
0.069:507
0.069:497
0.069:485
0.069:480
0.071:475
0.071:471
0.071:474
0.071:467
0.072:455
0.072:445
0.072:437
0.072:445
0.072:456
0.072:459
0.073:462
0.073:466
0.073:468
0.073:469
0.073:465
0.074:462
0.074:447
0.074:423
0.074:413
0.074:413
0.074:406
0.075:394
0.075:378
0.075:364
0.075:351
0.075:353
0.076:345
0.076:350
0.076:366
0.076:378
0.076:384
0.076:400
0.076:410
0.076:419
0.076:433
0.076:424
0.076:410
0.078:401
0.078:385
0.078:385
0.078:396
0.078:389
0.078:372
0.078:362
0.078:351
0.078:345
0.078:335
0.079:329
0.079:337
0.079:363
0.079:384
0.079:391
0.079:391
0.080:385
0.080:392
0.080:392
0.080:395
0.080:400
0.081:403
0.081:412
0.081:398
0.081:383
0.081:378
0.081:369
0.082:357
0.082:359
0.082:360
0.082:362
0.082:391
0.083:409
0.083:412
0.084:407
0.084:414
0.084:416
0.084:426
0.084:425
0.084:416
0.084:412
0.084:396
0.085:396
0.085:382
0.085:387
0.085:395
0.085:389
0.085:380
0.085:380
0.085:379
0.085:366
0.085:360
0.085:373
0.087:392
0.087:405
0.087:405
0.087:416
0.087:408
0.087:402
0.087:415
0.087:440
0.087:443
0.087:432
0.087:429
0.089:420
0.089:414
0.089:417
0.089:418
0.089:404
0.090:395
0.090:387
0.090:393
0.090:416
0.090:433
0.090:443
0.091:448
0.091:449
0.091:454
0.091:465
0.091:461
0.092:447
0.092:442
0.092:434
0.092:411
0.092:406
0.093:415
0.093:414
0.093:408
0.093:398
0.093:391
0.093:394
0.094:412
0.094:422
0.094:430
0.094:443
0.094:449
0.095:456
0.095:469
0.095:481
0.095:475
0.095:465
0.095:479
0.096:479
0.096:478
0.096:457
0.096:443
0.096:430
0.097:423
0.097:432
0.097:432
0.097:434
0.097:426
0.097:428
0.098:446
0.098:465
0.098:468
0.098:464
0.098:467
0.099:472
0.099:481
0.099:479
0.099:486
0.099:495
0.099:484
0.100:462
0.100:442
0.100:446
0.101:444
0.101:448
0.101:449
0.101:451
0.101:440
0.101:434
0.101:438
0.101:448
0.101:454
0.103:457
0.103:471
0.103:465
0.103:462
0.103:465
0.103:465
0.104:467
0.104:473
0.104:473
0.104:463
0.104:466
0.104:455
0.104:463
0.104:475
0.104:468
0.104:448
0.106:436
0.106:451
0.106:475
0.106:496
0.106:492
0.107:495
0.107:490
0.107:490
0.107:478
0.107:465
0.108:465
0.108:462
0.108:465
0.108:471
0.108:463
0.108:453
0.108:437
0.108:442
0.108:440
0.109:445
0.109:445
0.109:447
0.109:466
0.109:476
0.109:482
0.110:487
0.110:502
0.110:499
0.110:494
0.110:487
0.111:482
0.111:475
0.111:465
0.111:452
0.111:423
0.111:405
0.112:419
0.112:443
0.112:452
0.112:465
0.112:470
0.113:463
0.113:476
0.113:471
0.113:467
0.113:485
0.113:509
0.114:510
0.114:511
0.114:503
0.114:501
0.114:512
0.115:503
0.115:487
0.115:487
0.115:482
0.115:466
0.116:457
0.116:453
0.117:451
0.119:452
0.119:456
0.119:465
0.119:471
0.119:475
0.119:473
0.119:481
0.119:486
0.119:491
0.121:480
0.121:480
0.121:488
0.121:502
0.121:504
0.122:509
0.122:508
0.122:499
0.122:478
0.122:472
0.122:470
0.123:465
0.123:458
0.123:447
0.123:451
0.123:455
0.124:477
0.124:497
0.124:513
0.124:509
0.124:509
0.124:509
0.124:502
0.124:502
0.124:494
0.125:483
0.125:470
0.125:463
0.125:448
0.125:440
0.125:428
0.126:425
0.126:431
0.126:431
0.126:451
0.126:476
0.127:491
0.127:503
0.127:519
0.127:507
0.127:502
0.128:503
0.128:505
0.128:513
0.128:504
0.128:483
0.128:465
0.129:457
0.129:438
0.129:419
0.129:405
0.129:408
0.129:431
0.130:452
0.130:484
0.130:489
0.130:486
0.130:480
0.131:496
0.131:501
0.131:505
0.131:505
0.131:506
0.132:495
0.132:475
0.132:459
0.132:460
0.132:464
0.134:472
0.134:460
0.134:449
0.134:450
0.134:460
0.134:461
0.134:466
0.135:486
0.135:496
0.135:493
0.135:486
0.135:495
0.135:486
0.137:487
0.137:483
0.137:485
0.137:499
0.137:503
0.138:492
0.138:465
0.138:461
0.138:461
0.138:471
0.139:470
0.139:471
0.139:468
0.139:466
0.139:470
0.139:475
0.140:481
0.140:485
0.140:494
0.140:499
0.140:514
0.140:522
0.140:518
0.140:506
0.140:487
0.142:489
0.142:479
0.142:479
0.142:475
0.142:477
0.142:456
0.143:452
0.143:460
0.143:460
0.143:485
0.143:498
0.143:509
0.144:491
0.144:499
0.144:495
0.144:495
0.144:496
0.145:502
0.145:495
0.145:489
0.145:480
0.145:476
0.145:461
0.146:467
0.146:467
0.146:466
0.146:457
0.146:450
0.146:451
0.147:456
0.147:468
0.147:471
0.147:479
0.147:482
0.148:505
0.148:524
0.148:524
0.148:519
0.148:505
0.148:492
0.149:466
0.149:455
0.149:464
0.149:476
0.149:468
0.150:458
0.150:445
0.150:443
0.150:446
0.150:451
0.150:483
0.151:497
0.151:487
0.151:484
0.151:505
0.151:517
0.152:524
0.152:519
0.152:518
0.152:508
0.152:497
0.152:500
0.152:480
0.152:463
0.152:446
0.153:446
0.153:449
0.153:446
0.153:453
0.154:466
0.154:479
0.154:481
0.154:489
0.154:489
0.155:504
0.155:504
0.155:509
0.155:509
0.157:509
0.157:507
0.157:497
0.157:486
0.157:480
0.157:467
0.157:458
0.157:455
0.157:457
0.158:459
0.158:455
0.158:470
0.158:478
0.158:483
0.159:489
0.159:513
0.159:523
0.159:520
0.159:521
0.159:522
0.160:516
0.160:508
0.160:512
0.160:500
0.160:510
0.161:501
0.161:485
0.161:460
0.161:436
0.161:427
0.161:428
0.162:450
0.162:480
0.162:504
0.162:504
0.162:503
0.163:511
0.163:529
0.163:529
0.163:538
0.163:536
0.163:525
0.164:507
0.164:496
0.164:508
0.164:497
0.164:480
0.165:472
0.165:474
0.165:481
0.165:480
0.165:478
0.165:480
0.166:501
0.166:513
0.166:527
0.166:532
0.166:532
0.166:537
0.168:538
0.168:548
0.168:546
0.168:543
0.168:546
0.168:544
0.168:546
0.168:535
0.169:522
0.169:497
0.169:483
0.169:478
0.169:475
0.169:480
0.170:497
0.170:509
0.170:511
0.170:506
0.171:496
0.171:506
0.171:515
0.171:513
0.172:516
0.172:520
0.172:509
0.172:488
0.172:480
0.172:470
0.173:468
0.173:455
0.173:452
0.173:453
0.173:451
0.174:454
0.174:464
0.174:474
0.174:472
0.174:486
0.174:491
0.175:497
0.175:489
0.175:489
0.175:498
0.175:510
0.176:520
0.176:487
0.176:465
0.176:454
0.176:450
0.177:435
0.177:430
0.177:427
0.177:421
0.177:427
0.177:437
0.178:447
0.178:457
0.178:466
0.178:466
0.178:478
0.178:496
0.179:498
0.179:502
0.179:502
0.179:495
0.179:485
0.180:469
0.180:470
0.180:480
0.180:481
0.180:460
0.181:438
0.181:431
0.181:434
0.181:433
0.181:434
0.181:444
0.182:457
0.182:469
0.182:478
0.182:487
0.182:494
0.183:505
0.183:518
0.183:509
0.183:493
0.185:487
0.185:489
0.185:484
0.185:465
0.185:436
0.185:419
0.185:431
0.186:447
0.186:453
0.186:466
0.186:485
0.186:479
0.186:468
0.186:478
0.186:513
0.186:531
0.186:536
0.186:539
0.187:529
0.187:502
0.187:487
0.188:482
0.188:471
0.188:470
0.188:472
0.188:470
0.189:460
0.189:460
0.189:479
0.189:502
0.189:539
0.190:574
0.190:574
0.190:609
0.190:627
0.190:651
0.190:674
0.191:696
0.191:713
0.191:725
0.191:752
0.192:769
0.192:769
0.192:773
0.192:788
0.192:797
0.192:821
0.193:854
0.193:900
0.193:945
0.193:974
0.193:990
0.194:989
0.194:989
0.194:989
0.194:988
0.194:988
0.194:989
0.195:989
0.195:990
0.195:918
0.195:821
0.195:731
0.196:627
0.196:523
0.196:439
0.196:381
0.196:339
0.196:311
0.196:292
0.196:276
0.196:266
0.196:256
0.197:264
0.197:285
0.197:315
0.197:333
0.197:345
0.197:360
0.198:357
0.198:349
0.198:358
0.198:365
0.198:360
0.199:363
0.199:373
0.199:384
0.199:411
0.199:419
0.200:412
0.201:416
0.201:439
0.201:439
0.202:441
0.202:441
0.202:444
0.202:452
0.202:466
0.202:465
0.203:456
0.203:448
0.203:434
0.203:422
0.203:424
0.203:419
0.204:406
0.204:413
0.204:424
0.204:432
0.205:421
0.205:408
0.205:404
0.205:408
0.205:410
0.206:413
0.206:428
0.206:454
0.206:461
0.206:458
0.206:467
0.207:475
0.207:471
0.207:463
0.207:456
0.207:451
0.208:445
0.208:440
0.208:432
0.208:433
0.208:436
0.208:435
0.209:444
0.209:456
0.209:461
0.209:458
0.209:454
0.209:462
0.210:467
0.210:483
0.210:505
0.210:506
0.210:494
0.211:475
0.211:472
0.211:465
0.211:458
0.211:459
0.211:453
0.212:460
0.212:454
0.212:452
0.212:457
0.212:457
0.213:471
0.213:477
0.213:492
0.213:513
0.213:512
0.213:506
0.214:500
0.214:508
0.214:513
0.214:492
0.214:477
0.215:460
0.215:458
0.215:468
0.215:463
0.215:446
0.215:449
0.216:454
0.216:448
0.216:453
0.216:461
0.216:463
0.217:482
0.217:496
0.217:507
0.218:518
0.219:516
0.219:512
0.219:505
0.219:496
0.219:478
0.220:480
0.220:470
0.221:465
0.221:466
0.221:459
0.221:461
0.221:461
0.221:478
0.221:500
0.221:511
0.221:519
0.221:527
0.222:551
0.222:562
0.222:562
0.222:545
0.222:553
0.223:550
0.223:534
0.223:521
0.223:506
0.223:500
0.223:507
0.224:507
0.224:489
0.224:473
0.224:460
0.224:472
0.225:472
0.225:491
0.225:508
0.225:519
0.225:533
0.226:548
0.226:552
0.226:551
0.226:534
0.226:514
0.227:528
0.227:540
0.227:540
0.227:525
0.227:511
0.228:513
0.228:513
0.228:504
0.228:501
0.228:503
0.228:504
0.229:520
0.229:537
0.229:546
0.229:547
0.229:551
0.230:552
0.230:572
0.230:581
0.230:576
0.230:573
0.231:565
0.231:555
0.231:538
0.231:531
0.231:521
0.231:523
0.232:513
0.232:520
0.232:526
0.232:528
0.233:536
0.233:541
0.233:537
0.233:537
0.234:560
0.234:573
0.234:585
0.234:592
0.234:604
0.234:621
0.235:612
0.235:582
0.235:560
0.235:554
0.235:531
0.235:525
0.235:512
0.235:512
0.236:511
0.236:511
0.236:520
0.236:544
0.236:557
0.237:567
0.237:573
0.237:600
0.237:605
0.238:612
0.238:614
0.238:619
0.238:625
0.238:609
0.239:587
0.239:573
0.239:557
0.239:533
0.239:528
0.239:529
0.240:541
0.240:548
0.240:554
0.240:569
0.240:578
0.241:584
0.241:588
0.241:602
0.241:606
0.241:623
0.241:620
0.242:621
0.242:607
0.242:580
0.242:568
0.242:561
0.242:562
0.243:540
0.243:539
0.243:531
0.243:505
0.243:501
0.244:507
0.244:524
0.244:542
0.244:566
0.244:566
0.244:585
0.245:592
0.245:592
0.245:580
0.245:565
0.245:553
0.246:536
0.246:527
0.246:512
0.246:509
0.246:497
0.246:481
0.247:466
0.247:465
0.247:465
0.247:460
0.247:451
0.247:459
0.248:464
0.248:471
0.249:480
0.249:504
0.249:507
0.249:523
0.249:519
0.250:497
0.250:479
0.251:448
0.251:429
0.251:420
0.252:420
0.252:413
0.252:419
0.252:408
0.252:389
0.252:373
0.252:372
0.252:382
0.252:386
0.253:414
0.253:419
0.253:422
0.253:425
0.254:431
0.254:431
0.254:417
0.254:408
0.254:393
0.255:388
0.255:384
0.255:382
0.255:368
0.255:351
0.256:337
0.256:341
0.256:340
0.256:326
0.256:334
0.257:344
0.257:372
0.257:402
0.257:432
0.257:429
0.258:424
0.258:415
0.258:405
0.258:402
0.258:387
0.258:374
0.259:363
0.259:355
0.259:340
0.259:339
0.259:336
0.260:336
0.260:351
0.260:359
0.260:359
0.260:367
0.260:374
0.261:383
0.261:395
0.261:412
0.261:419
0.261:432
0.262:430
0.262:419
0.262:420
0.262:410
0.262:414
0.262:407
0.263:394
0.263:376
0.263:360
0.263:338
0.263:338
0.264:346
0.264:348
0.264:363
0.265:384
0.265:404
0.265:403
0.265:414
0.265:423
0.266:438
0.266:446
0.266:457
0.266:451
0.266:423
0.267:407
0.268:406
0.268:416
0.268:396
0.268:391
0.268:391
0.268:388
0.268:381
0.268:376
0.269:386
0.269:383
0.269:401
0.269:415
0.269:439
0.269:452
0.270:470
0.270:466
0.270:457
0.270:458
0.270:447
0.271:435
0.271:417
0.271:417
0.271:397
0.271:389
0.272:389
0.272:396
0.272:400
0.272:407
0.272:410
0.273:429
0.273:442
0.273:449
0.273:454
0.273:473
0.274:474
0.274:483
0.274:483
0.274:476
0.274:467
0.275:443
0.275:436
0.275:437
0.275:430
0.275:390
0.276:369
0.276:371
0.276:385
0.276:387
0.276:400
0.276:437
0.277:457
0.277:474
0.277:488
0.277:497
0.277:498
0.278:504
0.278:503
0.278:508
0.278:499
0.278:479
0.279:474
0.279:467
0.279:466
0.279:439
0.280:421
0.280:416
0.280:425
0.280:422
0.280:419
0.281:437
0.281:433
0.281:438
0.281:445
0.281:477
0.281:491
0.282:499
0.282:512
0.282:507
0.282:503
0.282:470
0.283:452
0.283:437
0.284:438
0.284:419
0.284:419
0.284:407
0.285:401
0.285:412
0.285:428
0.285:435
0.285:457
0.285:462
0.285:469
0.285:472
0.285:480
0.285:497
0.285:513
0.286:510
0.286:512
0.286:512
0.286:487
0.286:474
0.287:458
0.287:459
0.287:448
0.287:438
0.287:426
0.288:425
0.288:424
0.288:439
0.288:465
0.288:471
0.289:463
0.289:458
0.289:459
0.289:458
0.289:471
0.290:482
0.290:503
0.290:507
0.290:491
0.290:479
0.291:468
0.291:463
0.291:448
0.291:448
0.291:448
0.292:442
0.292:438
0.292:443
0.292:457
0.292:464
0.293:480
0.293:490
0.293:503
0.293:516
0.293:519
0.293:513
0.294:505
0.294:499
0.294:474
0.294:469
0.294:462
0.295:450
0.295:450
0.295:429
0.295:421
0.296:417
0.296:412
0.296:416
0.296:419
0.296:447
0.297:460
0.297:476
0.297:489
0.297:520
0.297:525
0.298:513
0.298:503
0.298:501
0.298:502
0.298:491
0.298:491
0.299:486
0.299:486
0.299:459
0.300:450
0.300:446
0.300:438
0.301:435
0.301:437
0.301:457
0.302:472
0.302:476
0.302:483
0.303:496
0.303:490
0.303:497
0.303:507
0.303:507
0.304:500
0.304:486
0.304:468
0.304:473
0.304:480
0.305:455
0.305:438
0.305:428
0.305:424
0.305:423
0.305:426
0.306:442
0.306:455
0.306:474
0.306:479
0.306:498
0.307:512
0.307:518
0.307:531
0.307:530
0.307:512
0.307:480
0.308:465
0.308:468
0.308:468
0.308:473
0.308:473
0.309:462
0.309:453
0.309:446
0.309:438
0.309:444
0.309:465
0.310:468
0.310:464
0.310:466
0.310:497
0.310:510
0.310:515
0.311:517
0.311:508
0.311:496
0.311:487
0.311:486
0.311:479
0.312:464
0.312:437
0.312:432
0.312:439
0.312:445
0.313:451
0.313:462
0.313:478
0.313:476
0.313:478
0.314:476
0.314:498
0.314:511
0.314:525
0.314:528
0.314:505
0.315:487
0.315:470
0.315:477
0.315:472
0.315:470
0.316:458
0.317:444
0.317:437
0.317:438
0.318:443
0.318:442
0.318:461
0.318:462
0.319:473
0.319:486
0.319:512
0.321:523
0.321:521
0.321:519
0.321:519
0.321:517
0.321:499
0.322:486
0.322:486
0.322:477
0.323:494
0.323:498
0.323:476
0.323:458
0.324:437
0.324:433
0.324:431
0.325:459
0.325:473
0.325:477
0.326:486
0.326:503
0.326:511
0.326:541
0.327:554
0.327:546
0.327:527
0.327:493
0.327:484
0.327:479
0.327:467
0.328:449
0.328:441
0.328:440
0.328:440
0.328:438
0.328:447
0.328:474
0.328:480
0.328:492
0.330:492
0.330:502
0.330:515
0.331:514
0.331:509
0.331:501
0.331:485
0.331:459
0.331:463
0.331:475
0.331:485
0.331:476
0.331:464
0.331:442
0.331:433
0.333:422
0.333:438
0.333:457
0.333:460
0.333:486
0.333:502
0.334:514
0.334:513
0.334:514
0.334:526
0.334:517
0.336:511
0.336:501
0.336:501
0.336:509
0.336:499
0.336:491
0.336:478
0.337:468
0.337:468
0.337:458
0.337:450
0.337:458
0.337:470
0.337:471
0.337:475
0.338:492
0.338:509
0.338:521
0.339:524
0.339:535
0.339:541
0.340:518
0.340:497
0.340:482
0.341:467
0.341:450
0.341:433
0.342:429
0.342:442
0.342:437
0.343:426
0.343:443
0.343:464
0.343:460
0.343:493
0.343:513
0.343:514
0.343:526
0.343:539
0.343:551
0.344:550
0.344:538
0.344:512
0.344:496
0.344:500
0.344:503
0.345:493
0.345:476
0.345:467
0.345:460
0.345:454
0.346:465
0.346:484
0.346:492
0.346:522
0.346:551
0.346:562
0.347:572
0.347:568
0.347:559
0.347:553
0.347:540
0.348:540
0.348:519
0.348:509
0.348:503
0.348:498
0.349:486
0.349:479
0.349:478
0.349:478
0.351:483
0.351:497
0.351:520
0.351:528
0.352:532
0.352:532
0.352:522
0.352:536
0.352:548
0.352:550
0.352:546
0.352:531
0.352:511
0.353:505
0.353:491
0.353:482
0.353:463
0.354:448
0.354:443
0.354:422
0.354:415
0.354:436
0.355:452
0.355:455
0.355:469
0.355:489
0.355:502
0.356:509
0.356:515
0.356:523
0.356:515
0.356:498
0.357:476
0.357:476
0.357:471
0.357:451
0.357:426
0.358:420
0.358:411
0.358:405
0.358:401
0.358:414
0.358:434
0.358:443
0.358:460
0.358:488
0.358:507
0.359:517
0.359:505
0.359:488
0.359:485
0.359:485
0.359:493
0.360:495
0.360:481
0.360:473
0.360:460
0.360:438
0.361:415
0.361:423
0.361:437
0.361:431
0.361:421
0.361:434
0.362:447
0.362:460
0.362:488
0.362:506
0.363:521
0.363:533
0.363:534
0.363:514
0.364:509
0.364:484
0.365:475
0.365:471
0.365:446
0.365:428
0.365:425
0.366:432
0.366:432
0.366:436
0.367:459
0.367:479
0.367:483
0.367:487
0.367:501
0.367:504
0.367:508
0.368:516
0.368:535
0.368:537
0.368:532
0.368:514
0.368:491
0.368:483
0.369:458
0.369:437
0.369:420
0.369:419
0.369:432
0.369:457
0.370:479
0.370:509
0.370:541
0.370:558
0.370:569
0.371:577
0.371:587
0.371:601
0.371:622
0.371:622
0.371:641
0.372:646
0.372:628
0.372:603
0.372:594
0.372:598
0.373:631
0.373:657
0.373:690
0.373:710
0.373:718
0.374:742
0.374:770
0.374:807
0.374:858
0.374:918
0.375:941
0.375:975
0.375:990
0.375:989
0.375:989
0.376:989
0.376:989
0.376:990
0.376:981
0.376:935
0.376:873
0.377:801
0.377:736
0.377:662
0.377:577
0.377:505
0.378:450
0.378:414
0.378:388
0.378:383
0.378:366
0.379:360
0.379:349
0.379:353
0.379:358
0.379:353
0.380:343
0.380:326
0.380:321
0.380:319
0.380:309
0.380:304
0.381:309
0.381:310
0.381:323
0.381:356
0.381:384
0.382:407
0.382:418
0.382:435
0.382:447
0.383:468
0.383:468
0.383:468
0.383:482
0.383:472
0.385:459
0.385:452
0.385:426
0.385:414
0.385:403
0.385:412
0.385:407
0.385:412
0.386:412
0.386:412
0.387:423
0.387:426
0.387:423
0.387:424
0.388:447
0.388:458
0.388:469
0.388:468
0.389:476
0.389:482
0.389:472
0.389:452
0.390:419
0.390:397
0.390:403
0.391:410
0.391:414
0.391:420
0.391:418
0.391:416
0.391:432
0.391:446
0.391:461
0.391:467
0.392:483
0.392:495
0.392:520
0.392:532
0.392:520
0.393:500
0.393:479
0.393:471
0.393:466
0.393:452
0.393:426
0.394:420
0.394:410
0.394:413
0.394:428
0.395:434
0.395:429
0.395:425
0.395:445
0.395:460
0.395:490
0.395:518
0.396:541
0.396:541
0.396:536
0.396:530
0.396:520
0.396:496
0.397:488
0.397:495
0.397:480
0.397:457
0.397:459
0.398:465
0.398:464
0.398:454
0.398:449
0.398:474
0.399:480
0.399:488
0.399:497
0.399:509
0.399:513
0.401:528
0.401:530
0.401:537
0.401:539
0.401:521
0.401:510
0.401:505
0.401:503
0.401:474
0.401:462
0.402:460
0.402:469
0.402:458
0.402:441
0.402:452
0.402:462
0.402:486
0.402:499
0.402:523
0.402:537
0.402:553
0.402:546
0.402:520
0.403:514
0.403:510
0.403:506
0.403:511
0.403:507
0.403:483
0.403:471
0.404:461
0.404:465
0.404:470
0.404:470
0.404:479
0.404:491
0.405:507
0.405:527
0.405:555
0.405:570
0.405:570
0.405:581
0.406:570
0.406:566
0.406:577
0.406:559
0.406:521
0.407:514
0.407:514
0.407:501
0.407:500
0.407:493
0.407:486
0.408:485
0.408:487
0.408:494
0.408:506
0.408:519
0.409:524
0.409:546
0.409:559
0.409:574
0.409:573
0.409:560
0.410:554
0.410:545
0.410:537
0.410:529
0.410:519
0.411:505
0.411:512
0.411:514
0.411:513
0.411:517
0.412:525
0.412:537
0.412:544
0.412:547
0.412:546
0.412:557
0.412:560
0.412:589
0.412:611
0.414:615
0.414:599
0.414:581
0.414:570
0.414:563
0.415:569
0.415:559
0.415:546
0.415:540
0.415:546
0.415:540
0.416:535
0.416:549
0.416:559
0.416:574
0.417:579
0.417:600
0.417:600
0.417:615
0.417:639
0.417:647
0.418:639
0.418:631
0.418:600
0.418:575
0.419:571
0.419:585
0.419:577
0.419:567
0.420:548
0.420:540
0.420:541
0.421:555
0.421:580
0.421:589
0.421:595
0.421:592
0.421:609
0.422:610
0.422:633
0.422:637
0.422:613
0.422:606
0.423:603
0.423:588
0.423:569
0.423:559
0.423:543
0.423:542
0.424:545
0.424:545
0.424:532
0.425:520
0.425:533
0.425:554
0.425:575
0.425:590
0.425:605
0.426:600
0.426:602
0.426:617
0.426:618
0.426:607
0.426:583
0.427:571
0.427:556
0.427:539
0.427:514
0.427:499
0.428:496
0.428:488
0.428:497
0.428:506
0.428:519
0.428:526
0.429:526
0.429:521
0.429:521
0.429:533
0.429:539
0.430:552
0.430:547
0.430:535
0.430:525
0.430:495
0.431:473
0.431:463
0.431:447
0.431:418
0.431:410
0.431:407
0.432:400
0.432:397
0.432:393
0.432:408
0.432:414
0.432:422
0.433:420
0.433:436
0.433:440
0.434:428
0.434:431
0.434:420
0.434:413
0.434:397
0.434:388
0.434:381
0.434:375
0.435:359
0.435:349
0.435:332
0.435:330
0.435:333
0.435:322
0.437:337
0.437:353
0.437:367
0.438:363
0.438:381
0.438:397
0.438:415
0.438:416
0.438:413
0.439:417
0.439:407
0.439:393
0.439:384
0.439:373
0.439:348
0.440:331
0.440:322
0.440:316
0.440:318
0.440:322
0.441:363
0.441:380
0.441:391
0.441:391
0.441:384
0.442:392
0.442:406
0.442:423
0.442:423
0.442:405
0.442:398
0.443:379
0.443:360
0.443:347
0.443:337
0.443:327
0.444:335
0.444:338
0.444:328
0.444:333
0.444:346
0.444:372
0.444:382
0.444:395
0.444:412
0.445:428
0.445:433
0.445:431
0.445:440
0.445:431
0.445:418
0.446:403
0.446:400
0.446:402
0.446:397
0.446:378
0.446:363
0.447:350
0.447:352
0.447:356
0.447:365
0.447:388
0.448:393
0.448:401
0.448:415
0.448:444
0.448:457
0.448:453
0.449:456
0.449:448
0.450:436
0.450:419
0.450:422
0.450:418
0.451:410
0.451:394
0.451:384
0.451:377
0.451:385
0.452:401
0.452:400
0.452:407
0.452:406
0.452:406
0.452:423
0.454:435
0.454:458
0.454:457
0.454:464
0.454:473
0.454:463
0.455:452
0.455:438
0.455:429
0.455:411
0.455:405
0.456:400
0.456:394
0.456:394
0.456:392
0.456:400
0.456:402
0.457:418
0.457:430
0.457:448
0.457:452
0.457:472
0.458:479
0.458:486
0.458:486
0.458:481
0.458:471
0.458:457
0.459:452
0.459:435
0.459:425
0.459:405
0.459:400
0.460:410
0.460:407
0.460:407
0.460:407
0.460:410
0.461:416
0.461:444
0.461:460
0.461:490
0.461:498
0.461:489
0.462:495
0.462:495
0.462:489
0.462:470
0.462:471
0.462:460
0.462:448
0.462:441
0.464:448
0.464:442
0.464:438
0.464:433
0.464:433
0.464:444
0.465:444
0.465:457
0.465:473
0.465:477
0.465:492
0.465:497
0.466:496
0.467:487
0.467:476
0.467:461
0.467:458
0.467:464
0.468:457
0.468:437
0.468:409
0.468:416
0.468:430
0.470:418
0.470:415
0.471:429
0.471:452
0.471:464
0.471:477
0.471:480
0.472:497
0.472:509
0.472:504
0.472:503
0.473:508
0.473:503
0.473:484
0.473:469
0.473:449
0.474:421
0.474:408
0.474:414
0.474:432
0.474:435
0.474:440
0.474:459
0.474:481
0.475:484
0.475:482
0.475:484
0.475:490
0.475:497
0.475:505
0.475:503
0.475:496
0.477:492
0.477:486
0.477:473
0.477:465
0.477:454
0.478:439
0.478:424
0.478:421
0.478:396
0.478:391
0.478:410
0.479:410
0.479:442
0.479:469
0.479:498
0.479:508
0.480:512
0.480:516
0.480:513
0.480:519
0.480:508
0.481:490
0.481:479
0.481:479
0.481:471
0.481:451
0.481:433
0.482:424
0.482:428
0.482:415
0.482:419
0.482:432
0.483:448
0.483:465
0.484:485
0.484:512
0.484:536
0.484:530
0.484:508
0.484:502
0.484:489
0.484:481
0.484:468
0.484:465
0.484:448
0.485:440
0.485:450
0.485:453
0.485:459
0.485:443
0.485:437
0.486:435
0.486:462
0.486:480
0.486:467
0.486:465
0.486:471
0.487:497
0.487:510
0.487:509
0.487:492
0.487:475
0.487:463
0.487:454
0.487:445
0.488:437
0.488:436
0.488:431
0.488:435
0.488:437
0.489:453
0.489:453
0.489:468
0.489:483
0.489:492
0.489:488
0.490:495
0.490:480
0.490:473
0.490:486
0.491:507
0.491:512
0.491:508
0.491:495
0.491:492
0.492:485
0.492:475
0.492:447
0.492:428
0.492:429
0.492:434
0.492:441
0.492:460
0.492:478
0.494:474
0.494:474
0.494:491
0.494:510
0.494:524
0.494:519
0.494:505
0.494:
0.494:
0.494:555
0.495:515
0.495:487
0.495:479
0.495:501
0.495:494
0.496:489
0.496:500
0.496:490
0.496:4
0.497:457
0.497:438
0.497:456
0.497:465
0.497:466
0.497:474
0.498:503
0.498:500
0.498:456
0.498:474
0.498:510
0.499:526
0.499:526
0.499:544
0.499:554
0.499:550
0.500:555
0.500:515
0.500:487
0.501:479
0.501:501
0.501:494
0.501:489
0.502:500
0.502:490
0.502:486
0.503:484
0.503:499
0.503:491
0.503:507
0.503:519
0.504:486
0.504:495
0.504:478
0.504:484
0.504:515
0.504:524
0.504:566
0.505:610
0.505:622
0.505:625
0.505:597
0.505:571
0.505:565
0.505:527
0.505:487
0.506:492
0.506:526
0.506:535
0.506:535
0.506:513
0.506:488
0.507:482
0.507:501
0.507:528
0.507:527
0.507:541
0.508:557
0.508:539
0.508:528
0.508:535
0.508:536
0.508:524
0.509:524
0.509:519
0.509:528
0.509:523
0.509:482
0.510:457
0.510:459
0.510:433
0.510:419
0.510:419
0.510:430
0.511:470
0.511:489
0.511:488
0.511:495
0.511:511
0.512:518
0.512:517
0.512:531
0.512:534
0.512:499
0.512:482
0.512:495
0.512:477
0.514:452
0.514:435
0.514:411
0.514:421
0.514:449
0.514:505
0.515:543
0.515:531
0.515:495
0.515:486
0.515:510
0.515:516
0.515:519
0.516:499
0.516:481
0.516:499
0.516:515
0.518:503
0.518:480
0.518:502
0.518:486
0.518:461
0.518:453
0.518:467
0.518:473
0.519:506
0.519:512
0.519:514
0.519:535
0.519:555
0.519:547
0.519:525
0.519:512
0.520:486
0.520:489
0.520:512
0.520:511
0.520:508
0.521:503
0.521:494
0.521:485
0.521:480
0.521:474
0.521:491
0.522:493
0.522:493
0.522:495
0.522:507
0.522:517
0.523:548
0.523:560
0.523:564
0.523:567
0.523:577
0.523:575
0.524:568
0.524:563
0.524:563
0.524:582
0.524:570
0.524:575
0.524:588
0.524:608
0.524:616
0.524:617
0.524:618
0.524:627
0.524:636
0.526:671
0.526:719
0.526:761
0.526:792
0.526:804
0.526:848
0.527:879
0.527:910
0.527:912
0.527:898
0.527:906
0.528:921
0.528:928
0.528:926
0.528:929
0.529:941
0.529:955
0.529:946
0.529:902
0.529:845
0.529:789
0.530:763
0.530:739
0.530:705
0.530:636
0.530:574
0.531:507
0.531:461
0.531:433
0.531:414
0.531:381
0.532:355
0.532:341
0.532:312
0.532:297
0.532:281
0.532:290
0.533:290
0.533:297
0.534:310
0.534:317
0.534:320
0.534:342
0.534:371
0.534:404
0.534:429
0.535:444
0.535:435
0.535:427
0.535:428
0.535:430
0.536:437
0.536:437
0.536:442
0.536:448
0.537:437
0.537:414
0.537:407
0.537:406
0.537:410
0.537:402
0.538:393
0.538:409
0.538:434
0.538:466
0.538:495
0.539:513
0.539:514
0.539:497
0.539:487
0.539:482
0.539:477
0.540:455
0.540:438
0.540:417
0.540:404
0.540:394
0.541:408
0.541:418
0.541:426
0.541:433
0.541:447
0.541:467
0.542:485
0.542:500
0.542:506
0.542:509
0.542:496
0.542:487
0.542:481
0.542:481
0.544:479
0.544:478
0.544:480
0.544:475
0.544:470
0.545:461
0.545:461
0.545:470
0.545:490
0.545:499
0.545:487
0.546:486
0.546:498
0.546:510
0.546:508
0.546:503
0.547:504
0.547:492
0.547:487
0.547:495
0.547:476
0.547:463
0.548:446
0.548:457
0.548:484
0.548:502
0.548:480
0.549:476
0.549:471
0.549:457
0.549:469
0.549:485
0.550:497
0.551:478
0.551:484
0.551:489
0.552:504
0.552:505
0.552:514
0.553:520
0.553:514
0.553:524
0.553:509
0.554:496
0.554:485
0.554:475
0.554:477
0.554:497
0.554:494
0.555:484
0.555:479
0.555:472
0.555:493
0.555:488
0.555:474
0.555:469
0.556:466
0.556:491
0.556:510
0.556:520
0.556:506
0.557:487
0.557:471
0.557:483
0.557:504
0.557:516
0.558:516
0.558:500
0.558:484
0.558:482
0.558:488
0.559:503
0.559:511
0.559:514
0.559:515
0.559:517
0.559:501
0.560:491
0.560:493
0.560:521
0.560:529
0.561:543
0.561:563
0.561:551
0.561:537
0.561:532
0.562:535
0.562:502
0.562:486
0.562:501
0.562:517
0.562:528
0.563:524
0.563:560
0.563:580
0.563:578
0.563:576
0.564:583
0.564:583
0.564:586
0.564:583
0.564:570
0.564:561
0.564:551
0.564:571
0.564:572
0.565:589
0.565:544
0.565:519
0.565:514
0.565:517
0.565:538
0.566:550
0.566:561
0.566:549
0.566:558
0.566:575
0.568:602
0.568:599
0.568:598
0.568:605
0.569:585
0.569:602
0.569:627
0.569:632
0.569:597
0.570:597
0.570:590
0.570:594
0.570:607
0.571:593
0.571:574
0.571:556
0.571:559
0.571:615
0.572:648
0.572:658
0.572:642
0.572:645
0.572:662
0.572:670
0.573:672
0.573:640
0.573:610
0.573:586
0.573:579
0.574:582
0.574:588
0.574:590
0.574:608
0.574:623
0.574:618
0.574:611
0.574:623
0.575:652
0.575:666
0.575:679
0.575:666
0.576:647
0.576:634
0.576:641
0.576:650
0.576:649
0.577:636
0.577:602
0.577:594
0.577:645
0.577:696
0.578:716
0.578:689
0.578:632
0.578:583
0.578:582
0.578:625
0.579:649
0.579:669
0.579:683
0.579:663
0.579:659
0.580:654
0.580:645
0.580:626
0.580:625
0.580:634
0.581:612
0.581:642
0.581:642
0.581:662
0.581:647
0.582:593
0.582:579
0.582:576
0.582:587
0.585:600
0.585:605
0.585:645
0.585:632
0.585:605
0.586:594
0.586:612
0.586:609
0.587:599
0.587:585
0.589:560
0.589:536
0.589:514
0.589:525
0.590:517
0.590:505
0.590:466
0.590:450
0.590:440
0.592:448
0.592:446
0.592:441
0.592:458
0.609:463
0.609:457
0.609:473
0.609:485
0.614:479
0.614:468
0.614:458
0.614:477
0.615:474
0.615:441
0.615:410
0.615:408
0.615:424
0.615:396
0.617:385
0.618:402
0.618:414
0.618:381
0.618:333
0.619:314
0.619:310
0.619:334
0.619:376
0.622:404
0.622:398
0.622:409
0.622:436
0.623:447
0.623:435
0.623:410
0.638:410
0.638:391
0.638:370
0.642:342
0.642:329
0.642:328
0.642:315
0.642:310
0.644:338
0.644:348
0.644:345
0.644:369
0.644:372
0.646:366
0.646:385
0.646:383
0.646:386
0.647:393
0.647:388
0.647:368
0.647:340
0.647:386
0.650:389
0.651:396
0.651:436
0.651:482
0.652:449
0.652:411
0.652:379
0.652:377
0.670:390
0.670:395
0.671:415
0.671:404
0.671:392
0.671:373
0.671:372
0.673:355
0.673:371
0.673:391
0.675:373
0.675:383
0.675:410
0.675:409
0.675:378
0.676:376
0.676:401
0.676:388
0.676:367
0.679:361
0.679:377
0.679:387
0.679:390
0.679:440
0.679:468
0.679:458
0.679:437
0.679:439
0.679:433
0.682:426
0.699:426
0.700:427
0.700:425
0.700:396
0.700:377
0.700:376
0.700:393
0.700:402
0.701:398
0.704:405
0.704:423
0.704:450
0.705:471
0.705:486
0.705:494
0.705:502
0.705:487
0.705:466
0.707:439
0.707:409
0.708:416
0.708:427
0.708:445
0.709:434
0.709:427
0.709:399
0.709:408
0.710:428
0.711:446
0.711:469
0.728:471
0.728:482
0.729:439
0.729:431
0.729:453
0.732:505
0.732:540
0.733:548
0.733:529
0.733:488
0.733:461
0.733:468
0.734:487
0.734:454
0.734:445
0.736:410
0.736:414
0.736:420
0.736:423
0.737:424
0.737:434
0.737:457
0.737:448
0.737:438
0.737:464
0.740:507
0.740:492
0.740:472
0.740:475
0.740:486
0.756:486
0.756:514
0.756:513
0.757:460
0.757:443
0.761:451
0.761:413
0.761:391
0.761:416
0.761:444
0.761:457
0.761:446
0.762:444
0.762:461
0.765:493
0.765:498
0.765:511
0.765:524
0.765:542
0.765:540
0.765:494
0.765:469
0.765:463
0.765:483
0.769:499
0.769:488
0.769:466
0.770:456
0.770:465
0.770:483
0.784:483
0.789:488
0.790:504
0.790:499
0.790:500
0.790:494
0.791:502
0.791:497
0.791:497
0.791:507
0.791:518
0.794:498
0.794:472
0.794:490
0.794:501
0.794:491
0.794:471
0.794:438
0.794:407
0.794:405
0.797:447
0.797:486
0.797:525
0.797:552
0.797:559
0.798:536
0.798:545
0.798:515
0.798:504
0.799:491
0.813:491
0.818:477
0.818:477
0.818:490
0.819:480
0.819:456
0.819:467
0.820:424
0.820:420
0.820:434
0.822:431
0.822:459
0.822:481
0.822:478
0.822:467
0.822:506
0.824:494
0.824:482
0.824:482
0.824:483
0.826:496
0.827:488
0.827:485
0.827:468
0.827:469
0.827:474
0.827:467
0.828:459
0.828:444
0.830:453
0.846:473
0.846:490
0.847:485
0.847:485
0.847:498
0.848:516
0.848:505
0.851:512
0.851:515
0.851:512
0.851:504
0.851:491
0.853:486
0.853:483
0.853:507
0.853:507
0.854:454
0.854:409
0.854:413
0.855:429
0.855:438
0.855:461
0.855:480
0.855:499
0.855:486
0.856:475
0.858:463
0.858:485
0.859:504
0.859:510
0.875:510
0.875:515
0.875:506
0.875:494
0.876:469
0.876:454
0.879:462
0.879:487
0.880:480
0.880:464
0.880:460
0.881:458
0.881:455
0.881:485
0.882:507
0.882:515
0.884:513
0.884:496
0.884:478
0.884:483
0.884:481
0.885:488
0.885:490
0.885:487
0.885:480
0.887:480
0.887:484
0.888:493
0.888:491
0.888:477
0.904:474
0.904:476
0.904:476
0.908:490
0.908:505
0.908:500
0.909:508
0.909:505
0.909:501
0.909:495
0.909:500
0.910:520
0.912:506
0.912:466
0.912:451
0.913:453
0.913:442
0.913:438
0.913:443
0.913:453
0.914:464
0.914:448
0.916:459
0.917:477
0.917:494
0.917:480
0.917:489
0.917:524
0.918:564
0.918:579
0.932:579
0.932:571
0.937:548
0.937:511
0.937:489
0.937:474
0.938:483
0.938:502
0.938:492
0.938:502
0.939:514
0.941:506
0.941:473
0.941:469
0.941:476
0.941:500
0.942:491
0.942:483
0.942:479
0.942:486
0.942:505
0.945:516
0.945:523
0.945:508
0.945:471
0.945:440
0.946:439
0.946:447
0.946:444
0.946:428
0.966:422
0.966:426
0.966:427
0.966:434
0.967:470
0.967:502
0.967:492
0.967:481
0.970:485
0.970:514
0.970:541
0.970:550
0.970:538
0.971:516
0.971:500
0.971:472
0.971:438
0.971:439
0.974:444
0.974:440
0.974:428
0.974:428
0.974:443
0.974:465
0.974:491
0.974:513
0.975:536
0.977:565
0.978:553
0.978:521
0.994:521
0.994:519
0.994:513
0.995:512
0.995:502
0.995:483
0.995:460
0.998:456
0.999:470
0.999:468
0.999:468
1.000:468
1.000:473
1.000:478
1.000:479
1.000:476
1.001:493
1.003:491
1.003:490
1.003:487
1.003:476
1.003:474
1.003:505
1.004:536
1.004:533
1.004:532
1.006:509
1.006:487
1.006:486
1.006:491
1.023:476
1.023:470
1.023:466
1.023:484
1.027:507
1.027:526
1.027:513
1.027:501
1.028:515
1.028:508
1.028:510
1.028:524
1.028:519
1.029:519
1.031:515
1.031:516
1.031:499
1.032:478
1.032:482
1.032:521
1.032:526
1.032:524
1.033:537
1.035:538
1.035:543
1.036:559
1.036:541
1.036:503
1.036:506
1.036:508
1.051:508
1.051:528
1.053:544
1.055:525
1.055:527
1.056:535
1.056:530
1.056:510
1.057:506
1.057:490
1.057:493
1.058:498
1.058:500
1.059:511
1.060:513
1.060:510
1.061:521
1.061:539
1.061:533
1.061:532
1.062:528
1.062:537
1.064:538
1.064:524
1.064:503
1.064:487
1.064:461
1.065:456
1.065:470
1.065:461
1.084:452
1.084:443
1.085:432
1.085:448
1.085:466
1.085:462
1.085:466
1.086:485
1.086:493
1.088:497
1.088:505
1.088:529
1.089:554
1.089:517
1.089:500
1.089:510
1.090:528
1.090:513
1.090:499
1.092:501
1.092:508
1.092:489
1.092:461
1.094:434
1.094:415
1.094:408
1.094:419
1.094:450
1.095:480
1.096:472
1.112:472
1.112:465
1.112:477
1.114:509
1.114:529
1.114:548
1.114:545
1.114:510
1.114:488
1.117:492
1.117:506
1.117:488
1.117:485
1.118:481
1.118:483
1.118:470
1.119:474
1.119:492
1.121:499
1.121:517
1.121:550
1.121:549
1.121:546
1.122:547
1.122:533
1.122:511
1.122:510
1.122:512
1.125:508
1.125:521
1.142:529
1.142:496
1.142:449
1.142:438
1.143:467
1.145:505
1.146:520
1.146:503
1.146:514
1.146:525
1.146:525
1.147:546
1.147:571
1.147:587
1.147:595
1.149:581
1.149:574
1.150:588
1.150:599
1.150:615
1.150:644
1.150:661
1.150:672
1.150:691
1.154:734
1.154:756
1.154:760
1.154:773
1.155:819
1.155:878
1.170:878
1.170:924
1.170:952
1.171:975
1.171:980
1.174:978
1.174:990
1.174:990
1.174:990
1.175:982
1.175:983
1.175:974
1.175:920
1.175:862
1.178:810
1.178:742
1.178:680
1.179:624
1.179:577
1.179:539
1.180:496
1.180:468
1.180:431
1.181:394
1.182:379
1.182:351
1.182:331
1.182:319
1.182:309
1.182:304
1.199:297
1.202:277
1.202:257
1.204:267
1.204:291
1.204:324
1.204:352
1.204:378
1.204:406
1.204:414
1.204:417
1.207:414
1.207:429
1.207:449
1.208:458
1.208:462
1.208:442
1.209:432
1.209:439
1.209:470
1.211:442
1.211:413
1.211:410
1.211:403
1.212:393
1.212:408
1.212:407
1.212:394
1.212:415
1.214:448
1.231:448
1.232:478
1.232:501
1.232:519
1.232:501
1.232:478
1.232:465
1.234:456
1.234:425
1.234:394
1.236:402
1.236:419
1.237:427
1.237:415
1.237:420
1.238:427
1.238:438
1.238:460
1.239:502
1.239:516
1.240:514
1.240:498
1.241:478
1.241:484
1.241:489
1.242:508
1.242:513
1.242:515
1.242:504
1.244:477
1.260:453
1.260:432
1.260:431
1.260:430
1.260:426
1.260:424
1.261:427
1.264:422
1.265:420
1.265:443
1.265:475
1.265:476
1.265:488
1.266:507
1.266:514
1.266:512
1.268:519
1.269:522
1.269:502
1.269:472
1.269:459
1.269:471
1.269:476
1.269:462
1.269:444
1.270:436
1.273:443
1.273:443
1.273:461
1.274:505
1.288:505
1.288:532
1.289:532
1.289:505
1.289:517
1.289:506
1.294:500
1.294:510
1.294:512
1.294:501
1.294:490
1.295:500
1.295:509
1.295:500
1.295:487
1.296:480
1.297:445
1.298:417
1.298:419
1.298:460
1.299:499
1.299:507
1.300:505
1.300:515
1.300:525
1.301:518
1.301:521
1.302:499
1.302:479
1.303:464
1.318:465
1.318:470
1.318:491
1.322:524
1.322:527
1.322:496
1.323:453
1.323:442
1.323:444
1.323:452
1.323:492
1.323:515
1.326:518
1.326:518
1.326:517
1.326:530
1.327:554
1.327:550
1.327:553
1.327:549
1.327:534
1.327:524
1.330:535
1.330:553
1.330:546
1.330:523
1.331:514
1.331:517
1.331:516
1.331:514
1.346:514
1.346:505
1.351:517
1.351:491
1.351:515
1.351:546
1.351:563
1.352:564
1.352:573
1.352:584
1.352:570
1.355:550
1.355:533
1.355:525
1.355:511
1.355:500
1.356:492
1.356:499
1.356:529
1.356:545
1.356:538
1.359:552
1.359:547
1.359:553
1.359:555
1.359:562
1.360:578
1.360:593
1.360:566
1.360:556
1.379:568
1.379:567
1.379:562
1.379:551
1.379:544
1.379:531
1.380:535
1.380:527
1.382:547
1.382:576
1.384:603
1.384:612
1.384:603
1.384:593
1.385:601
1.385:627
1.385:625
1.385:614
1.387:603
1.387:612
1.387:633
1.388:601
1.388:558
1.388:564
1.388:570
1.388:565
1.389:548
1.391:518
1.391:489
1.391:499
1.408:499
1.408:528
1.408:554
1.409:577
1.409:586
1.409:596
1.409:608
1.412:599
1.412:607
1.412:577
1.412:614
1.412:633
1.413:627
1.413:616
1.413:579
1.414:558
1.414:583
1.416:603
1.416:601
1.416:594
1.416:597
1.416:588
1.416:574
1.417:556
1.417:565
1.417:587
1.420:590
1.420:582
1.420:591
1.420:605
1.435:627
1.435:628
1.435:591
1.435:565
1.441:540
1.441:534
1.441:525
1.441:518
1.442:519
1.442:526
1.442:530
1.442:523
1.442:530
1.443:543
1.444:541
1.444:550
1.444:564
1.444:547
1.444:545
1.445:530
1.445:515
1.445:499
1.445:484
1.449:465
1.449:472
1.449:484
1.449:473
1.450:463
1.450:456
1.450:457
1.464:457
1.464:444
1.464:432
1.469:452
1.469:483
1.469:499
1.469:493
1.470:485
1.470:470
1.470:463
1.470:436
1.470:416
1.471:436
1.472:446
1.472:436
1.474:406
1.474:375
1.474:357
1.474:356
1.474:352
1.474:346
1.475:349
1.477:363
1.477:375
1.477:376
1.477:371
1.479:374
1.479:418
1.479:428
1.479:417
1.498:395
1.498:383
1.498:373
1.499:371
1.500:358
1.500:338
1.500:339
1.500:328
1.501:294
1.502:273
1.502:282
1.503:306
1.503:339
1.503:336
1.503:337
1.503:360
1.503:373
1.504:382
1.504:410
1.506:431
1.506:442
1.506:448
1.506:431
1.507:415
1.507:395
1.507:385
1.507:385
1.507:374
1.507:373
1.509:372
1.526:372
1.526:365
1.527:372
1.527:393
1.527:396
1.527:376
1.527:369
1.527:376
1.528:412
1.530:437
1.530:458
1.531:457
1.531:431
1.531:412
1.531:408
1.531:403
1.531:427
1.532:447
1.535:447
1.535:437
1.535:423
1.535:418
1.535:418
1.535:435
1.536:459
1.536:475
1.536:492
1.536:462
1.539:425
1.539:401
1.555:387
1.555:388
1.555:395
1.555:396
1.555:418
1.559:432
1.559:419
1.559:417
1.559:418
1.561:401
1.561:382
1.561:397
1.561:425
1.561:431
1.561:417
1.564:406
1.564:404
1.564:414
1.564:457
1.564:469
1.565:455
1.565:467
1.565:477
1.565:485
1.567:488
1.567:470
1.567:455
1.567:457
1.569:439
1.569:421
1.584:421
1.584:409
1.584:417
1.584:424
1.587:413
1.588:430
1.588:454
1.588:440
1.588:424
1.588:413
1.589:401
1.589:435
1.589:461
1.589:470
1.592:444
1.592:423
1.592:421
1.592:415
1.592:421
1.592:430
1.594:428
1.594:398
1.594:386
1.594:393
1.596:412
1.596:418
1.596:415
1.596:418
1.596:436
1.596:454
1.612:458
1.617:460
1.617:457
1.617:443
1.617:430
1.617:438
1.618:457
1.618:446
1.618:435
1.618:416
1.618:425
1.621:444
1.621:458
1.621:450
1.621:449
1.622:464
1.622:477
1.622:486
1.622:475
1.622:456
1.625:438
1.625:424
1.625:436
1.625:455
1.625:455
1.625:436
1.625:426
1.626:421
1.626:422
1.626:422
1.645:422
1.645:441
1.646:438
1.646:455
1.646:458
1.646:442
1.646:441
1.647:450
1.647:480
1.647:507
1.649:528
1.650:539
1.650:550
1.650:558
1.650:539
1.651:513
1.651:485
1.651:466
1.651:452
1.654:468
1.654:462
1.654:455
1.654:445
1.654:426
1.655:434
1.655:474
1.655:497
1.655:479
1.655:457
1.658:444
1.674:463
1.674:466
1.674:474
1.674:463
1.674:442
1.675:423
1.675:401
1.678:398
1.678:401
1.678:420
1.679:421
1.679:434
1.679:435
1.679:443
1.679:440
1.679:431
1.682:458
1.682:470
1.684:471
1.684:469
1.684:475
1.684:481
1.684:476
1.684:456
1.684:485
1.684:526
1.686:506
1.686:458
1.686:408
1.686:394
1.702:394
1.702:393
1.702:420
1.702:431
1.702:444
1.702:471
1.707:485
1.707:493
1.707:487
1.707:479
1.708:477
1.708:488
1.708:496
1.708:511
1.708:483
1.711:471
1.711:482
1.711:470
1.711:440
1.712:433
1.712:434
1.712:430
1.712:444
1.712:460
1.712:473
1.715:486
1.716:494
1.716:483
1.716:465
1.717:471
1.731:480
1.731:492
1.731:508
1.735:522
1.736:486
1.736:478
1.736:490
1.736:490
1.736:482
1.737:487
1.737:496
1.737:475
1.739:466
1.739:434
1.739:411
1.739:430
1.740:501
1.740:555
1.740:537
1.740:488
1.740:444
1.741:432
1.744:415
1.744:408
1.744:402
1.745:389
1.745:406
1.745:421
1.745:435
1.745:444
1.760:444
1.760:464
1.764:467
1.765:454
1.766:446
1.766:439
1.766:450
1.767:462
1.767:493
1.767:502
1.767:513
1.768:525
1.768:507
1.768:481
1.768:479
1.768:474
1.769:461
1.769:449
1.769:411
1.769:400
1.769:412
1.772:438
1.772:440
1.772:444
1.772:419
1.772:414
1.774:412
1.774:438
1.774:467
1.774:478
1.792:487
1.792:502
1.792:503
1.792:506
1.792:516
1.792:514
1.792:501
1.794:499
1.797:479
1.797:457
1.797:458
1.797:466
1.797:462
1.797:459
1.797:445
1.798:462
1.799:466
1.799:454
1.800:472
1.800:505
1.801:498
1.801:470
1.801:473
1.801:488
1.802:504
1.802:505
1.802:494
1.805:466
1.805:429
1.805:408
1.821:408
1.821:426
1.821:458
1.821:460
1.821:468
1.822:462
1.822:472
1.825:462
1.825:453
1.825:480
1.825:496
1.826:493
1.826:503
1.826:500
1.826:477
1.826:472
1.826:485
1.830:497
1.830:507
1.830:511
1.830:507
1.830:502
1.831:506
1.831:472
1.831:517
1.831:554
1.833:561
1.833:567
1.833:549
1.833:504
1.850:437
1.850:395
1.850:390
1.850:429
1.854:438
1.854:439
1.854:450
1.854:449
1.854:441
1.855:443
1.855:461
1.855:453
1.855:443
1.855:427
1.858:429
1.858:426
1.858:434
1.858:424
1.858:419
1.859:435
1.859:431
1.859:432
1.859:436
1.862:447
1.862:476
1.862:502
1.862:487
1.862:477
1.862:468
1.864:484
1.878:484
1.878:515
1.878:523
1.883:489
1.883:469
1.883:489
1.883:524
1.883:507
1.884:473
1.884:488
1.884:563
1.884:618
1.884:652
1.886:615
1.886:600
1.887:570
1.887:536
1.887:473
1.887:422
1.887:401
1.888:399
1.888:410
1.891:419
1.891:414
1.891:381
1.891:365
1.892:361
1.892:368
1.892:386
1.892:407
1.912:424
1.912:445
1.912:463
1.912:477
1.913:506
1.913:528
1.913:537
1.913:545
1.913:550
1.915:515
1.916:465
1.916:449
1.916:414
1.916:391
1.917:379
1.917:376
1.917:390
1.917:434
1.917:483
1.920:528
1.920:565
1.920:549
1.920:517
1.921:519
1.921:537
1.921:539
1.921:526
1.921:496
1.922:473
1.923:470
1.940:470
1.940:481
1.940:497
1.940:503
1.941:545
1.941:542
1.941:550
1.941:548
1.941:541
1.944:535
1.944:538
1.944:549
1.944:546
1.944:534
1.945:513
1.945:518
1.945:530
1.945:560
1.948:581
1.949:560
1.949:547
1.949:532
1.950:498
1.950:454
1.950:406
1.950:401
1.950:471
1.952:528
1.952:542
1.952:533
1.969:527
1.969:525
1.969:524
1.969:520
1.969:468
1.973:398
1.973:363
1.974:333
1.974:332
1.974:337
1.974:349
1.974:353
1.974:369
1.975:397
1.975:399
1.977:350
1.977:344
1.977:386
1.977:454
1.978:492
1.978:485
1.978:451
1.978:425
1.978:439
1.981:464
1.981:470
1.982:440
1.983:420
1.983:391
1.983:388
1.997:388
1.997:372
1.997:374
1.997:368
2.001:353
2.001:367
2.001:396
2.002:442
2.002:449
2.002:459
2.002:505
2.002:535
2.002:540
2.002:540
2.006:520
2.006:466
2.006:436
2.006:436
2.006:455
2.007:443
2.007:394
2.007:385
2.007:392
2.010:403
2.010:396
2.010:403
2.010:406
2.011:416
2.011:438
2.011:483
2.025:485
2.030:485
2.030:507
2.030:514
2.030:514
2.031:500
2.032:493
2.032:482
2.032:492
2.032:485
2.032:480
2.034:479
2.034:435
2.034:404
2.035:381
2.035:337
2.035:284
2.035:308
2.035:397
2.036:441
2.038:417
2.038:405
2.038:414
2.038:453
2.039:485
2.039:498
2.039:520
2.039:509
2.039:510
2.040:523
2.059:523
2.059:529
2.059:517
2.059:500
2.060:478
2.060:405
2.060:357
2.060:396
2.060:481
2.061:583
2.062:676
2.062:674
2.064:710
2.064:750
2.064:773
2.065:787
2.065:793
2.066:813
2.066:809
2.067:813
2.067:813
2.067:817
2.067:838
2.068:842
2.068:843
2.068:875
2.068:921
2.068:928
2.069:918
2.071:897
2.087:895
2.087:923
2.087:919
2.087:902
2.087:859
2.088:772
2.088:688
2.091:610
2.091:504
2.091:402
2.091:320
2.092:286
2.092:307
2.092:310
2.092:302
2.092:297
2.096:309
2.096:292
2.096:258
2.096:268
2.096:328
2.096:364
2.096:347
2.097:361
2.097:409
2.097:477
2.099:518
2.099:513
2.099:447
2.099:376
2.115:376
2.115:378
2.117:380
2.117:403
2.117:436
2.117:437
2.120:427
2.120:411
2.120:361
2.121:339
2.121:327
2.121:314
2.121:325
2.121:357
2.121:336
2.124:326
2.124:354
2.124:345
2.125:291
2.125:291
2.125:361
2.125:410
2.125:444
2.126:436
2.126:384
2.128:391
2.128:414
2.128:447
2.128:474
2.129:492
2.144:450
2.144:429
2.144:432
2.148:416
2.149:433
2.149:422
2.149:423
2.149:401
2.149:379
2.149:359
2.149:362
2.150:385
2.153:383
2.154:370
2.154:359
2.154:377
2.154:381
2.154:387
2.155:351
2.155:337
2.155:357
2.155:376
2.157:378
2.157:371
2.158:377
2.158:367
2.158:370
2.158:395
2.158:435
2.158:458
2.172:458
2.172:471
2.178:469
2.178:460
2.178:468
2.178:457
2.178:437
2.178:430
2.179:418
2.179:396
2.179:398
2.182:403
2.183:423
2.183:430
2.183:439
2.183:456
2.184:464
2.184:469
2.184:470
2.184:498
2.184:478
2.185:450
2.185:405
2.185:367
2.186:344
2.186:335
2.186:352
2.186:356
2.187:387
2.187:430
2.206:442
2.206:461
2.206:500
2.206:513
2.206:515
2.207:523
2.207:522
2.207:535
2.211:525
2.211:488
2.211:425
2.211:411
2.212:438
2.212:494
2.212:506
2.212:465
2.212:413
2.213:347
2.214:304
2.215:268
2.215:264
2.215:288
2.215:313
2.215:362
2.216:360
2.216:364
2.216:407
2.218:462
2.218:494
2.218:510
2.235:510
2.235:512
2.235:504
2.235:501
2.236:511
2.236:499
2.236:477
2.239:466
2.239:442
2.240:451
2.240:422
2.240:387
2.241:384
2.241:403
2.241:416
2.241:444
2.241:494
2.243:526
2.243:503
2.243:472
2.244:489
2.244:499
2.244:513
2.244:515
2.244:498
2.244:503
2.247:488
2.247:466
2.247:452
2.248:436
2.262:414
2.262:420
2.264:423
2.264:414
2.268:423
2.268:434
2.268:463
2.268:503
2.269:501
2.269:495
2.269:503
2.269:529
2.269:557
2.272:569
2.272:569
2.272:554
2.272:579
2.273:581
2.273:570
2.273:545
2.273:504
2.273:486
2.274:502
2.276:553
2.276:536
2.276:506
2.276:477
2.277:455
2.277:433
2.277:421
2.291:421
2.292:447
2.292:477
2.296:515
2.296:549
2.296:563
2.297:551
2.297:524
2.297:529
2.297:511
2.298:504
2.298:512
2.298:498
2.300:502
2.300:516
2.300:508
2.300:493
2.300:456
2.301:446
2.301:508
2.301:571
2.301:616
2.304:611
2.304:624
2.304:655
2.304:636
2.304:608
2.304:559
2.304:521
2.304:511
2.325:548
2.325:558
2.325:543
2.325:525
2.325:504
2.326:487
2.326:507
2.326:537
2.326:507
2.329:510
2.329:520
2.329:542
2.329:561
2.330:570
2.330:617
2.330:619
2.330:542
2.330:501
2.331:493
2.332:512
2.332:588
2.334:639
2.334:637
2.334:583
2.334:527
2.335:485
2.335:459
2.335:446
2.337:432
2.337:433
2.354:433
2.354:435
2.354:476
2.354:510
2.354:535
2.355:522
2.355:507
2.355:514
2.355:508
2.358:500
2.358:494
2.358:456
2.358:403
2.358:403
2.359:407
2.359:410
2.359:416
2.359:431
2.362:451
2.362:453
2.362:452
2.362:465
2.363:485
2.363:482
2.363:477
2.363:455
2.363:431
2.364:406
2.366:410
2.366:424
2.382:415
2.382:427
2.382:413
2.382:416
2.382:415
2.387:407
2.387:379
2.387:391
2.387:425
2.387:408
2.388:356
2.388:321
2.388:325
2.388:340
2.389:341
2.391:328
2.391:349
2.391:393
2.391:357
2.392:314
2.392:292
2.392:286
2.392:277
2.392:298
2.394:308
2.394:307
2.394:346
2.394:388
2.395:419
2.395:438
2.411:438
2.411:427
2.411:392
2.411:406
2.415:449
2.416:473
2.416:469
2.417:432
2.417:393
2.417:369
2.417:359
2.417:339
2.417:358
2.418:378
2.419:382
2.419:370
2.419:379
2.419:391
2.420:404
2.420:430
2.420:453
2.420:486
2.421:488
2.422:464
2.422:439
2.424:400
2.424:336
2.424:258
2.424:279
2.425:290
2.439:322
2.444:324
2.444:342
2.444:366
2.444:405
2.445:436
2.445:466
2.445:444
2.445:414
2.445:395
2.445:387
2.448:389
2.449:423
2.449:464
2.449:477
2.449:478
2.449:475
2.450:455
2.450:406
2.450:392
2.452:412
2.452:445
2.452:448
2.453:438
2.453:422
2.454:378
2.454:355
2.454:381
2.454:403
2.454:431
2.473:431
2.473:445
2.473:439
2.473:442
2.474:452
2.474:461
2.474:449
2.474:444
2.474:440
2.474:404
2.477:371
2.477:386
2.477:424
2.477:469
2.478:453
2.478:422
2.478:413
2.478:392
2.478:411
2.481:417
2.481:419
2.482:426
2.482:466
2.482:454
2.482:447
2.483:473
2.483:479
2.483:499
2.483:469
2.484:444
2.501:412
2.501:405
2.502:395
2.502:384
2.502:381
2.503:403
2.503:395
2.504:400
2.505:412
2.505:422
2.505:438
2.505:453
2.505:471
2.505:471
2.505:475
2.506:500
2.509:510
2.509:509
2.509:453
2.509:415
2.509:426
2.511:466
2.511:453
2.511:441
2.511:421
2.511:416
2.513:381
2.513:378
2.513:390
2.514:435
2.529:435
2.530:483
2.530:493
2.530:488
2.530:485
2.530:501
2.534:523
2.535:543
2.535:544
2.535:529
2.535:529
2.535:551
2.535:557
2.535:526
2.535:482
2.538:444
2.538:419
2.538:414
2.538:394
2.539:412
2.539:450
2.539:478
2.539:475
2.539:474
2.539:490
2.542:475
2.542:484
2.542:513
2.542:512
2.543:492
2.558:475
2.558:466
2.563:415
2.563:361
2.563:347
2.563:351
2.564:352
2.564:337
2.564:344
2.564:396
2.565:429
2.565:429
2.567:424
2.567:484
2.567:525
2.568:514
2.568:531
2.568:555
2.568:579
2.569:584
2.569:595
2.569:612
2.571:587
2.571:529
2.571:480
2.571:461
2.571:459
2.572:457
2.572:430
2.572:399
2.586:399
2.586:391
2.590:393
2.591:390
2.591:394
2.591:420
2.591:473
2.591:533
2.591:591
2.592:614
2.592:599
2.595:571
2.595:522
2.595:480
2.596:497
2.596:516
2.596:525
2.596:502
2.596:476
2.597:442
2.597:440
2.599:451
2.599:443
2.600:433
2.600:450
2.600:479
2.601:481
2.601:481
2.601:462
2.601:435
2.619:453
2.619:452
2.619:446
2.620:452
2.620:489
2.620:511
2.620:469
2.620:345
2.624:282
2.624:282
2.624:322
2.624:434
2.625:511
2.625:511
2.625:489
2.625:485
2.625:538
2.628:562
2.628:573
2.628:602
2.628:629
2.629:610
2.629:573
2.629:540
2.629:517
2.629:517
2.629:510
2.631:506
2.632:500
2.632:481
2.649:481
2.649:494
2.649:507
2.649:545
2.649:545
2.649:532
2.650:523
2.653:550
2.653:564
2.653:563
2.653:520
2.653:480
2.654:452
2.654:475
2.654:525
2.654:529
2.654:512
2.657:490
2.657:460
2.657:453
2.657:431
2.657:376
2.657:352
2.658:403
2.658:441
2.658:432
2.661:455
2.661:476
2.661:463
2.661:423
2.676:406
2.677:414
2.677:472
2.677:525
2.681:562
2.682:542
2.682:496
2.682:465
2.682:434
2.682:414
2.682:428
2.682:468
2.682:515
2.685:557
2.685:598
2.685:574
2.686:530
2.686:473
2.686:473
2.686:480
2.687:469
2.687:405
2.687:349
2.689:304
2.689:316
2.689:343
2.689:374
2.689:368
2.690:343
2.690:378
2.705:378
2.705:420
2.706:459
2.710:477
2.710:503
2.710:528
2.710:566
2.710:590
2.710:596
2.711:589
2.711:592
2.711:601
2.714:578
2.714:520
2.715:510
2.715:507
2.715:493
2.715:545
2.715:560
2.715:583
2.715:569
2.717:490
2.718:416
2.718:427
2.718:428
2.718:389
2.718:362
2.718:364
2.718:425
2.719:489
2.739:489
2.739:463
2.739:449
2.739:432
2.739:421
2.740:442
2.740:443
2.740:423
2.740:399
2.743:368
2.743:384
2.743:373
2.744:322
2.744:281
2.744:231
2.744:244
2.744:322
2.745:335
2.745:344
2.747:382
2.748:481
2.748:564
2.749:592
2.749:539
2.749:489
2.750:530
2.750:562
2.751:581
2.751:585
2.751:576
2.767:576
2.767:551
2.767:498
2.768:468
2.768:453
2.768:453
2.768:488
2.768:529
2.771:524
2.771:542
2.771:571
2.771:581
2.771:581
2.772:555
2.772:474
2.772:384
2.772:388
2.772:413
2.775:416
2.775:448
2.775:464
2.775:458
2.776:459
2.776:474
2.776:491
2.776:504
2.776:501
2.777:503
2.778:505
2.779:488
2.795:472
2.796:464
2.796:424
2.796:375
2.796:372
2.800:393
2.800:394
2.800:390
2.800:421
2.801:468
2.801:487
2.801:457
2.801:431
2.802:440
2.802:482
2.804:499
2.804:489
2.805:518
2.805:558
2.805:555
2.805:522
2.805:459
2.805:458
2.805:444
2.808:378
2.808:311
2.808:310
2.808:389
2.808:406
2.809:418
2.824:418
2.824:411
2.824:404
2.824:461
2.829:463
2.829:483
2.829:524
2.829:527
2.830:489
2.830:479
2.830:543
2.830:597
2.830:593
2.831:566
2.833:547
2.833:519
2.834:502
2.834:501
2.834:508
2.834:519
2.834:494
2.834:458
2.834:467
2.837:460
2.837:461
2.837:473
2.837:486
2.837:524
2.837:534
2.837:529
2.852:535
2.857:526
2.857:512
2.857:515
2.857:508
2.858:507
2.858:491
2.858:470
2.858:416
2.858:404
2.859:396
2.861:415
2.861:433
2.861:423
2.861:422
2.861:447
2.862:509
2.862:519
2.862:534
2.862:553
2.865:550
2.865:514
2.865:497
2.865:515
2.865:533
2.865:552
2.867:569
2.867:570
2.867:567
2.868:538
2.886:538
2.886:478
2.886:429
2.887:454
2.887:474
2.887:494
2.887:554
2.887:587
2.887:520
2.888:456
2.890:420
2.890:408
2.890:407
2.890:416
2.891:409
2.891:398
2.891:409
2.891:433
2.891:470
2.894:486
2.894:477
2.894:486
2.894:481
2.894:450
2.894:432
2.895:433
2.895:451
2.895:533
2.895:612
2.897:646
2.916:653
2.917:642
2.917:617
2.917:531
2.918:430
2.918:390
2.918:365
2.919:376
2.919:385
2.919:420
2.919:453
2.920:458
2.920:459
2.920:441
2.920:428
2.920:448
2.923:487
2.923:513
2.923:516
2.924:519
2.924:526
2.924:531
2.924:533
2.924:504
2.924:501
2.925:523
2.927:531
2.927:536
2.927:520
2.927:487
2.942:487
2.942:488
2.944:510
2.944:505
2.944:509
2.944:507
2.947:538
2.947:564
2.947:556
2.948:561
2.948:563
2.948:585
2.948:609
2.948:586
2.948:552
2.951:506
2.951:448
2.951:401
2.951:415
2.951:419
2.951:400
2.952:407
2.952:469
2.952:495
2.952:491
2.955:483
2.955:510
2.955:565
2.955:549
2.955:501
2.972:475
2.972:483
2.976:503
2.976:549
2.976:601
2.976:612
2.976:548
2.976:454
2.977:419
2.977:395
2.977:360
2.977:305
2.980:293
2.981:340
2.981:424
2.981:479
2.981:550
2.981:605
2.981:650
2.981:671
2.982:667
2.982:632
2.984:616
2.985:610
2.985:572
2.985:546
2.985:537
2.985:557
2.985:550
2.985:535
3.000:535
3.000:518
3.004:488
3.005:485
3.005:487
3.005:510
3.005:530
3.005:559
3.005:593
3.005:592
3.005:599
3.009:616
3.009:640
3.009:618
3.009:602
3.010:605
3.010:606
3.010:588
3.010:577
3.010:547
3.011:516
3.013:468
3.013:413
3.013:375
3.013:357
3.013:360
3.013:370
3.014:402
3.014:437
3.014:459
3.033:452
3.034:429
3.034:442
3.034:463
3.034:493
3.034:525
3.034:546
3.035:509
3.037:478
3.037:500
3.038:553
3.038:545
3.038:530
3.038:527
3.038:498
3.039:464
3.039:423
3.042:424
3.042:464
3.042:496
3.042:484
3.042:478
3.042:468
3.042:472
3.042:519
3.042:541
3.044:480
3.045:481
3.045:495
3.046:478
3.062:478
3.062:465
3.062:460
3.063:471
3.063:489
3.063:510
3.063:522
3.066:506
3.066:491
3.067:462
3.067:455
3.067:452
3.068:449
3.068:477
3.069:483
3.069:493
3.069:486
3.070:454
3.070:431
3.070:435
3.071:428
3.071:434
3.071:440
3.071:412
3.071:418
3.072:407
3.074:397
3.074:403
3.074:438
3.074:475
3.090:508
3.090:542
3.090:518
3.090:501
3.095:485
3.095:492
3.095:483
3.095:455
3.096:441
3.096:453
3.096:476
3.096:511
3.096:521
3.099:550
3.099:531
3.099:506
3.100:526
3.100:543
3.100:549
3.100:565
3.101:567
3.101:575
3.101:569
3.103:544
3.103:531
3.103:545
3.104:540
3.104:545
3.104:565
3.104:582
3.119:582
3.119:556
3.119:547
3.124:602
3.124:647
3.124:676
3.124:662
3.124:668
3.125:724
3.125:741
3.125:732
3.125:752
3.128:787
3.128:827
3.128:853
3.128:885
3.129:929
3.129:959
3.129:984
3.129:982
3.129:983
3.129:990
3.132:989
3.132:989
3.132:989
3.133:989
3.133:990
3.133:943
3.133:871
3.133:806
3.152:748
3.152:687
3.153:627
3.153:561
3.153:539
3.153:513
3.154:482
3.154:438
3.154:401
3.156:366
3.156:338
3.156:284
3.156:259
3.156:288
3.157:310
3.157:320
3.157:358
3.157:386
3.157:397
3.160:412
3.160:418
3.161:428
3.161:448
3.162:441
3.162:456
3.162:467
3.162:471
3.162:452
3.164:439
3.165:438
3.182:438
3.182:429
3.182:392
3.182:323
3.182:329
3.182:350
3.183:396
3.183:489
3.185:522
3.185:514
3.185:468
3.185:449
3.185:439
3.185:453
3.185:460
3.186:433
3.186:395
3.186:416
3.189:444
3.189:464
3.189:453
3.189:438
3.189:468
3.190:468
3.190:464
3.190:454
3.190:438
3.193:440
3.193:455
3.193:448
3.209:453
3.209:465
3.209:473
3.210:472
3.210:469
3.214:490
3.215:498
3.215:517
3.215:522
3.215:523
3.215:520
3.215:490
3.215:474
3.215:471
3.216:477
3.218:471
3.218:467
3.218:475
3.218:472
3.218:475
3.218:507
3.219:520
3.219:520
3.219:518
3.222:514
3.222:518
3.222:488
3.222:489
3.222:491
3.222:499
3.237:499
3.238:497
3.238:504
3.238:520
3.242:546
3.242:548
3.242:533
3.242:527
3.242:502
3.242:510
3.242:511
3.244:523
3.244:515
3.244:517
3.246:514
3.246:530
3.246:569
3.246:584
3.247:565
3.247:508
3.247:482
3.247:468
3.247:455
3.250:430
3.250:407
3.251:458
3.251:482
3.251:451
3.251:433
3.251:431
3.266:470
3.271:528
3.271:566
3.271:594
3.271:644
3.272:667
3.272:646
3.272:611
3.272:592
3.272:549
3.272:526
3.274:526
3.274:483
3.274:454
3.274:451
3.275:439
3.275:420
3.275:452
3.275:488
3.275:517
3.279:525
3.279:535
3.279:570
3.279:578
3.280:568
3.280:566
3.281:600
3.281:613
3.281:593
3.281:565
3.299:565
3.299:545
3.300:528
3.300:499
3.300:477
3.301:477
3.301:454
3.301:422
3.301:460
3.302:493
3.302:561
3.304:602
3.304:608
3.304:600
3.304:596
3.304:589
3.305:577
3.305:568
3.305:543
3.308:505
3.308:484
3.308:496
3.308:497
3.309:499
3.309:496
3.309:511
3.309:523
3.309:528
3.310:540
3.312:558
3.328:587
3.328:584
3.328:584
3.329:607
3.329:616
3.329:618
3.329:602
3.332:602
3.333:571
3.333:554
3.333:553
3.333:570
3.334:584
3.334:585
3.334:576
3.334:548
3.336:508
3.336:514
3.336:548
3.336:549
3.337:545
3.337:572
3.337:609
3.337:621
3.337:624
3.337:607
3.340:579
3.340:576
3.340:618
3.340:654
3.357:654
3.357:652
3.357:653
3.357:647
3.358:606
3.358:563
3.361:539
3.361:528
3.361:539
3.362:529
3.362:520
3.362:540
3.362:560
3.362:556
3.362:556
3.365:569
3.365:597
3.366:630
3.366:641
3.366:654
3.366:666
3.367:661
3.367:635
3.367:612
3.368:594
3.368:579
3.369:579
3.369:565
3.369:529
3.369:537
3.385:560
3.385:575
3.390:571
3.390:590
3.390:581
3.390:583
3.391:599
3.391:592
3.391:592
3.391:598
3.391:590
3.391:567
3.394:568
3.394:583
3.394:587
3.394:567
3.395:571
3.395:579
3.395:536
3.395:515
3.395:518
3.397:530
3.398:545
3.398:561
3.398:589
3.399:607
3.399:603
3.399:586
3.399:603
3.400:598
3.414:598
3.414:589
3.418:566
3.418:548
3.418:535
3.418:509
3.418:531
3.419:554
3.419:533
3.419:465
3.419:432
3.422:442
3.422:473
3.422:476
3.422:457
3.422:459
3.422:485
3.424:481
3.424:465
3.424:495
3.424:519
3.426:517
3.427:494
3.427:489
3.427:478
3.427:470
3.428:447
3.428:433
3.428:437
3.428:407
3.447:375
3.447:376
3.448:387
3.448:384
3.448:396
3.448:414
3.449:421
3.449:424
3.451:425
3.451:424
3.452:407
3.452:400
3.452:391
3.452:380
3.452:367
3.452:348
3.453:330
3.455:332
3.455:337
3.455:315
3.455:309
3.455:330
3.455:339
3.456:358
3.456:368
3.456:370
3.456:387
3.459:387
3.459:403
3.459:429
3.475:429
3.475:430
3.475:439
3.475:445
3.476:434
3.476:422
3.476:413
3.480:412
3.481:419
3.481:423
3.481:395
3.482:377
3.482:395
3.482:396
3.482:406
3.482:429
3.484:422
3.484:390
3.484:374
3.484:379
3.484:408
3.485:425
3.485:452
3.485:476
3.485:461
3.485:452
3.488:441
3.488:400
3.488:374
3.488:386
3.504:381
3.504:362
3.504:331
3.504:362
3.509:402
3.509:459
3.509:491
3.509:470
3.509:459
3.509:428
3.510:413
3.510:399
3.510:412
3.513:392
3.513:384
3.514:396
3.514:390
3.515:361
3.515:363
3.515:354
3.515:324
3.515:325
3.516:335
3.516:379
3.517:410
3.517:417
3.517:442
3.517:440
3.517:423
3.517:433
3.533:433
3.533:472
3.533:479
3.537:472
3.537:476
3.538:480
3.538:451
3.538:418
3.538:426
3.538:435
3.538:428
3.539:414
3.541:416
3.541:410
3.541:402
3.541:433
3.542:468
3.542:471
3.542:487
3.542:497
3.542:490
3.542:496
3.545:523
3.545:518
3.545:472
3.545:471
3.546:470
3.546:463
3.546:458
3.546:454
3.565:468
3.566:468
3.566:482
3.566:466
3.567:458
3.567:445
3.567:441
3.567:469
3.567:480
3.570:476
3.570:459
3.570:461
3.570:462
3.570:463
3.571:440
3.571:424
3.571:414
3.571:409
3.571:408
3.574:436
3.574:453
3.574:431
3.574:420
3.574:432
3.575:430
3.575:447
3.575:467
3.575:478
3.578:462
3.578:447
3.594:447
3.594:440
3.594:465
3.594:453
3.594:450
3.594:454
3.595:460
3.595:476
3.598:486
3.598:502
3.598:492
3.598:459
3.599:423
3.599:460
3.599:465
3.599:445
3.599:454
3.599:452
3.602:448
3.602:447
3.602:450
3.602:439
3.602:446
3.604:452
3.604:458
3.604:480
3.604:488
3.607:465
3.607:424
3.607:405
3.622:390
3.622:411
3.622:446
3.622:477
3.622:465
3.627:455
3.627:454
3.627:462
3.627:454
3.628:461
3.628:476
3.628:502
3.628:534
3.628:541
3.629:536
3.631:526
3.631:501
3.632:485
3.632:486
3.632:475
3.632:450
3.632:442
3.633:435
3.633:443
3.635:466
3.635:475
3.635:481
3.635:490
3.636:496
3.636:491
3.651:491
3.651:474
3.651:476
3.652:503
3.656:504
3.656:511
3.656:523
3.656:521
3.657:517
3.657:510
3.657:496
3.657:513
3.657:510
3.657:486
3.660:486
3.660:465
3.660:431
3.660:406
3.660:412
3.661:430
3.661:445
3.661:447
3.661:466
3.664:505
3.664:506
3.664:510
3.665:491
3.665:476
3.665:470
3.665:458
3.680:436
3.684:416
3.684:408
3.684:382
3.685:389
3.685:401
3.685:421
3.685:443
3.685:447
3.685:465
3.686:484
3.688:470
3.688:451
3.688:474
3.688:503
3.688:551
3.689:579
3.689:579
3.689:551
3.689:533
3.693:530
3.693:486
3.693:416
3.694:395
3.694:412
3.694:442
3.694:474
3.694:465
3.695:467
3.695:477
3.714:477
3.714:470
3.715:459
3.715:452
3.715:463
3.715:462
3.715:459
3.715:462
3.716:460
3.716:460
3.717:433
3.717:424
3.717:433
3.717:442
3.717:450
3.718:459
3.718:483
3.718:495
3.718:473
3.721:464
3.721:502
3.721:526
3.721:535
3.721:534
3.722:547
3.722:553
3.722:545
3.722:527
3.722:477
3.725:441
3.741:447
3.742:480
3.742:475
3.742:445
3.742:422
3.742:408
3.746:419
3.746:451
3.746:494
3.746:500
3.747:505
3.748:481
3.748:489
3.748:505
3.748:505
3.748:509
3.750:511
3.750:502
3.750:519
3.750:557
3.751:533
3.751:477
3.751:417
3.751:407
3.751:419
3.752:444
3.754:453
3.754:455
3.754:459
3.754:460
3.770:460
3.770:471
3.770:493
3.770:514
3.771:515
3.771:552
3.775:559
3.775:526
3.775:481
3.775:431
3.775:414
3.775:420
3.776:458
3.776:477
3.776:465
3.779:457
3.779:473
3.779:487
3.779:479
3.780:467
3.780:458
3.781:477
3.781:494
3.781:489
3.781:467
3.782:477
3.782:475
3.783:499
3.783:507
3.783:518
3.799:524
3.799:481
3.803:458
3.804:442
3.804:442
3.804:440
3.804:460
3.805:458
3.805:452
3.805:456
3.805:475
3.805:503
3.807:530
3.807:520
3.807:515
3.807:550
3.808:572
3.808:567
3.808:555
3.808:528
3.808:517
3.811:518
3.811:512
3.811:510
3.812:508
3.812:477
3.812:437
3.812:410
3.812:412
3.812:416
3.827:416
3.832:441
3.832:475
3.832:490
3.832:501
3.833:508
3.833:514
3.833:523
3.833:540
3.833:522
3.833:492
3.836:467
3.836:456
3.836:472
3.836:500
3.836:495
3.837:467
3.837:447
3.837:445
3.837:450
3.837:467
3.840:489
3.840:507
3.840:501
3.840:489
3.840:481
3.841:496
3.841:486
3.841:512
3.841:501
3.860:460
3.860:462
3.860:453
3.860:448
3.861:440
3.861:439
3.861:424
3.861:420
3.865:413
3.865:424
3.865:422
3.865:421
3.865:447
3.865:474
3.865:486
3.865:498
3.865:512
3.869:528
3.869:540
3.869:529
3.869:507
3.869:491
3.870:472
3.870:474
3.870:497
3.870:504
3.870:481
3.873:488
3.873:500
3.873:504
3.889:504
3.889:518
3.890:524
3.890:534
3.890:479
3.890:450
3.890:456
3.893:499
3.893:503
3.893:513
3.893:486
3.893:489
3.894:489
3.894:468
3.894:468
3.894:465
3.897:467
3.897:457
3.897:484
3.897:495
3.897:488
3.897:471
3.897:464
3.898:455
3.898:455
3.898:472
3.901:489
3.901:479
3.901:457
3.901:459
3.917:470
3.917:502
3.917:529
3.917:531
3.921:525
3.921:517
3.921:497
3.921:489
3.921:486
3.922:503
3.922:528
3.922:529
3.922:516
3.926:504
3.926:489
3.926:490
3.926:499
3.927:517
3.927:515
3.927:529
3.927:528
3.927:529
3.927:538
3.930:525
3.932:499
3.932:486
3.932:484
3.932:464
3.933:465
3.933:458
3.946:458
3.946:458
3.946:485
3.951:509
3.951:502
3.951:471
3.951:465
3.952:467
3.952:506
3.952:526
3.952:549
3.952:550
3.954:526
3.954:502
3.954:492
3.954:488
3.954:483
3.955:522
3.955:539
3.955:538
3.955:511
3.955:496
3.959:499
3.959:526
3.959:565
3.959:575
3.960:553
3.960:517
3.960:514
3.960:536
3.979:534
3.979:521
3.979:498
3.980:505
3.981:481
3.981:468
3.981:464
3.981:456
3.981:433
3.984:432
3.984:434
3.984:436
3.984:438
3.985:421
3.985:442
3.985:491
3.985:524
3.985:494
3.986:473
3.988:457
3.988:440
3.988:448
3.988:471
3.988:492
3.988:474
3.989:476
3.989:514
3.989:518
3.991:473
3.991:458
4.007:458
4.008:452
4.008:448
4.008:446
4.008:446
4.008:452
4.009:452
4.009:493
4.012:490
4.012:487
4.012:523
4.012:523
4.013:471
4.013:444
4.014:448
4.014:426
4.014:433
4.014:445
4.016:437
4.016:436
4.016:448
4.016:447
4.017:438
4.017:432
4.017:458
4.017:472
4.017:435
4.020:417
4.020:445
4.020:496
4.036:532
4.036:546
4.036:539
4.036:518
4.037:491
4.041:487
4.041:498
4.041:488
4.041:479
4.042:476
4.042:483
4.042:441
4.042:401
4.042:396
4.043:408
4.044:464
4.044:509
4.044:539
4.045:531
4.045:531
4.045:528
4.045:544
4.045:550
4.046:555
4.048:557
4.048:554
4.049:561
4.049:541
4.049:513
4.049:481
4.065:481
4.065:487
4.065:483
4.065:467
4.069:445
4.069:450
4.069:468
4.069:473
4.070:476
4.070:485
4.070:503
4.070:522
4.070:566
4.070:556
4.074:545
4.074:563
4.074:574
4.074:595
4.075:609
4.075:645
4.075:638
4.075:654
4.075:685
4.078:716
4.078:732
4.078:749
4.078:809
4.079:842
4.079:860
4.079:888
4.092:925
4.097:956
4.098:990
4.098:990
4.098:990
4.098:982
4.098:951
4.099:950
4.099:941
4.099:886
4.102:819
4.102:780
4.102:696
4.102:591
4.102:536
4.102:510
4.104:478
4.104:445
4.104:436
4.104:405
4.106:368
4.106:370
4.106:372
4.106:370
4.107:371
4.107:345
4.107:331
4.107:324
4.107:304
4.108:305
4.127:305
4.127:309
4.127:315
4.128:314
4.128:322
4.128:340
4.128:374
4.128:405
4.128:418
4.129:426
4.131:437
4.131:455
4.131:474
4.131:486
4.132:481
4.132:471
4.132:447
4.132:426
4.132:402
4.135:400
4.135:418
4.135:386
4.135:391
4.136:424
4.136:432
4.136:441
4.136:457
4.136:478
4.137:491
4.139:486
4.155:473
4.155:472
4.156:490
4.156:498
4.156:489
4.156:482
4.159:484
4.160:473
4.160:467
4.160:443
4.161:430
4.161:400
4.161:374
4.161:388
4.161:409
4.161:398
4.164:397
4.164:433
4.164:468
4.164:482
4.165:479
4.165:500
4.165:504
4.165:504
4.165:502
4.167:493
4.167:484
4.167:470
4.167:463
4.167:459
4.184:459
4.184:444
4.184:451
4.184:479
4.184:499
4.185:498
4.188:507
4.188:488
4.188:466
4.188:426
4.188:430
4.188:468
4.188:501
4.189:507
4.189:485
4.192:466
4.192:471
4.192:473
4.192:458
4.192:447
4.194:446
4.194:461
4.194:465
4.194:464
4.194:460
4.196:470
4.196:468
4.196:469
4.196:483
4.196:488
4.212:518
4.212:538
4.217:550
4.217:543
4.217:536
4.217:530
4.218:500
4.218:480
4.218:484
4.218:473
4.218:477
4.219:508
4.221:494
4.221:475
4.221:467
4.221:458
4.222:465
4.222:485
4.222:504
4.222:496
4.222:489
4.225:509
4.225:517
4.225:521
4.225:538
4.226:553
4.226:535
4.226:535
4.226:559
4.226:527
4.241:527
4.245:494
4.245:482
4.246:473
4.246:488
4.246:506
4.247:502
4.247:487
4.247:479
4.248:475
4.248:486
4.249:504
4.250:496
4.250:496
4.250:520
4.250:531
4.251:524
4.251:507
4.251:527
4.251:525
4.254:505
4.254:496
4.254:526
4.254:540
4.254:547
4.255:548
4.255:542
4.255:549
4.255:562
4.255:573
4.274:561
4.274:545
4.275:547
4.275:554
4.275:533
4.275:506
4.275:509
4.276:530
4.278:528
4.278:505
4.278:488
4.278:478
4.279:487
4.280:496
4.280:490
4.280:500
4.280:507
4.282:517
4.282:522
4.282:546
4.282:546
4.282:539
4.284:534
4.284:555
4.284:586
4.284:591
4.284:573
4.286:561
4.286:576
4.286:573
4.302:573
4.302:608
4.302:622
4.302:580
4.302:500
4.302:474
4.304:515
4.307:567
4.307:578
4.307:574
4.307:557
4.308:544
4.308:556
4.308:584
4.308:596
4.308:597
4.311:605
4.311:606
4.311:586
4.311:565
4.312:547
4.312:596
4.312:621
4.313:625
4.313:606
4.314:574
4.314:557
4.315:553
4.315:538
4.315:559
4.331:607
4.331:625
4.331:623
4.331:625
4.334:629
4.334:623
4.336:619
4.336:611
4.336:588
4.336:579
4.336:578
4.337:578
4.337:559
4.340:553
4.340:558
4.340:588
4.340:579
4.341:588
4.341:575
4.341:562
4.341:560
4.341:612
4.342:631
4.343:606
4.344:584
4.344:573
4.344:590
4.344:599
4.344:603
4.344:602
4.359:602
4.359:607
4.360:604
4.364:598
4.364:587
4.364:570
4.364:569
4.364:555
4.364:540
4.364:550
4.364:573
4.364:563
4.368:522
4.368:472
4.368:476
4.368:521
4.369:544
4.369:546
4.369:553
4.369:527
4.369:512
4.370:486
4.373:440
4.373:427
4.373:432
4.373:416
4.373:405
4.373:399
4.374:418
4.374:450
4.393:456
4.393:470
4.393:475
4.393:491
4.393:481
4.393:440
4.394:434
4.394:437
4.394:450
4.396:451
4.397:453
4.397:447
4.397:412
4.397:373
4.397:334
4.398:292
4.398:264
4.398:289
4.398:322
4.400:332
4.401:375
4.401:427
4.401:448
4.401:422
4.401:373
4.402:361
4.402:358
4.402:366
4.405:405
4.405:410
4.421:410
4.421:402
4.421:383
4.421:359
4.422:347
4.422:354
4.422:332
4.422:323
4.425:351
4.425:356
4.425:367
4.425:356
4.426:354
4.426:343
4.426:367
4.426:401
4.426:418
4.427:427
4.430:434
4.430:429
4.430:397
4.430:402
4.431:405
4.431:400
4.431:392
4.431:395
4.431:389
4.434:394
4.434:402
4.434:396
4.449:394
4.450:394
4.450:416
4.450:420
4.450:421
4.454:418
4.454:415
4.454:407
4.454:413
4.454:441
4.454:453
4.455:433
4.455:405
4.455:390
4.455:376
4.458:383
4.458:368
4.458:335
4.458:367
4.458:402
4.458:413
4.459:388
4.459:366
4.459:351
4.462:343
4.462:351
4.462:354
4.464:387
4.464:409
4.464:430
4.478:430
4.478:463
4.478:452
4.479:428
4.483:421
4.484:435
4.484:447
4.484:414
4.484:401
4.484:427
4.485:453
4.485:446
4.485:443
4.485:424
4.487:386
4.487:330
4.487:316
4.488:346
4.488:377
4.488:390
4.488:407
4.488:415
4.489:421
4.491:434
4.491:454
4.491:459
4.491:428
4.492:389
4.492:401
4.492:422
4.507:429
4.512:434
4.512:428
4.512:459
4.512:467
4.512:446
4.512:442
4.512:455
4.512:448
4.514:442
4.516:445
4.516:438
4.516:416
4.516:372
4.517:388
4.517:415
4.517:413
4.517:408
4.517:419
4.517:442
4.520:446
4.520:468
4.520:501
4.520:534
4.521:565
4.521:568
4.521:531
4.521:502
4.521:479
4.521:456
4.540:456
4.540:432
4.540:427
4.540:436
4.541:420
4.541:408
4.541:399
4.541:398
4.541:405
4.542:398
4.544:410
4.544:415
4.544:440
4.545:492
4.545:535
4.545:555
4.545:549
4.545:531
4.545:517
4.548:510
4.548:507
4.548:495
4.548:484
4.549:469
4.549:443
4.549:443
4.549:462
4.549:466
4.550:451
4.551:437
4.568:435
4.568:440
4.568:421
4.569:420
4.569:425
4.569:417
4.573:434
4.573:453
4.574:486
4.574:472
4.574:429
4.574:423
4.574:425
4.575:424
4.575:417
4.575:427
4.577:443
4.577:450
4.577:459
4.577:463
4.578:453
4.578:438
4.578:446
4.578:436
4.578:447
4.581:481
4.581:494
4.581:495
4.581:509
4.582:530
4.597:530
4.597:519
4.597:510
4.597:495
4.597:487
4.602:449
4.602:436
4.602:444
4.602:456
4.603:476
4.603:473
4.603:460
4.603:460
4.603:472
4.604:488
4.606:505
4.606:486
4.606:478
4.606:480
4.607:489
4.607:493
4.607:489
4.607:479
4.607:484
4.610:488
4.610:480
4.610:481
4.610:463
4.611:444
4.611:441
4.625:443
4.626:437
4.630:415
4.630:430
4.630:460
4.630:468
4.631:471
4.631:482
4.631:498
4.631:509
4.631:502
4.631:487
4.634:496
4.634:499
4.634:485
4.635:484
4.635:498
4.635:472
4.635:467
4.636:454
4.636:418
4.639:403
4.639:394
4.639:421
4.639:452
4.639:460
4.639:464
4.639:451
4.640:460
4.640:486
4.654:486
4.659:480
4.659:478
4.659:466
4.659:455
4.660:461
4.660:478
4.660:492
4.660:490
4.660:473
4.661:487
4.664:505
4.664:504
4.664:506
4.665:501
4.665:470
4.665:457
4.665:450
4.665:438
4.666:452
4.667:488
4.667:505
4.667:509
4.667:498
4.668:497
4.668:499
4.668:511
4.668:490
4.668:460
4.669:436
4.687:455
4.688:479
4.688:483
4.688:484
4.688:472
4.688:478
4.689:491
4.689:479
4.691:451
4.692:462
4.692:463
4.692:462
4.692:442
4.692:430
4.693:437
4.693:458
4.693:457
4.696:434
4.696:446
4.696:473
4.697:489
4.697:492
4.697:494
4.697:491
4.697:504
4.697:522
4.698:543
4.700:515
4.700:493
4.700:501
4.716:501
4.716:514
4.716:511
4.716:519
4.716:525
4.717:504
4.717:468
4.720:477
4.720:471
4.720:437
4.720:420
4.721:431
4.721:448
4.721:446
4.721:445
4.721:454
4.724:475
4.724:498
4.724:497
4.724:466
4.724:470
4.724:492
4.725:511
4.725:517
4.725:513
4.725:505
4.728:477
4.728:474
4.730:461
4.730:452
4.745:472
4.745:491
4.745:475
4.745:468
4.749:462
4.749:456
4.749:482
4.749:535
4.749:563
4.749:547
4.750:541
4.750:516
4.750:500
4.753:470
4.754:445
4.754:428
4.754:439
4.754:450
4.754:454
4.755:461
4.755:464
4.755:469
4.755:468
4.757:493
4.757:478
4.758:443
4.758:442
4.758:451
4.758:480
4.758:512
4.772:512
4.774:510
4.774:489
4.778:499
4.778:515
4.778:539
4.778:532
4.778:511
4.779:476
4.779:469
4.780:476
4.780:456
4.782:434
4.782:421
4.782:419
4.782:429
4.783:462
4.783:499
4.783:529
4.783:534
4.783:514
4.784:507
4.786:510
4.786:523
4.786:542
4.786:549
4.787:516
4.787:489
4.787:479
4.787:483
4.806:480
4.806:482
4.806:477
4.806:461
4.807:427
4.807:410
4.807:397
4.807:455
4.807:500
4.810:518
4.810:516
4.810:515
4.810:503
4.811:514
4.811:518
4.811:501
4.811:480
4.811:474
4.812:465
4.814:458
4.814:458
4.815:433
4.815:416
4.815:425
4.815:451
4.815:464
4.815:476
4.816:490
4.819:508
4.819:514
4.835:514
4.835:507
4.835:495
4.835:503
4.835:505
4.835:498
4.836:478
4.836:498
4.839:492
4.839:483
4.839:484
4.839:478
4.840:476
4.840:479
4.840:484
4.840:494
4.840:503
4.841:506
4.842:483
4.842:470
4.842:466
4.844:510
4.844:548
4.844:532
4.844:515
4.844:497
4.844:481
4.847:467
4.847:463
4.847:453
4.863:448
4.863:452
4.864:457
4.864:463
4.864:435
4.868:426
4.868:455
4.868:464
4.868:455
4.869:492
4.869:531
4.869:552
4.869:546
4.869:521
4.872:533
4.872:560
4.872:592
4.872:590
4.872:544
4.872:522
4.872:513
4.872:490
4.872:453
4.873:436
4.876:426
4.876:418
4.876:416
4.876:423
4.877:466
4.877:487
4.892:487
4.892:488
4.892:465
4.892:462
4.896:513
4.896:547
4.897:546
4.897:527
4.897:509
4.897:471
4.897:476
4.897:495
4.897:506
4.897:467
4.900:438
4.901:431
4.901:456
4.901:473
4.901:481
4.901:485
4.901:503
4.902:497
4.902:490
4.904:522
4.904:547
4.904:565
4.904:541
4.904:503
4.906:493
4.906:485
4.920:478
4.925:464
4.925:475
4.925:482
4.925:480
4.925:465
4.926:461
4.926:459
4.926:482
4.926:501
4.929:480
4.929:510
4.930:554
4.930:582
4.930:564
4.930:540
4.932:527
4.932:542
4.932:557
4.932:522
4.933:476
4.933:435
4.933:444
4.934:455
4.934:484
4.934:477
4.934:440
4.934:441
4.935:462
4.937:482
4.954:482
4.954:491
4.954:507
4.954:521
4.955:518
4.955:497
4.955:496
4.955:513
4.955:541
4.958:546
4.958:535
4.958:512
4.958:473
4.958:493
4.959:501
4.959:495
4.959:498
4.959:507
4.959:499
4.962:481
4.962:492
4.962:517
4.964:537
4.964:566
4.964:583
4.964:572
4.964:546
4.965:549
4.965:566
4.966:602
4.982:579
4.982:535
4.983:494
4.983:472
4.983:449
4.983:422
4.987:416
4.987:435
4.987:452
4.987:443
4.988:449
4.988:484
4.988:504
4.988:497
4.988:489
4.989:483
4.991:507
4.991:525
4.991:510
4.991:489
4.992:491
4.992:497
4.992:483
4.992:468
4.992:442
4.994:456
4.994:462
4.994:463
4.996:446
4.996:453
5.011:453
5.011:480
5.011:488
5.011:478
5.011:438
5.015:433
5.015:448
5.015:475
5.015:489
5.016:487
5.016:479
5.016:460
5.016:463
5.016:469
5.017:475
5.019:448
5.019:444
5.019:442
5.019:447
5.020:457
5.020:470
5.020:475
5.020:470
5.020:482
5.023:477
5.024:479
5.024:485
5.024:497
5.024:505
5.025:500
5.040:480
5.040:463
5.044:458
5.044:466
5.044:479
5.044:455
5.044:447
5.045:439
5.045:424
5.045:424
5.045:456
5.045:496
5.047:526
5.048:518
5.048:497
5.048:501
5.048:507
5.048:519
5.048:521
5.049:508
5.049:495
5.052:478
5.052:466
5.052:449
5.052:454
5.052:464
5.052:467
5.052:467
5.054:469
5.054:468
5.068:468
5.073:472
5.073:487
5.073:501
5.074:526
5.074:527
5.074:521
5.074:522
5.074:537
5.074:559
5.075:589
5.077:586
5.077:568
5.077:528
5.077:518
5.078:555
5.078:593
5.078:616
5.079:634
5.079:648
5.081:659
5.081:679
5.081:720
5.081:762
5.082:797
5.082:812
5.082:860
5.082:900
5.082:925
5.082:950
5.101:965
5.101:979
5.101:982
5.101:989
5.101:977
5.101:973
5.101:943
5.103:919
5.105:880
5.105:848
5.105:801
5.105:736
5.105:646
5.105:572
5.105:523
5.106:481
5.106:449
5.109:446
5.109:436
5.109:419
5.110:388
5.110:357
5.110:354
5.110:325
5.110:301
5.111:296
5.111:297
5.112:298
5.112:289
5.114:284
5.129:284
5.130:290
5.130:350
5.130:396
5.130:386
5.130:379
5.131:378
5.134:427
5.134:450
5.134:451
5.135:428
5.135:400
5.135:381
5.135:386
5.135:391
5.135:390
5.138:398
5.138:399
5.138:388
5.138:418
5.139:441
5.139:444
5.139:437
5.139:436
5.139:426
5.139:426
5.142:423
5.142:435
5.142:434
5.142:434
5.157:468
5.158:475
5.158:468
5.162:451
5.163:435
5.163:430
5.163:434
5.163:418
5.164:418
5.164:422
5.164:415
5.164:430
5.164:447
5.167:486
5.167:502
5.167:477
5.167:449
5.168:455
5.168:476
5.168:494
5.168:505
5.168:511
5.169:507
5.170:508
5.171:482
5.171:439
5.171:423
5.172:425
5.172:464
5.172:489
5.187:489
5.187:474
5.187:464
5.191:477
5.191:502
5.191:502
5.192:489
5.192:471
5.192:474
5.192:479
5.192:499
5.192:496
5.196:484
5.197:489
5.197:472
5.197:472
5.197:480
5.197:496
5.197:470
5.197:479
5.197:483
5.198:489
5.199:482
5.199:474
5.199:486
5.199:458
5.200:447
5.200:434
5.200:420
5.200:434
5.220:462
5.220:471
5.220:488
5.220:475
5.221:451
5.221:472
5.221:496
5.221:502
5.221:478
5.224:483
5.224:488
5.224:482
5.225:474
5.225:458
5.225:481
5.225:500
5.225:507
5.226:520
5.228:544
5.228:544
5.230:551
5.230:530
5.230:516
5.231:519
5.231:507
5.231:489
5.231:466
5.232:465
5.232:446
5.232:451
5.249:451
5.249:458
5.249:471
5.249:498
5.249:486
5.249:487
5.250:498
5.250:522
5.253:550
5.253:569
5.253:559
5.253:532
5.254:510
5.254:534
5.254:550
5.254:511
5.254:515
5.255:516
5.257:501
5.257:472
5.257:469
5.257:491
5.257:489
5.257:489
5.258:508
5.258:524
5.258:516
5.261:509
5.261:503
5.261:523
5.277:535
5.277:552
5.277:585
5.277:595
5.277:545
5.281:506
5.281:517
5.281:523
5.281:518
5.282:498
5.282:512
5.282:511
5.282:505
5.282:486
5.286:497
5.286:534
5.286:556
5.287:564
5.287:555
5.287:556
5.287:550
5.288:552
5.288:557
5.288:547
5.289:527
5.289:503
5.289:488
5.289:471
5.291:480
5.291:498
5.306:498
5.306:520
5.306:530
5.306:541
5.310:531
5.310:561
5.310:587
5.310:594
5.310:621
5.310:620
5.312:632
5.312:641
5.312:625
5.313:598
5.314:587
5.314:604
5.314:598
5.314:570
5.315:529
5.315:529
5.315:528
5.315:533
5.315:519
5.318:527
5.318:526
5.318:530
5.318:559
5.319:574
5.319:597
5.319:587
5.334:606
5.339:622
5.339:620
5.339:623
5.339:624
5.340:602
5.340:577
5.340:578
5.340:580
5.340:563
5.343:548
5.343:543
5.343:581
5.344:590
5.344:567
5.344:569
5.344:565
5.345:561
5.345:559
5.346:560
5.346:577
5.346:588
5.347:579
5.347:575
5.347:577
5.347:573
5.348:559
5.348:533
5.348:503
5.350:520
5.367:520
5.367:543
5.367:538
5.367:540
5.368:543
5.368:553
5.368:566
5.368:567
5.368:548
5.372:536
5.372:512
5.372:518
5.372:545
5.372:565
5.372:571
5.372:560
5.372:537
5.372:513
5.372:496
5.375:497
5.375:514
5.376:472
5.376:439
5.376:426
5.376:449
5.376:469
5.377:459
5.377:462
5.377:461
5.379:460
5.395:480
5.396:490
5.396:473
5.396:438
5.396:420
5.396:402
5.400:394
5.400:385
5.400:403
5.400:417
5.401:420
5.401:403
5.401:372
5.401:354
5.401:352
5.402:379
5.404:415
5.404:435
5.404:427
5.404:421
5.405:416
5.405:426
5.405:415
5.405:417
5.405:423
5.408:398
5.408:392
5.409:405
5.409:404
5.409:381
5.424:381
5.425:376
5.425:359
5.425:344
5.425:340
5.429:342
5.430:339
5.430:349
5.430:368
5.431:373
5.431:379
5.431:384
5.431:391
5.431:370
5.432:384
5.433:387
5.434:388
5.434:403
5.434:399
5.434:409
5.434:407
5.434:409
5.435:411
5.435:417
5.437:414
5.437:401
5.437:397
5.437:405
5.438:407
5.438:388
5.452:402
5.452:415
5.458:441
5.458:451
5.458:435
5.458:431
5.459:458
5.459:477
5.459:456
5.459:432
5.459:432
5.460:439
5.462:397
5.462:364
5.463:343
5.463:326
5.464:306
5.464:301
5.464:320
5.464:320
5.464:310
5.465:338
5.465:385
5.465:402
5.466:399
5.466:418
5.466:432
5.466:435
5.466:444
5.466:446
5.481:446
5.486:425
5.486:393
5.486:370
5.486:356
5.487:373
5.487:387
5.487:383
5.487:370
5.487:382
5.488:403
5.490:424
5.490:454
5.490:483
5.490:490
5.491:476
5.491:447
5.491:446
5.491:451
5.491:452
5.494:458
5.494:442
5.495:436
5.495:425
5.496:406
5.496:382
5.496:381
5.496:390
5.496:406
5.496:419
5.514:391
5.515:377
5.515:390
5.515:421
5.515:445
5.515:465
5.515:436
5.516:429
5.518:436
5.519:436
5.519:433
5.519:430
5.519:438
5.519:434
5.519:420
5.520:413
5.520:411
5.523:435
5.524:473
5.524:486
5.524:472
5.524:478
5.524:444
5.525:437
5.525:451
5.525:475
5.525:465
5.527:459
5.527:465
5.527:474
5.542:474
5.542:453
5.544:438
5.544:453
5.544:436
5.544:419
5.544:425
5.547:419
5.547:424
5.547:454
5.547:476
5.548:483
5.548:506
5.548:526
5.548:545
5.548:550
5.552:528
5.552:488
5.552:456
5.552:458
5.553:476
5.553:471
5.553:442
5.553:425
5.553:414
5.554:418
5.555:446
5.556:463
5.556:443
5.556:438
5.571:447
5.571:447
5.572:456
5.576:483
5.576:491
5.576:481
5.576:473
5.577:467
5.577:476
5.577:470
5.577:476
5.577:484
5.577:481
5.580:488
5.580:464
5.580:453
5.581:453
5.581:438
5.581:440
5.581:431
5.581:476
5.581:505
5.581:515
5.584:510
5.584:511
5.584:499
5.585:486
5.585:480
5.585:488
5.585:486
5.600:486
5.600:466
5.601:441
5.605:436
5.605:448
5.605:410
5.605:409
5.605:438
5.605:454
5.605:476
5.606:495
5.606:506
5.609:489
5.609:486
5.609:479
5.609:494
5.610:515
5.610:530
5.610:521
5.610:507
5.610:458
5.611:397
5.613:397
5.613:403
5.614:404
5.614:434
5.614:451
5.614:441
5.614:421
5.615:434
5.634:442
5.634:438
5.634:449
5.634:490
5.634:480
5.634:483
5.634:478
5.634:478
5.635:488
5.637:493
5.637:490
5.637:491
5.637:514
5.638:523
5.638:486
5.638:438
5.638:434
5.638:440
5.642:452
5.642:464
5.642:462
5.642:466
5.643:463
5.643:467
5.643:472
5.643:472
5.643:487
5.643:478
5.645:481
5.646:492
5.661:492
5.663:476
5.663:456
5.663:472
5.663:469
5.663:450
5.663:446
5.663:451
5.666:462
5.666:452
5.666:451
5.666:480
5.666:502
5.666:491
5.668:493
5.668:509
5.668:487
5.668:450
5.670:461
5.670:482
5.670:476
5.671:463
5.671:465
5.671:485
5.671:493
5.671:488
5.672:469
5.674:453
5.674:426
5.674:438
5.690:453
5.690:463
5.690:486
5.691:500
5.691:501
5.695:500
5.695:485
5.696:490
5.696:494
5.696:498
5.696:490
5.696:476
5.696:494
5.697:501
5.699:492
5.699:486
5.699:464
5.700:450
5.700:424
5.700:426
5.700:422
5.701:447
5.701:490
5.701:510
5.703:511
5.703:467
5.704:446
5.704:431
5.704:440
5.704:434
5.719:434
5.719:428
5.720:482
5.720:510
5.724:504
5.724:472
5.724:455
5.725:449
5.725:475
5.725:485
5.725:480
5.725:494
5.725:492
5.728:478
5.728:476
5.729:492
5.729:500
5.729:500
5.729:508
5.729:517
5.729:518
5.730:489
5.730:470
5.732:467
5.732:455
5.732:448
5.732:450
5.733:443
5.733:418
5.733:426
5.748:448
5.752:464
5.752:462
5.752:470
5.752:452
5.752:453
5.754:454
5.754:485
5.754:503
5.754:513
5.756:524
5.756:503
5.756:460
5.756:433
5.757:445
5.757:463
5.757:455
5.757:445
5.757:438
5.758:436
5.761:445
5.761:453
5.761:458
5.762:465
5.762:478
5.763:494
5.763:515
5.763:522
5.763:504
5.764:492
5.781:492
5.781:483
5.781:483
5.781:468
5.782:452
5.782:436
5.782:423
5.782:429
5.782:431
5.785:438
5.785:441
5.785:447
5.785:473
5.785:496
5.785:491
5.786:490
5.786:492
5.786:502
5.786:507
5.789:517
5.789:513
5.789:523
5.789:505
5.790:486
5.790:476
5.790:465
5.790:455
5.790:431
5.793:421
5.793:421
5.809:446
5.809:455
5.809:461
5.810:484
5.810:498
5.810:491
5.813:480
5.814:480
5.814:487
5.814:501
5.814:475
5.814:462
5.814:471
5.814:473
5.814:457
5.814:452
5.817:433
5.817:421
5.817:430
5.817:444
5.818:458
5.818:461
5.818:481
5.818:538
5.818:575
5.822:575
5.822:542
5.822:500
5.822:484
5.823:484
5.838:484
5.838:504
5.838:526
5.839:535
5.839:518
5.842:511
5.842:489
5.842:469
5.842:467
5.842:451
5.842:422
5.844:423
5.844:438
5.844:461
5.844:485
5.846:491
5.846:466
5.846:450
5.846:440
5.846:446
5.847:490
5.847:524
5.847:528
5.847:531
5.850:493
5.850:463
5.850:468
5.850:484
5.851:505
5.851:508
5.867:504
5.867:491
5.870:466
5.871:446
5.871:438
5.871:443
5.871:441
5.871:449
5.871:462
5.872:478
5.872:470
5.872:450
5.875:467
5.875:480
5.875:483
5.875:467
5.875:459
5.876:476
5.876:475
5.876:465
5.876:456
5.879:469
5.879:453
5.879:440
5.879:453
5.879:475
5.880:476
5.880:478
5.880:494
5.880:520
5.895:520
5.900:508
5.900:512
5.900:527
5.900:515
5.900:472
5.901:404
5.901:402
5.902:439
5.902:451
5.902:470
5.904:480
5.904:461
5.904:475
5.904:475
5.904:470
5.904:474
5.904:487
5.904:501
5.905:517
5.908:534
5.908:545
5.908:549
5.908:528
5.909:532
5.909:538
5.909:491
5.909:443
5.909:423
5.910:412
5.928:423
5.928:432
5.928:452
5.928:464
5.928:474
5.928:482
5.928:490
5.928:480
5.932:484
5.932:488
5.932:496
5.932:492
5.932:493
5.932:486
5.932:463
5.932:478
5.934:498
5.937:517
5.937:515
5.937:505
5.937:513
5.938:492
5.938:475
5.938:476
5.938:525
5.938:583
5.939:592
5.940:571
5.941:549
5.941:524
5.956:524
5.957:487
5.957:477
5.957:501
5.957:519
5.957:502
5.957:471
5.961:421
5.961:396
5.962:409
5.962:420
5.962:423
5.962:423
5.963:448
5.963:447
5.964:459
5.965:498
5.965:490
5.965:461
5.965:470
5.966:486
5.966:514
5.966:498
5.966:473
5.966:471
5.966:464
5.969:452
5.969:427
5.969:414
5.969:429
5.984:455
5.984:460
5.986:472
5.990:494
5.990:519
5.990:556
5.990:575
5.991:577
5.991:561
5.991:542
5.991:539
5.991:564
5.991:576
5.994:568
5.994:545
5.994:499
5.994:482
5.996:485
5.996:468
5.996:441
5.996:421
5.996:449
5.997:487
5.997:501
5.998:498
5.998:494
5.998:506
5.998:521
5.998:527
5.998:518
6.014:518
6.014:514
6.018:521
6.018:518
6.018:505
6.018:510
6.018:499
6.020:481
6.020:458
6.020:451
6.020:454
6.021:471
6.022:490
6.022:494
6.022:499
6.022:496
6.022:476
6.024:461
6.024:468
6.024:490
6.024:495
6.024:519
6.026:526
6.027:501
6.027:458
6.027:427
6.027:429
6.027:441
6.028:442
6.028:427
6.047:412
6.047:422
6.047:430
6.047:450
6.047:483
6.048:507
6.048:512
6.048:484
6.048:440
6.051:433
6.051:441
6.051:445
6.051:444
6.052:463
6.052:491
6.052:499
6.052:483
6.052:467
6.055:461
6.055:468
6.055:499
6.055:485
6.055:462
6.056:430
6.056:422
6.056:450
6.056:476
6.056:494
6.059:511
6.059:490
6.075:490
6.075:494
6.075:507
6.075:512
6.076:508
6.076:500
6.076:489
6.076:478
6.079:450
6.080:420
6.080:412
6.080:424
6.080:431
6.080:439
6.081:425
6.081:447
6.081:467
6.084:472
6.084:488
6.084:507
6.084:537
6.085:547
6.085:531
6.085:520
6.085:534
6.085:531
6.086:518
6.088:527
6.088:523
6.088:513
6.104:499
6.104:502
6.104:488
6.104:480
6.104:504
6.109:525
6.109:529
6.109:538
6.109:559
6.110:582
6.110:618
6.110:648
6.110:681
6.110:694
6.112:707
6.112:701
6.113:684
6.113:696
6.113:733
6.113:764
6.113:775
6.114:811
6.114:820
6.114:844
6.117:881
6.117:912
6.117:956
6.117:990
6.118:990
6.118:989
6.132:989
6.132:989
6.132:989
6.132:990
6.137:981
6.137:945
6.137:888
6.137:798
6.138:691
6.138:596
6.138:486
6.138:411
6.138:358
6.141:342
6.141:363
6.141:331
6.141:286
6.142:263
6.142:272
6.142:294
6.142:296
6.142:301
6.142:314
6.145:335
6.145:388
6.146:445
6.146:429
6.146:407
6.146:408
6.146:430
6.162:432
6.165:428
6.165:426
6.165:418
6.166:442
6.166:432
6.166:437
6.166:448
6.166:448
6.166:441
6.170:417
6.170:404
6.170:396
6.170:406
6.171:401
6.171:431
6.171:449
6.171:447
6.171:432
6.172:415
6.174:410
6.174:408
6.174:415
6.175:427
6.175:425
6.175:409
6.175:422
6.175:422
6.176:439
6.178:473
6.195:473
6.196:486
6.196:475
6.196:476
6.196:475
6.196:463
6.196:464
6.196:445
6.196:435
6.199:449
6.199:477
6.199:485
6.199:489
6.199:465
6.200:416
6.200:411
6.200:420
6.200:457
6.200:474
6.203:465
6.203:459
6.203:430
6.204:410
6.204:425
6.204:461
6.204:479
6.204:484
6.205:465
6.207:462
6.207:474
6.223:463
6.223:438
6.223:426
6.223:441
6.224:430
6.224:436
6.228:452
6.229:465
6.229:464
6.229:482
6.229:505
6.230:496
6.230:482
6.230:466
6.231:472
6.231:490
6.231:524
6.231:534
6.232:524
6.232:521
6.232:506
6.232:509
6.232:520
6.233:500
6.233:479
6.235:475
6.235:461
6.235:486
6.236:504
6.236:492
6.251:492
6.251:489
6.251:515
6.252:555
6.252:573
6.256:558
6.256:517
6.256:497
6.256:470
6.256:474
6.257:455
6.257:438
6.257:440
6.257:438
6.257:446
6.260:446
6.260:441
6.260:455
6.260:475
6.261:474
6.261:479
6.261:495
6.261:510
6.261:507
6.264:516
6.264:527
6.264:508
6.264:510
6.264:531
6.264:544
6.280:509
6.280:468
6.285:474
6.285:499
6.285:498
6.285:497
6.286:500
6.286:501
6.286:529
6.286:545
6.286:545
6.287:560
6.289:551
6.289:547
6.289:547
6.289:558
6.289:555
6.290:532
6.290:507
6.290:486
6.290:474
6.293:473
6.293:478
6.293:464
6.294:453
6.294:453
6.294:461
6.295:475
6.295:493
6.295:498
6.309:498
6.313:502
6.314:509
6.314:538
6.314:547
6.314:540
6.314:546
6.315:557
6.315:546
6.315:537
6.315:558
6.317:580
6.317:597
6.318:588
6.318:567
6.318:557
6.318:536
6.318:549
6.319:564
6.319:560
6.321:535
6.321:508
6.321:514
6.321:547
6.322:531
6.322:520
6.322:551
6.322:576
6.322:583
6.322:587
6.342:589
6.342:587
6.342:580
6.343:564
6.343:556
6.343:532
6.343:510
6.345:513
6.345:506
6.345:512
6.347:521
6.347:549
6.347:567
6.348:561
6.348:554
6.348:557
6.348:573
6.350:589
6.351:609
6.351:611
6.351:620
6.351:590
6.352:568
6.352:575
6.352:591
6.352:586
6.352:564
6.354:552
6.354:543
6.354:532
6.370:532
6.370:532
6.370:573
6.370:622
6.371:646
6.371:620
6.371:584
6.375:589
6.375:576
6.375:580
6.375:593
6.375:606
6.375:605
6.375:591
6.376:583
6.376:553
6.379:543
6.379:516
6.379:522
6.379:526
6.379:516
6.379:539
6.379:568
6.379:561
6.379:560
6.380:562
6.382:553
6.383:548
6.383:568
6.383:600
6.399:613
6.399:598
6.399:558
6.403:529
6.404:534
6.404:545
6.404:545
6.404:511
6.405:493
6.405:495
6.405:519
6.405:527
6.405:532
6.407:523
6.407:516
6.407:502
6.407:488
6.408:502
6.408:516
6.408:508
6.408:499
6.408:489
6.411:460
6.412:425
6.412:422
6.412:408
6.413:391
6.413:364
6.413:368
6.413:386
6.428:386
6.428:390
6.432:412
6.432:446
6.432:437
6.432:414
6.433:417
6.433:429
6.433:465
6.433:494
6.433:483
6.434:460
6.436:457
6.436:448
6.436:406
6.436:378
6.436:348
6.436:306
6.437:297
6.437:321
6.437:322
6.437:335
6.439:351
6.440:375
6.440:404
6.440:401
6.440:389
6.440:386
6.441:400
6.441:404
6.461:409
6.462:408
6.462:421
6.462:417
6.462:389
6.462:371
6.462:358
6.462:367
6.463:359
6.465:350
6.465:349
6.465:353
6.466:370
6.466:402
6.466:423
6.466:432
6.466:431
6.467:401
6.469:383
6.469:402
6.469:424
6.469:441
6.470:421
6.470:425
6.470:424
6.470:398
6.470:392
6.471:385
6.473:364
6.473:348
6.489:348
6.490:325
6.490:325
6.490:353
6.490:359
6.490:370
6.490:377
6.491:401
6.493:414
6.493:417
6.493:426
6.493:439
6.493:454
6.495:464
6.495:481
6.495:447
6.495:405
6.498:396
6.498:400
6.498:386
6.498:386
6.498:378
6.499:375
6.499:381
6.499:406
6.499:417
6.499:401
6.501:399
6.501:406
6.501:413
6.518:428
6.518:435
6.518:461
6.518:471
6.519:466
6.522:452
6.522:439
6.522:445
6.522:431
6.523:426
6.523:444
6.523:433
6.523:399
6.523:364
6.526:406
6.526:451
6.526:454
6.526:433
6.527:406
6.527:404
6.527:409
6.528:420
6.528:430
6.528:440
6.530:445
6.530:442
6.530:435
6.530:436
6.531:444
6.531:434
6.546:434
6.546:408
6.546:388
6.546:383
6.551:419
6.551:431
6.551:451
6.551:470
6.552:470
6.552:468
6.552:484
6.552:480
6.553:478
6.555:481
6.555:459
6.555:458
6.555:450
6.556:439
6.556:418
6.556:408
6.556:436
6.556:465
6.557:450
6.559:435
6.559:419
6.559:419
6.559:438
6.560:432
6.560:413
6.560:415
6.574:430
6.579:472
6.579:489
6.579:455
6.579:443
6.580:464
6.580:493
6.580:484
6.580:462
6.580:468
6.584:463
6.584:443
6.584:439
6.584:462
6.584:476
6.584:462
6.585:477
6.585:451
6.585:424
6.585:409
6.587:437
6.587:467
6.587:474
6.587:493
6.588:503
6.588:489
6.588:461
6.588:452
6.588:455
6.591:452
6.608:452
6.608:441
6.608:442
6.609:454
6.609:454
6.609:447
6.609:444
6.609:468
6.610:484
6.612:492
6.612:505
6.612:530
6.613:547
6.613:549
6.613:534
6.613:522
6.613:527
6.613:531
6.614:504
6.616:496
6.616:463
6.617:434
6.617:417
6.617:384
6.617:410
6.617:464
6.618:490
6.618:488
6.619:506
6.620:527
6.637:513
6.637:505
6.637:503
6.637:491
6.637:460
6.637:473
6.641:490
6.641:465
6.641:445
6.641:444
6.642:447
6.642:442
6.642:451
6.642:456
6.642:467
6.643:481
6.644:493
6.644:492
6.644:498
6.646:498
6.646:488
6.646:492
6.646:499
6.646:500
6.646:476
6.649:455
6.649:426
6.649:407
6.649:413
6.650:402
6.664:402
6.664:413
6.665:427
6.665:465
6.665:486
6.670:490
6.670:492
6.670:486
6.670:485
6.671:477
6.671:487
6.671:497
6.671:509
6.671:506
6.672:496
6.673:502
6.673:510
6.673:514
6.674:479
6.674:456
6.674:417
6.674:412
6.674:400
6.674:410
6.677:432
6.678:427
6.678:425
6.678:453
6.678:467
6.678:461
6.692:450
6.694:467
6.699:501
6.699:509
6.699:489
6.699:475
6.699:464
6.700:468
6.700:490
6.700:494
6.700:493
6.702:470
6.702:457
6.702:465
6.702:469
6.702:468
6.702:464
6.704:471
6.704:491
6.704:511
6.704:528
6.706:512
6.706:497
6.706:495
6.706:514
6.707:499
6.707:469
6.707:472
6.707:476
6.707:458
6.722:458
6.727:419
6.728:390
6.728:382
6.728:398
6.729:459
6.729:491
6.729:483
6.729:467
6.729:482
6.729:479
6.730:467
6.730:451
6.731:467
6.731:483
6.731:496
6.731:520
6.731:509
6.732:487
6.732:481
6.735:471
6.735:451
6.735:446
6.735:448
6.736:464
6.736:473
6.736:466
6.736:457
6.736:457
6.737:477
6.754:495
6.754:512
6.756:525
6.756:529
6.756:507
6.756:501
6.756:519
6.760:525
6.760:514
6.760:519
6.761:505
6.761:478
6.761:456
6.761:448
6.761:455
6.761:437
6.761:415
6.764:407
6.764:415
6.764:453
6.764:470
6.765:486
6.765:487
6.765:491
6.765:496
6.765:511
6.768:532
6.768:546
6.768:535
6.768:497
6.784:497
6.784:486
6.784:475
6.784:482
6.784:496
6.785:492
6.788:473
6.788:471
6.788:463
6.789:468
6.789:473
6.789:472
6.790:468
6.790:480
6.790:490
6.791:501
6.792:507
6.792:517
6.792:508
6.792:493
6.792:480
6.794:479
6.795:478
6.795:477
6.795:465
6.796:465
6.796:450
6.796:439
6.796:463
6.797:485
6.812:502
6.812:504
6.812:490
6.817:474
6.817:493
6.817:496
6.817:486
6.818:495
6.818:475
6.818:456
6.818:474
6.818:490
6.819:492
6.821:446
6.821:389
6.821:383
6.821:402
6.822:431
6.822:446
6.822:471
6.822:497
6.822:491
6.825:484
6.825:498
6.825:527
6.825:536
6.825:534
6.826:521
6.826:496
6.826:477
6.841:477
6.841:468
6.845:489
6.846:515
6.846:517
6.846:496
6.846:486
6.847:470
6.847:458
6.847:462
6.847:467
6.847:467
6.850:482
6.850:481
6.850:458
6.850:461
6.851:472
6.851:452
6.851:447
6.851:453
6.852:476
6.854:493
6.854:495
6.854:482
6.854:479
6.854:485
6.855:478
6.855:479
6.855:479
6.855:500
6.874:531
6.874:543
6.874:540
6.874:521
6.875:509
6.875:494
6.875:473
6.875:453
6.875:456
6.878:452
6.878:439
6.878:435
6.879:457
6.879:443
6.879:434
6.879:440
6.879:423
6.880:434
6.882:473
6.882:486
6.882:481
6.882:505
6.882:507
6.882:504
6.884:475
6.884:469
6.884:490
6.884:498
6.886:490
6.886:492
6.902:492
6.902:497
6.902:479
6.902:470
6.902:465
6.904:486
6.904:463
6.904:447
6.907:498
6.907:517
6.907:496
6.907:476
6.908:474
6.908:472
6.908:484
6.908:501
6.908:498
6.911:500
6.911:500
6.912:511
6.912:511
6.912:507
6.912:493
6.912:486
6.912:481
6.914:474
6.914:455
6.915:453
6.915:468
6.915:485
6.931:490
6.932:504
6.932:526
6.932:493
6.932:483
6.935:479
6.935:511
6.935:533
6.935:534
6.935:530
6.937:523
6.937:497
6.937:506
6.937:502
6.940:488
6.940:473
6.940:449
6.940:463
6.941:496
6.941:472
6.941:446
6.941:441
6.941:439
6.942:452
6.944:482
6.944:496
6.944:521
6.944:508
6.946:480
6.946:479
6.959:479
6.960:481
6.960:480
6.961:460
6.964:460
6.964:457
6.964:447
6.964:446
6.964:454
6.964:460
6.965:464
6.965:466
6.965:469
6.968:506
6.968:544
6.968:559
6.968:547
6.969:532
6.969:479
6.969:456
6.969:485
6.969:505
6.970:540
6.972:541
6.972:529
6.972:507
6.972:480
6.972:438
6.974:447
6.974:475
6.988:461
6.992:453
6.992:455
6.992:461
6.994:458
6.994:461
6.995:471
6.995:474
6.995:477
6.995:491
6.997:498
6.997:479
6.997:472
6.997:475
6.997:472
6.997:443
6.997:430
6.999:438
6.999:458
6.999:506
7.001:496
7.001:489
7.001:491
7.001:475
7.002:468
7.002:496
7.002:508
7.002:494
7.002:491
7.005:515
7.022:515
7.022:530
7.022:528
7.022:511
7.022:506
7.023:516
7.023:517
7.023:534
7.023:529
7.026:527
7.026:516
7.026:497
7.026:504
7.026:502
7.026:496
7.027:496
7.028:495
7.028:513
7.028:543
7.029:538
7.030:532
7.030:545
7.030:564
7.030:546
7.030:516
7.031:510
7.031:489
7.031:486
7.034:485
7.034:512
7.050:532
7.050:500
7.051:458
7.051:467
7.051:499
7.051:530
7.055:538
7.055:530
7.055:542
7.055:534
7.056:518
7.056:542
7.056:551
7.056:541
7.056:521
7.057:522
7.058:498
7.058:461
7.059:469
7.059:471
7.059:474
7.059:486
7.059:506
7.060:500
7.060:508
7.062:509
7.062:516
7.063:508
7.063:489
7.063:481
7.079:481
7.079:476
7.079:477
7.079:450
7.079:447
7.083:463
7.084:481
7.084:461
7.084:455
7.084:448
7.084:427
7.085:393
7.085:373
7.085:397
7.085:442
7.087:473
7.087:488
7.087:480
7.088:473
7.088:472
7.088:461
7.088:455
7.088:473
7.088:495
7.091:501
7.091:464
7.091:427
7.091:396
7.092:405
7.092:424
7.107:421
7.107:460
7.112:493
7.112:486
7.112:474
7.113:467
7.113:450
7.113:482
7.113:506
7.113:492
7.113:500
7.115:506
7.116:501
7.116:494
7.116:507
7.116:483
7.116:456
7.117:442
7.117:417
7.117:449
7.118:470
7.120:470
7.120:465
7.120:486
7.120:505
7.121:501
7.121:489
7.121:495
7.121:520
7.121:541
7.135:541
7.140:526
7.140:499
7.140:485
7.140:477
7.141:470
7.141:452
7.141:461
7.141:483
7.141:470
7.142:441
7.144:423
7.144:433
7.145:451
7.145:471
7.145:497
7.145:513
7.145:518
7.145:515
7.145:518
7.148:519
7.148:525
7.148:530
7.148:556
7.149:562
7.149:565
7.149:547
7.149:546
7.149:588
7.150:609
7.168:624
7.169:619
7.169:618
7.169:641
7.169:672
7.169:692
7.169:703
7.173:709
7.174:704
7.174:712
7.174:756
7.174:802
7.174:818
7.175:854
7.175:890
7.175:905
7.175:939
7.177:978
7.177:990
7.178:990
7.178:990
7.178:989
7.178:989
7.178:989
7.178:990
7.179:955
7.181:887
7.181:812
7.181:748
7.181:658
7.197:658
7.197:560
7.197:502
7.197:439
7.197:388
7.197:361
7.202:352
7.202:333
7.202:331
7.202:302
7.203:262
7.203:246
7.203:258
7.203:283
7.203:314
7.204:349
7.206:381
7.206:400
7.206:413
7.206:392
7.206:387
7.207:399
7.207:431
7.207:445
7.207:453
7.207:446
7.210:418
7.210:396
7.210:390
7.210:388
7.226:375
7.226:377
7.226:375
7.230:402
7.230:429
7.230:436
7.230:424
7.231:428
7.231:449
7.231:467
7.231:458
7.231:429
7.232:431
7.235:454
7.235:469
7.235:451
7.235:428
7.235:418
7.235:418
7.236:407
7.236:394
7.236:393
7.238:398
7.238:412
7.238:423
7.239:430
7.239:442
7.239:447
7.239:455
7.240:451
7.254:451
7.255:448
7.259:440
7.259:457
7.259:459
7.260:471
7.261:463
7.261:435
7.261:415
7.261:418
7.262:447
7.262:465
7.263:468
7.263:458
7.263:452
7.264:442
7.264:441
7.264:466
7.264:480
7.265:478
7.265:451
7.267:422
7.267:444
7.267:495
7.267:496
7.268:492
7.268:504
7.268:499
7.268:489
7.268:467
7.287:446
7.287:437
7.287:443
7.288:460
7.288:473
7.288:461
7.288:466
7.288:477
7.288:475
7.291:501
7.292:532
7.292:516
7.292:488
7.292:476
7.292:474
7.294:505
7.294:542
7.294:555
7.296:528
7.296:488
7.296:455
7.296:434
7.297:450
7.297:460
7.297:463
7.297:461
7.297:459
7.298:487
7.300:511
7.300:517
7.316:517
7.316:500
7.316:499
7.316:503
7.317:498
7.317:497
7.317:502
7.317:486
7.321:498
7.321:515
7.321:496
7.321:479
7.322:486
7.322:506
7.322:492
7.322:497
7.322:502
7.324:533
7.324:572
7.324:560
7.324:535
7.324:521
7.324:545
7.325:560
7.325:574
7.325:584
7.325:566
7.328:537
7.328:512
7.328:485
7.344:463
7.344:453
7.344:472
7.344:475
7.346:466
7.349:493
7.349:504
7.349:491
7.350:503
7.350:507
7.350:479
7.350:455
7.350:448
7.351:457
7.354:496
7.354:511
7.354:520
7.354:541
7.354:559
7.355:526
7.355:481
7.355:490
7.355:533
7.355:579
7.357:583
7.357:554
7.358:535
7.358:517
7.358:523
7.358:534
7.372:534
7.374:545
7.374:544
7.374:530
7.378:550
7.378:592
7.378:564
7.378:517
7.378:496
7.379:498
7.379:507
7.379:527
7.379:518
7.382:505
7.382:521
7.382:510
7.382:514
7.383:527
7.383:544
7.383:566
7.383:588
7.383:580
7.383:576
7.386:590
7.386:585
7.386:593
7.386:584
7.387:568
7.387:581
7.387:592
7.407:595
7.407:585
7.407:568
7.407:549
7.408:554
7.408:578
7.408:604
7.408:603
7.408:600
7.409:578
7.411:567
7.411:575
7.411:573
7.412:604
7.412:617
7.412:607
7.412:599
7.412:598
7.412:619
7.412:611
7.414:593
7.415:574
7.415:554
7.415:559
7.415:575
7.415:565
7.415:546
7.416:550
7.416:558
7.419:584
7.435:584
7.435:609
7.435:627
7.435:608
7.435:604
7.436:602
7.436:598
7.436:571
7.436:544
7.439:536
7.439:548
7.439:542
7.439:530
7.440:534
7.440:540
7.440:541
7.440:534
7.440:530
7.441:525
7.444:523
7.444:540
7.444:559
7.445:574
7.445:569
7.445:579
7.445:571
7.445:574
7.445:575
7.447:567
7.447:545
7.464:493
7.464:457
7.464:422
7.464:426
7.464:469
7.465:486
7.468:475
7.468:470
7.468:466
7.468:462
7.469:470
7.469:482
7.469:504
7.469:521
7.469:531
7.472:500
7.472:476
7.472:466
7.472:461
7.472:437
7.472:426
7.472:427
7.474:416
7.474:415
7.474:423
7.476:441
7.476:429
7.477:425
7.477:426
7.477:412
7.492:412
7.492:421
7.492:396
7.492:395
7.492:395
7.497:397
7.497:418
7.497:432
7.497:434
7.498:419
7.498:390
7.498:337
7.498:288
7.498:286
7.499:327
7.500:347
7.500:353
7.500:350
7.501:355
7.501:354
7.501:359
7.501:379
7.501:397
7.502:403
7.505:410
7.505:417
7.505:417
7.505:442
7.506:425
7.506:386
7.521:366
7.521:378
7.525:361
7.525:330
7.525:319
7.525:316
7.526:327
7.526:345
7.527:354
7.527:347
7.527:357
7.529:381
7.529:401
7.529:409
7.529:396
7.530:400
7.530:408
7.530:406
7.530:393
7.530:377
7.530:370
7.534:381
7.534:389
7.534:375
7.534:372
7.535:366
7.535:379
7.535:391
7.535:393
7.535:388
7.549:388
7.554:380
7.554:395
7.554:416
7.555:437
7.555:446
7.555:458
7.555:440
7.555:414
7.555:399
7.558:388
7.558:383
7.558:373
7.558:371
7.559:386
7.559:429
7.559:436
7.559:424
7.560:420
7.560:403
7.562:402
7.562:420
7.563:434
7.563:425
7.563:417
7.563:426
7.563:468
7.563:501
7.563:513
7.564:496
7.582:477
7.583:463
7.583:441
7.583:406
7.583:406
7.583:419
7.583:434
7.587:407
7.587:366
7.587:366
7.587:374
7.588:363
7.588:399
7.588:434
7.588:445
7.588:454
7.589:470
7.591:480
7.591:496
7.591:496
7.591:496
7.592:513
7.592:502
7.592:486
7.592:472
7.592:472
7.594:469
7.594:448
7.594:452
7.594:448
7.611:448
7.611:408
7.611:408
7.611:447
7.611:452
7.611:460
7.615:444
7.615:446
7.615:461
7.616:495
7.616:515
7.616:493
7.616:472
7.616:467
7.617:459
7.617:438
7.620:418
7.620:377
7.620:394
7.620:403
7.621:421
7.621:472
7.621:492
7.621:465
7.621:423
7.623:424
7.624:416
7.624:434
7.624:465
7.624:463
7.640:436
7.640:439
7.640:451
7.645:454
7.645:448
7.645:406
7.645:373
7.645:382
7.645:407
7.645:448
7.645:479
7.645:492
7.645:493
7.648:492
7.648:488
7.648:516
7.648:530
7.649:512
7.649:539
7.649:547
7.649:503
7.649:491
7.652:474
7.652:437
7.652:425
7.652:435
7.652:449
7.652:435
7.654:405
7.654:402
7.668:402
7.668:448
7.672:477
7.672:463
7.672:476
7.672:454
7.672:442
7.672:434
7.672:466
7.674:497
7.674:524
7.674:491
7.676:455
7.676:473
7.677:454
7.677:461
7.677:450
7.677:438
7.677:444
7.677:419
7.678:429
7.681:437
7.681:423
7.681:437
7.681:449
7.681:457
7.681:474
7.681:479
7.681:505
7.681:501
7.701:504
7.701:506
7.701:504
7.701:498
7.701:479
7.701:481
7.702:488
7.702:498
7.702:494
7.705:501
7.705:473
7.705:464
7.705:488
7.706:519
7.706:552
7.706:540
7.706:496
7.706:480
7.709:481
7.709:482
7.710:495
7.710:499
7.710:528
7.710:555
7.710:545
7.710:516
7.710:461
7.710:422
7.712:408
7.712:369
7.730:369
7.730:364
7.730:359
7.730:367
7.730:339
7.730:355
7.731:418
7.731:482
7.734:533
7.734:526
7.734:488
7.734:496
7.735:492
7.735:455
7.735:466
7.735:444
7.735:449
7.738:455
7.738:458
7.738:447
7.738:462
7.738:470
7.739:460
7.739:461
7.739:472
7.740:488
7.740:473
7.742:463
7.742:461
7.742:488
7.758:501
7.758:513
7.759:521
7.759:509
7.762:473
7.763:446
7.763:456
7.763:471
7.763:484
7.763:456
7.764:445
7.764:432
7.764:430
7.765:462
7.767:493
7.767:498
7.767:481
7.767:485
7.767:489
7.768:512
7.768:512
7.768:487
7.768:489
7.768:509
7.770:519
7.771:507
7.771:497
7.771:480
7.771:478
7.771:492
7.787:492
7.787:504
7.787:515
7.787:503
7.791:494
7.791:519
7.791:540
7.792:525
7.792:505
7.792:488
7.792:514
7.794:520
7.794:497
7.795:479
7.795:453
7.796:438
7.796:446
7.796:460
7.797:454
7.797:448
7.797:415
7.798:403
7.798:407
7.799:401
7.800:434
7.800:456
7.800:471
7.800:477
7.800:492
7.802:495
7.819:496
7.820:483
7.820:491
7.820:496
7.821:502
7.821:517
7.821:525
7.822:523
7.822:501
7.822:476
7.824:447
7.824:446
7.825:438
7.825:426
7.825:435
7.825:444
7.826:451
7.826:467
7.827:488
7.828:514
7.828:532
7.828:504
7.829:482
7.829:463
7.829:460
7.829:453
7.829:456
7.830:470
7.830:474
7.832:489
7.848:489
7.848:497
7.849:492
7.849:471
7.849:461
7.849:456
7.849:485
7.849:521
7.850:514
7.852:519
7.852:523
7.852:522
7.852:516
7.854:530
7.854:514
7.854:517
7.854:502
7.854:472
7.854:451
7.857:466
7.857:484
7.857:476
7.857:459
7.857:460
7.858:476
7.858:480
7.858:468
7.858:468
7.860:484
7.861:486
7.877:489
7.878:491
7.878:486
7.878:484
7.879:487
7.879:500
7.882:493
7.882:466
7.882:472
7.883:480
7.883:488
7.883:487
7.883:496
7.884:511
7.884:504
7.885:491
7.885:489
7.885:482
7.886:469
7.886:465
7.886:486
7.886:493
7.887:477
7.887:471
7.888:516
7.889:518
7.889:479
7.889:430
7.890:433
7.890:461
7.906:461
7.906:466
7.906:467
7.906:466
7.906:450
7.909:458
7.910:503
7.910:507
7.910:485
7.910:500
7.911:512
7.911:517
7.911:547
7.911:573
7.911:562
7.914:516
7.914:467
7.914:442
7.914:445
7.915:451
7.915:437
7.915:441
7.915:461
7.915:489
7.918:503
7.918:499
7.918:488
7.918:472
7.918:475
7.919:485
7.934:492
7.935:494
7.939:513
7.939:519
7.939:516
7.940:497
7.940:485
7.940:485
7.941:454
7.941:434
7.941:451
7.943:457
7.943:450
7.943:442
7.943:457
7.944:474
7.944:481
7.944:482
7.944:490
7.944:478
7.944:486
7.946:511
7.946:513
7.946:520
7.948:521
7.948:513
7.948:509
7.948:494
7.948:480
7.949:477
7.962:477
7.967:487
7.967:495
7.967:474
7.968:446
7.968:453
7.968:462
7.968:474
7.968:493
7.968:510
7.971:516
7.971:540
7.971:550
7.972:566
7.972:565
7.972:562
7.972:533
7.972:481
7.972:465
7.972:470
7.975:457
7.975:427
7.976:426
7.976:431
7.977:442
7.977:447
7.977:449
7.977:460
7.977:450
7.977:451
7.996:469
7.996:480
7.996:501
7.997:520
7.997:529
7.997:531
7.997:529
8.000:514
8.000:493
8.000:466
8.000:475
8.000:487
8.000:465
8.001:470
8.001:478
8.001:456
8.001:440
8.004:449
8.004:448
8.004:472
8.005:494
8.005:501
8.005:514
8.005:538
8.005:560
8.006:554
8.008:533
8.008:489
8.008:468
8.008:457
8.024:457
8.024:480
8.024:494
8.025:503
8.025:481
8.025:471
8.029:477
8.029:493
8.029:484
8.029:474
8.030:513
8.030:533
8.030:504
8.030:496
8.030:515
8.031:523
8.033:513
8.033:521
8.033:525
8.034:516
8.034:492
8.034:473
8.034:444
8.034:459
8.034:475
8.036:477
8.037:478
8.037:459
8.037:454
8.037:483
8.052:499
8.052:473
8.052:458
8.057:474
8.058:468
8.058:447
8.058:433
8.059:448
8.060:466
8.060:475
8.060:471
8.060:490
8.060:480
8.061:465
8.061:463
8.061:456
8.062:486
8.062:506
8.062:504
8.062:511
8.062:525
8.062:528
8.065:539
8.065:534
8.065:527
8.065:504
8.066:520
8.066:539
8.066:543
8.066:542
8.081:542
8.081:529
8.085:504
8.085:481
8.087:470
8.087:471
8.087:481
8.087:491
8.087:483
8.087:504
8.088:523
8.088:550
8.090:565
8.090:534
8.091:522
8.091:525
8.091:543
8.091:556
8.091:547
8.092:525
8.092:529
8.094:517
8.094:523
8.094:529
8.094:541
8.094:545
8.095:537
8.095:510
8.095:487
8.095:461
8.114:457
8.115:485
8.115:496
8.115:503
8.115:520
8.115:534
8.115:530
8.116:519
8.116:519
8.118:492
8.119:482
8.119:503
8.119:522
8.119:520
8.119:493
8.120:453
8.120:426
8.120:440
8.122:472
8.122:496
8.122:502
8.124:501
8.124:470
8.124:467
8.124:494
8.124:510
8.125:511
8.125:494
8.127:465
8.127:425
8.143:425
8.143:410
8.144:414
8.144:417
8.144:417
8.144:399
8.144:395
8.145:401
8.147:419
8.147:405
8.148:398
8.148:408
8.148:433
8.148:475
8.148:494
8.149:507
8.149:497
8.151:497
8.152:492
8.152:489
8.152:485
8.152:470
8.152:452
8.152:445
8.153:448
8.153:455
8.153:457
8.156:463
8.156:467
8.156:449
8.171:421
8.172:421
8.172:440
8.172:455
8.175:457
8.176:465
8.176:488
8.176:505
8.176:488
8.177:483
8.177:486
8.177:481
8.177:471
8.177:480
8.180:474
8.180:452
8.180:446
8.180:462
8.180:485
8.181:488
8.181:488
8.181:493
8.181:491
8.184:514
8.184:530
8.184:531
8.184:519
8.185:513
8.185:522
8.185:533
8.200:533
8.200:542
8.200:543
8.201:516
8.205:507
8.205:517
8.205:501
8.205:512
8.205:538
8.206:563
8.206:574
8.206:582
8.206:605
8.209:636
8.209:684
8.209:724
8.210:766
8.210:817
8.210:848
8.210:812
8.210:761
8.210:738
8.211:733
8.213:756
8.213:799
8.213:831
8.213:855
8.213:869
8.214:866
8.214:866
8.232:887
8.232:930
8.234:968
8.234:990
8.234:990
8.234:933
8.234:877
8.235:826
8.235:779
8.235:727
8.237:661
8.238:601
8.238:550
8.238:491
8.238:416
8.238:363
8.239:343
8.239:347
8.239:351
8.241:347
8.242:340
8.242:326
8.242:301
8.243:290
8.243:314
8.243:334
8.243:338
8.243:346
8.243:365
8.245:392
8.262:392
8.263:409
8.263:396
8.263:377
8.263:346
8.263:330
8.263:350
8.264:382
8.264:417
8.266:426
8.266:422
8.266:414
8.266:442
8.266:458
8.267:451
8.267:454
8.267:458
8.267:452
8.267:443
8.270:458
8.270:470
8.270:481
8.270:471
8.270:448
8.271:429
8.271:421
8.271:414
8.271:394
8.274:416
8.274:435
8.290:437
8.291:436
8.291:428
8.291:449
8.291:485
8.291:492
8.295:478
8.295:483
8.295:499
8.295:515
8.296:492
8.296:465
8.296:476
8.296:460
8.296:462
8.299:432
8.299:426
8.299:409
8.299:384
8.300:369
8.300:372
8.300:396
8.300:434
8.300:468
8.301:467
8.302:485
8.302:487
8.302:465
8.304:465
8.304:475
8.319:475
8.319:495
8.320:495
8.320:508
8.320:504
8.324:493
8.324:494
8.324:486
8.324:449
8.325:427
8.325:432
8.325:436
8.325:438
8.325:449
8.328:453
8.328:468
8.328:516
8.328:513
8.328:483
8.329:479
8.329:499
8.329:507
8.329:519
8.329:511
8.332:487
8.332:459
8.332:483
8.332:499
8.333:507
8.333:501
8.348:476
8.348:471
8.352:474
8.352:481
8.352:471
8.352:488
8.352:507
8.352:505
8.352:533
8.352:543
8.354:536
8.357:531
8.357:518
8.357:505
8.357:492
8.358:497
8.358:482
8.358:465
8.358:467
8.358:458
8.358:444
8.360:461
8.361:450
8.361:475
8.361:524
8.361:552
8.361:542
8.361:516
8.362:507
8.362:503
8.377:503
8.381:492
8.381:498
8.381:515
8.381:509
8.382:510
8.382:486
8.382:478
8.382:487
8.382:493
8.385:522
8.385:529
8.385:516
8.385:505
8.386:493
8.386:513
8.386:519
8.386:523
8.386:539
8.386:574
8.389:602
8.389:625
8.389:613
8.389:553
8.390:518
8.390:488
8.390:481
8.390:488
8.390:493
8.392:493
8.409:504
8.409:499
8.409:491
8.409:489
8.411:501
8.411:529
8.411:545
8.414:575
8.414:582
8.414:585
8.415:590
8.415:587
8.415:562
8.415:568
8.415:550
8.415:545
8.415:567
8.418:568
8.418:536
8.418:503
8.418:470
8.418:478
8.419:508
8.419:538
8.419:566
8.419:592
8.422:590
8.422:593
8.422:608
8.422:603
8.438:603
8.438:563
8.438:574
8.438:612
8.438:621
8.439:606
8.442:574
8.444:541
8.444:548
8.444:566
8.444:579
8.444:575
8.444:548
8.445:556
8.445:563
8.445:562
8.446:568
8.446:580
8.446:602
8.446:615
8.447:615
8.447:591
8.447:587
8.447:589
8.447:591
8.450:611
8.450:599
8.450:571
8.450:561
8.451:551
8.466:538
8.467:542
8.467:544
8.471:522
8.471:515
8.471:532
8.471:542
8.472:545
8.472:568
8.472:587
8.472:610
8.472:616
8.472:624
8.475:615
8.475:604
8.475:608
8.475:600
8.475:568
8.477:547
8.477:557
8.477:564
8.477:572
8.479:559
8.479:573
8.479:573
8.479:559
8.480:563
8.480:575
8.480:584
8.480:601
8.495:601
8.495:602
8.500:589
8.500:605
8.500:616
8.500:570
8.500:525
8.501:507
8.501:515
8.501:515
8.501:510
8.501:486
8.503:492
8.504:501
8.504:487
8.505:496
8.505:515
8.505:522
8.505:501
8.505:475
8.505:490
8.508:523
8.508:508
8.508:498
8.509:494
8.509:480
8.510:467
8.510:459
8.510:448
8.510:443
8.528:449
8.528:437
8.528:434
8.528:438
8.528:412
8.528:354
8.529:328
8.529:367
8.529:399
8.532:401
8.532:376
8.532:385
8.532:408
8.532:421
8.532:415
8.532:403
8.532:427
8.534:428
8.536:400
8.536:355
8.537:339
8.537:337
8.537:353
8.538:368
8.538:377
8.538:381
8.538:382
8.538:388
8.540:383
8.540:376
8.557:376
8.557:374
8.557:385
8.557:410
8.557:427
8.558:419
8.558:400
8.558:376
8.561:350
8.561:338
8.561:319
8.561:311
8.561:292
8.562:316
8.562:323
8.562:299
8.562:303
8.565:327
8.565:369
8.565:408
8.565:415
8.565:389
8.565:384
8.565:386
8.565:411
8.565:412
8.565:397
8.569:389
8.569:386
8.569:395
8.586:380
8.586:380
8.586:376
8.586:384
8.590:388
8.590:391
8.590:400
8.590:422
8.591:426
8.591:399
8.591:381
8.591:390
8.591:429
8.592:422
8.593:398
8.594:383
8.594:399
8.594:405
8.594:408
8.594:395
8.594:400
8.594:406
8.595:388
8.598:381
8.598:397
8.598:403
8.598:410
8.598:410
8.598:406
8.598:413
8.614:413
8.614:427
8.614:466
8.619:505
8.619:483
8.619:448
8.619:437
8.620:447
8.620:429
8.620:411
8.620:397
8.620:382
8.620:400
8.623:407
8.623:395
8.623:381
8.624:381
8.624:397
8.624:407
8.624:424
8.624:447
8.624:458
8.625:450
8.627:450
8.627:465
8.627:490
8.628:470
8.628:453
8.628:462
8.628:465
8.647:473
8.647:456
8.647:460
8.647:439
8.648:431
8.648:416
8.648:426
8.648:441
8.648:452
8.648:426
8.651:375
8.651:397
8.651:426
8.651:458
8.652:468
8.652:455
8.652:429
8.652:437
8.652:453
8.655:437
8.655:430
8.655:406
8.656:389
8.656:394
8.656:428
8.656:443
8.657:449
8.657:442
8.657:448
8.659:468
8.675:468
8.675:484
8.676:492
8.676:475
8.676:490
8.676:495
8.676:497
8.676:486
8.676:460
8.680:454
8.680:444
8.680:443
8.680:423
8.680:403
8.681:378
8.681:381
8.681:369
8.681:375
8.684:367
8.684:381
8.684:414
8.684:456
8.685:473
8.685:465
8.685:467
8.685:474
8.685:502
8.685:511
8.688:505
8.688:496
8.704:493
8.704:496
8.704:469
8.704:454
8.704:435
8.705:438
8.709:430
8.709:426
8.710:440
8.710:459
8.710:486
8.710:490
8.711:502
8.711:513
8.711:520
8.713:507
8.713:477
8.713:454
8.713:455
8.713:474
8.714:462
8.714:455
8.714:453
8.714:445
8.714:443
8.717:464
8.717:462
8.717:438
8.717:433
8.718:462
8.732:462
8.732:490
8.732:477
8.732:476
8.734:486
8.737:504
8.737:511
8.737:521
8.737:529
8.737:494
8.739:463
8.739:430
8.739:452
8.739:493
8.741:500
8.741:472
8.741:463
8.742:430
8.742:418
8.742:425
8.742:470
8.742:512
8.744:476
8.744:448
8.744:448
8.744:458
8.745:455
8.745:462
8.745:465
8.745:464
8.761:472
8.761:472
8.765:467
8.765:433
8.765:436
8.766:458
8.766:487
8.766:504
8.766:505
8.766:479
8.767:454
8.770:457
8.770:439
8.770:441
8.770:466
8.770:487
8.772:502
8.772:516
8.772:508
8.772:483
8.772:477
8.774:467
8.774:465
8.774:469
8.774:457
8.775:452
8.775:458
8.775:455
8.776:463
8.776:470
8.790:470
8.794:487
8.794:500
8.795:489
8.795:471
8.796:438
8.796:444
8.796:468
8.796:470
8.796:457
8.799:456
8.799:465
8.799:457
8.799:465
8.799:476
8.800:455
8.800:435
8.800:465
8.800:464
8.800:460
8.803:471
8.803:489
8.803:496
8.803:494
8.804:484
8.804:488
8.804:504
8.804:505
8.804:495
8.807:489
8.822:486
8.822:485
8.822:462
8.822:458
8.824:458
8.824:467
8.824:446
8.827:448
8.827:467
8.827:464
8.828:464
8.828:484
8.828:512
8.828:503
8.828:498
8.829:502
8.829:518
8.831:539
8.831:539
8.831:544
8.831:544
8.832:512
8.832:487
8.832:505
8.832:497
8.832:456
8.835:442
8.835:460
8.835:454
8.836:446
8.852:446
8.852:428
8.852:445
8.852:490
8.852:490
8.852:469
8.856:450
8.856:460
8.856:455
8.856:442
8.857:428
8.857:425
8.857:441
8.857:440
8.857:455
8.858:447
8.860:440
8.860:420
8.861:440
8.861:481
8.861:494
8.861:494
8.861:481
8.861:482
8.861:487
8.864:486
8.864:495
8.864:521
8.864:525
8.865:531
8.879:524
8.880:505
8.880:490
8.885:486
8.885:484
8.885:489
8.885:485
8.885:454
8.886:455
8.886:475
8.886:466
8.886:462
8.886:469
8.889:479
8.889:495
8.889:508
8.889:506
8.890:502
8.890:496
8.890:514
8.890:516
8.890:502
8.892:491
8.893:495
8.893:508
8.893:478
8.893:450
8.893:417
8.893:400
8.894:398
8.908:398
8.908:417
8.913:451
8.914:475
8.914:481
8.914:474
8.914:486
8.915:487
8.915:499
8.915:520
8.915:509
8.915:497
8.917:482
8.917:457
8.918:445
8.918:465
8.918:479
8.918:502
8.918:478
8.919:434
8.919:428
8.922:439
8.922:457
8.922:464
8.922:480
8.923:521
8.923:535
8.923:531
8.923:533
8.923:519
8.942:525
8.942:522
8.942:504
8.943:479
8.943:459
8.943:467
8.943:501
8.944:499
8.946:466
8.946:462
8.946:451
8.946:438
8.947:442
8.947:462
8.947:503
8.947:529
8.947:534
8.947:494
8.950:496
8.950:525
8.950:522
8.950:520
8.951:515
8.951:513
8.951:530
8.951:508
8.951:468
8.954:442
8.954:422
8.954:418
8.970:418
8.971:413
8.971:429
8.971:443
8.971:447
8.971:456
8.971:453
8.972:462
8.974:480
8.974:497
8.975:529
8.975:546
8.975:553
8.975:530
8.977:497
8.977:462
8.977:466
8.979:488
8.979:485
8.979:464
8.979:471
8.980:480
8.980:466
8.980:452
8.980:466
8.980:477
8.981:492
8.982:494
8.982:487
8.983:512
8.999:512
8.999:517
8.999:526
8.999:502
9.003:477
9.004:461
9.004:486
9.004:502
9.004:527
9.005:513
9.005:471
9.005:442
9.005:423
9.005:423
9.007:448
9.008:453
9.008:459
9.009:487
9.009:492
9.009:504
9.009:513
9.009:528
9.010:526
9.012:500
9.012:506
9.012:484
9.012:447
9.013:431
9.013:456
9.013:461
9.027:461
9.027:468
9.027:467
9.032:470
9.032:458
9.032:467
9.032:486
9.032:492
9.032:487
9.032:482
9.034:475
9.034:475
9.034:473
9.036:473
9.036:468
9.036:468
9.036:467
9.037:480
9.037:476
9.037:472
9.037:471
9.037:468
9.038:457
9.040:458
9.040:463
9.040:468
9.040:496
9.040:509
9.041:494
9.041:482
9.061:483
9.061:483
9.061:503
9.061:509
9.062:507
9.062:511
9.062:502
9.062:485
9.062:466
9.063:465
9.065:458
9.065:456
9.065:451
9.066:450
9.066:481
9.066:506
9.066:520
9.066:476
9.067:445
9.069:468
9.069:503
9.069:505
9.069:511
9.069:518
9.070:509
9.070:492
9.070:474
9.070:472
9.071:483
9.073:496
9.089:496
9.090:511
9.090:524
9.090:531
9.090:539
9.090:551
9.091:550
9.091:549
9.091:544
9.093:540
9.093:506
9.094:507
9.094:533
9.094:552
9.094:567
9.094:581
9.094:585
9.094:550
9.098:518
9.098:504
9.098:493
9.098:470
9.099:488
9.099:493
9.099:475
9.099:469
9.099:489
9.099:507
9.101:496
9.101:492
9.117:517
9.117:559
9.118:571
9.118:528
9.118:503
9.118:495
9.121:500
9.122:489
9.122:475
9.122:495
9.122:497
9.122:481
9.122:482
9.122:501
9.122:496
9.125:486
9.126:496
9.126:509
9.126:508
9.126:495
9.126:469
9.127:466
9.127:474
9.127:471
9.127:466
9.130:448
9.130:431
9.130:431
9.130:430
9.131:417
9.146:417
9.146:416
9.146:420
9.147:420
9.147:437
9.151:443
9.151:455
9.151:479
9.151:487
9.152:484
9.152:483
9.152:514
9.152:536
9.152:542
9.155:531
9.155:515
9.155:502
9.155:475
9.155:465
9.156:469
9.156:457
9.156:446
9.156:424
9.156:425
9.159:438
9.160:439
9.160:452
9.160:479
9.160:487
9.160:473
9.175:458
9.175:458
9.179:479
9.179:498
9.179:511
9.179:509
9.180:502
9.180:475
9.180:453
9.180:448
9.180:453
9.184:477
9.185:507
9.185:491
9.185:479
9.185:497
9.186:503
9.186:490
9.186:490
9.186:496
9.186:504
9.187:510
9.187:512
9.187:512
9.187:493
9.188:479
9.188:466
9.188:449
9.188:454
9.188:448
9.204:448
9.209:443
9.209:434
9.209:445
9.209:469
9.209:479
9.209:495
9.210:493
9.210:483
9.210:493
9.212:515
9.212:518
9.212:521
9.212:519
9.212:524
9.212:543
9.214:559
9.214:564
9.214:575
9.214:589
9.216:601
9.216:609
9.216:618
9.216:634
9.217:650
9.217:699
9.217:741
9.217:758
9.217:761
9.220:754
9.236:744
9.237:776
9.237:833
9.237:875
9.237:915
9.237:972
9.238:990
9.241:989
9.241:989
9.242:990
9.242:989
9.242:989
9.242:989
9.243:989
9.243:990
9.243:914
9.244:839
9.245:782
9.245:713
9.245:645
9.245:580
9.245:530
9.245:476
9.246:425
9.246:381
9.246:338
9.249:315
9.249:304
9.249:300
9.249:312
9.264:312
9.264:325
9.266:305
9.266:306
9.266:310
9.266:313
9.270:325
9.270:341
9.270:369
9.270:396
9.270:411
9.270:389
9.270:382
9.270:395
9.270:405
9.270:430
9.272:455
9.272:460
9.274:446
9.274:450
9.274:445
9.275:417
9.275:395
9.275:406
9.275:403
9.278:388
9.278:377
9.278:387
9.278:414
9.279:427
9.294:439
9.294:466
9.294:502
9.298:519
9.298:507
9.298:484
9.298:458
9.299:453
9.299:457
9.299:451
9.299:433
9.299:412
9.302:401
9.302:403
9.302:404
9.302:404
9.302:397
9.302:384
9.302:389
9.304:411
9.304:427
9.304:438
9.306:454
9.306:477
9.306:494
9.306:494
9.307:468
9.307:464
9.307:473
9.307:467
9.322:467
9.322:467
9.327:456
9.327:446
9.327:433
9.327:418
9.327:422
9.328:444
9.328:455
9.328:462
9.328:474
9.328:475
9.330:474
9.330:469
9.331:483
9.331:499
9.331:518
9.331:501
9.331:483
9.332:462
9.332:460
9.335:461
9.335:446
9.335:455
9.335:451
9.335:449
9.335:431
9.335:419
9.336:438
9.336:472
9.355:488
9.355:487
9.355:474
9.355:479
9.356:496
9.356:513
9.356:518
9.356:493
9.360:489
9.360:491
9.360:491
9.360:500
9.360:473
9.361:444
9.361:428
9.361:441
9.361:467
9.361:480
9.364:473
9.364:462
9.364:465
9.364:485
9.364:523
9.365:539
9.365:562
9.365:556
9.365:539
9.368:520
9.368:508
9.368:502
9.384:502
9.384:480
9.384:445
9.384:436
9.384:449
9.385:458
9.385:474
9.385:495
9.388:517
9.388:538
9.388:552
9.388:562
9.388:560
9.389:546
9.389:542
9.389:555
9.389:546
9.392:532
9.392:542
9.392:572
9.392:572
9.392:553
9.394:522
9.394:496
9.394:487
9.394:482
9.394:493
9.396:488
9.396:490
9.396:491
9.412:517
9.413:531
9.413:522
9.413:524
9.417:532
9.417:557
9.417:573
9.417:581
9.418:560
9.418:526
9.418:511
9.418:516
9.418:522
9.418:522
9.421:521
9.421:513
9.421:502
9.421:497
9.422:514
9.422:511
9.422:502
9.422:501
9.422:531
9.425:556
9.425:547
9.425:556
9.426:550
9.426:520
9.426:515
9.426:539
9.441:539
9.441:556
9.441:575
9.445:574
9.445:563
9.446:557
9.446:537
9.446:525
9.446:519
9.446:521
9.446:519
9.447:542
9.447:577
9.450:602
9.450:585
9.450:574
9.450:564
9.451:557
9.451:555
9.451:577
9.451:603
9.451:575
9.454:547
9.454:540
9.454:555
9.454:571
9.455:568
9.455:540
9.455:516
9.455:521
9.474:557
9.476:608
9.476:628
9.476:621
9.476:615
9.477:623
9.477:626
9.477:624
9.477:613
9.477:599
9.478:608
9.478:602
9.478:576
9.478:560
9.478:543
9.479:534
9.479:530
9.479:530
9.479:526
9.483:525
9.483:551
9.483:593
9.483:610
9.484:600
9.484:579
9.484:568
9.484:597
9.484:615
9.485:628
9.486:619
9.503:619
9.503:610
9.503:606
9.503:611
9.503:605
9.503:583
9.504:571
9.504:572
9.504:560
9.507:554
9.507:554
9.507:532
9.509:525
9.509:530
9.509:539
9.509:559
9.509:540
9.510:552
9.511:572
9.511:579
9.511:573
9.512:566
9.512:532
9.512:487
9.512:473
9.512:497
9.513:520
9.513:503
9.515:511
9.515:507
9.531:486
9.532:472
9.532:455
9.532:436
9.532:431
9.532:455
