0.000:484
0.000:489
0.000:500
0.000:510
0.000:507
0.000:500
0.001:487
0.001:480
0.001:474
0.001:468
0.003:463
0.003:459
0.003:451
0.003:442
0.003:446
0.003:453
0.003:464
0.004:475
0.004:484
0.004:492
0.004:497
0.004:501
0.004:513
0.004:524
0.005:524
0.005:521
0.005:516
0.005:512
0.005:510
0.005:509
0.005:507
0.005:507
0.006:499
0.006:497
0.006:505
0.006:523
0.006:547
0.006:572
0.007:590
0.007:602
0.007:606
0.007:606
0.007:615
0.008:624
0.008:621
0.008:615
0.008:605
0.009:603
0.009:611
0.009:622
0.009:626
0.010:630
0.010:627
0.010:622
0.010:624
0.010:649
0.011:682
0.011:729
0.011:783
0.011:831
0.011:831
0.012:877
0.012:934
0.012:990
0.012:990
0.013:989
0.013:988
0.013:988
0.013:988
0.013:989
0.014:989
0.014:989
0.016:967
0.016:884
0.017:785
0.017:691
0.017:602
0.017:533
0.017:481
0.017:434
0.017:392
0.017:359
0.017:347
0.018:357
0.018:368
0.018:367
0.018:358
0.018:353
0.018:349
0.018:350
0.018:355
0.018:368
0.018:381
0.019:385
0.019:390
0.019:398
0.019:410
0.019:425
0.019:437
0.019:446
0.019:452
0.020:456
0.020:462
0.020:470
0.021:473
0.021:467
0.021:458
0.022:448
0.022:436
0.022:426
0.022:420
0.023:415
0.023:411
0.023:400
0.024:402
0.024:406
0.024:411
0.024:423
0.025:437
0.025:445
0.025:445
0.026:451
0.026:455
0.026:462
0.027:473
0.027:476
0.027:473
0.027:466
0.028:458
0.028:449
0.028:441
0.029:436
0.029:433
0.029:429
0.029:420
0.030:418
0.030:423
0.030:431
0.030:441
0.030:454
0.031:464
0.031:471
0.031:474
0.032:483
0.032:495
0.032:497
0.032:494
0.032:485
0.032:477
0.032:466
0.032:459
0.033:452
0.033:450
0.033:448
0.033:440
0.033:437
0.033:444
0.034:455
0.034:463
0.034:474
0.035:483
0.035:489
0.035:493
0.035:501
0.035:515
0.036:518
0.036:514
0.036:508
0.036:498
0.036:490
0.036:485
0.037:479
0.037:475
0.037:469
0.037:462
0.037:461
0.038:466
0.038:477
0.038:489
0.038:498
0.038:498
0.038:508
0.039:512
0.039:514
0.039:524
0.039:536
0.039:537
0.039:533
0.040:522
0.040:512
0.040:504
0.040:496
0.040:492
0.041:490
0.041:485
0.041:475
0.041:477
0.041:481
0.041:492
0.042:502
0.042:513
0.042:521
0.042:529
0.042:534
0.043:544
0.043:555
0.043:554
0.043:548
0.043:538
0.043:529
0.044:521
0.044:516
0.044:513
0.044:512
0.044:505
0.045:498
0.045:499
0.045:505
0.046:516
0.046:527
0.046:536
0.046:546
0.046:553
0.047:556
0.047:565
0.047:576
0.047:576
0.047:572
0.047:562
0.048:554
0.048:543
0.049:537
0.049:535
0.049:537
0.049:530
0.049:523
0.049:526
0.049:535
0.050:545
0.050:556
0.050:556
0.050:568
0.050:577
0.050:580
0.051:585
0.051:597
0.051:606
0.051:606
0.052:600
0.052:590
0.052:581
0.052:573
0.052:568
0.052:565
0.053:564
0.053:558
0.053:550
0.053:553
0.053:561
0.054:572
0.054:585
0.054:598
0.054:608
0.054:616
0.055:619
0.055:632
0.055:642
0.055:641
0.055:635
0.056:628
0.056:622
0.056:615
0.056:610
0.056:608
0.057:605
0.057:598
0.057:593
0.057:597
0.057:604
0.058:616
0.058:625
0.058:634
0.058:642
0.058:648
0.058:653
0.059:664
0.059:673
0.059:670
0.059:662
0.059:653
0.060:645
0.060:637
0.060:629
0.060:626
0.060:623
0.061:613
0.061:607
0.061:611
0.061:619
0.062:629
0.062:629
0.062:639
0.062:647
0.062:653
0.062:654
0.063:657
0.063:668
0.063:672
0.063:669
0.063:660
0.064:650
0.064:640
0.064:630
0.064:622
0.065:614
0.065:608
0.065:595
0.065:585
0.065:584
0.065:587
0.065:593
0.065:599
0.065:603
0.066:605
0.066:603
0.066:604
0.066:610
0.067:611
0.067:602
0.067:589
0.067:574
0.067:558
0.068:542
0.068:529
0.068:520
0.068:510
0.068:494
0.069:485
0.069:481
0.069:483
0.069:487
0.069:490
0.070:490
0.070:489
0.070:485
0.070:482
0.070:487
0.070:484
0.071:474
0.071:457
0.071:440
0.071:422
0.071:409
0.072:398
0.072:389
0.072:379
0.072:363
0.072:352
0.073:351
0.073:354
0.073:354
0.073:358
0.073:362
0.073:362
0.074:364
0.074:362
0.074:366
0.074:373
0.074:372
0.075:364
0.075:354
0.075:342
0.075:328
0.075:315
0.075:310
0.076:305
0.076:297
0.076:285
0.076:284
0.076:288
0.077:295
0.077:302
0.077:311
0.077:317
0.077:322
0.078:328
0.078:333
0.078:343
0.078:341
0.078:337
0.078:329
0.079:320
0.079:309
0.079:300
0.079:292
0.079:290
0.080:285
0.080:273
0.080:274
0.080:282
0.080:294
0.080:305
0.081:315
0.081:322
0.081:327
0.082:332
0.082:341
0.082:351
0.082:352
0.082:348
0.083:339
0.083:332
0.083:325
0.083:319
0.084:313
0.084:312
0.084:307
0.084:302
0.085:305
0.085:312
0.085:312
0.085:326
0.085:338
0.085:351
0.086:359
0.086:362
0.086:368
0.086:378
0.086:388
0.087:390
0.087:386
0.087:376
0.087:366
0.087:354
0.088:347
0.088:343
0.088:341
0.088:337
0.088:331
0.088:333
0.089:340
0.089:352
0.089:364
0.089:375
0.089:384
0.090:391
0.090:396
0.090:408
0.090:418
0.090:418
0.090:414
0.091:404
0.091:396
0.091:386
0.091:379
0.092:374
0.092:371
0.092:365
0.092:358
0.092:361
0.092:368
0.093:381
0.093:392
0.093:401
0.093:411
0.093:415
0.094:420
0.094:429
0.094:437
0.094:439
0.094:434
0.094:425
0.095:415
0.095:405
0.095:399
0.095:396
0.095:396
0.096:390
0.096:384
0.096:387
0.096:387
0.096:396
0.096:408
0.097:417
0.097:426
0.097:432
0.097:439
0.097:441
0.099:453
0.099:463
0.099:463
0.099:459
0.099:447
0.099:436
0.100:425
0.100:416
0.100:412
0.100:410
0.100:401
0.101:395
0.101:398
0.101:406
0.101:415
0.102:427
0.102:436
0.102:445
0.102:452
0.102:455
0.103:466
0.103:474
0.103:471
0.103:465
0.103:455
0.103:444
0.104:434
0.104:430
0.104:427
0.104:425
0.104:417
0.105:412
0.105:413
0.105:422
0.105:434
0.105:446
0.105:456
0.106:463
0.106:466
0.106:469
0.106:481
0.106:488
0.107:486
0.107:478
0.107:468
0.107:456
0.107:446
0.108:439
0.108:434
0.108:430
0.108:419
0.108:414
0.108:414
0.109:418
0.109:425
0.109:436
0.109:449
0.109:459
0.110:463
0.110:464
0.110:465
0.110:473
0.110:478
0.110:473
0.111:464
0.111:455
0.111:449
0.111:443
0.111:435
0.112:434
0.112:431
0.112:421
0.112:416
0.112:418
0.112:426
0.113:437
0.113:448
0.113:456
0.113:464
0.113:470
0.114:475
0.114:488
0.114:490
0.114:484
0.114:474
0.115:462
0.115:450
0.115:438
0.115:431
0.115:428
0.115:423
0.116:413
0.116:412
0.116:418
0.116:428
0.116:438
0.117:448
0.117:456
0.117:462
0.117:464
0.117:467
0.118:475
0.118:478
0.118:477
0.119:469
0.119:460
0.119:452
0.119:447
0.119:443
0.119:436
0.120:430
0.120:420
0.120:420
0.120:420
0.120:430
0.121:443
0.121:457
0.121:468
0.121:477
0.121:479
0.121:479
0.122:485
0.122:494
0.122:492
0.122:485
0.122:473
0.123:464
0.123:452
0.123:442
0.123:441
0.124:442
0.124:438
0.124:430
0.124:428
0.124:430
0.124:439
0.124:454
0.125:467
0.125:476
0.125:481
0.125:484
0.125:492
0.125:502
0.126:503
0.126:497
0.126:491
0.126:486
0.126:479
0.126:473
0.127:470
0.127:468
0.127:461
0.127:456
0.127:461
0.128:467
0.128:473
0.128:480
0.128:488
0.128:498
0.128:503
0.129:504
0.129:510
0.129:516
0.129:513
0.129:506
0.130:495
0.130:485
0.130:473
0.130:458
0.130:450
0.130:447
0.131:438
0.131:438
0.131:427
0.131:426
0.132:426
0.132:430
0.132:437
0.132:445
0.133:454
0.133:461
0.133:468
0.133:478
0.134:489
0.134:487
0.134:479
0.135:471
0.135:458
0.135:451
0.135:448
0.135:444
0.135:444
0.136:438
0.136:430
0.136:429
0.136:430
0.136:435
0.136:440
0.137:445
0.137:451
0.137:451
0.137:451
0.137:455
0.138:461
0.138:462
0.138:460
0.138:451
0.138:440
0.138:429
0.139:419
0.139:413
0.139:419
0.140:424
0.140:431
0.140:446
0.140:459
0.140:473
0.140:482
0.141:495
0.141:506
0.141:514
0.141:516
0.141:528
0.142:536
0.142:532
0.142:523
0.142:513
0.142:503
0.143:493
0.143:484
0.143:475
0.143:468
0.143:468
0.143:455
0.144:448
0.144:453
0.144:460
0.144:469
0.144:478
0.145:487
0.145:491
0.145:494
0.145:496
0.145:501
0.145:505
0.146:499
0.146:487
0.146:478
0.146:472
0.146:464
0.147:454
0.147:448
0.147:444
0.147:436
0.147:430
0.147:432
0.148:438
0.148:448
0.149:460
0.149:470
0.149:477
0.149:482
0.149:489
0.150:501
0.150:508
0.150:507
0.151:501
0.151:491
0.151:478
0.152:466
0.152:461
0.152:458
0.152:455
0.152:445
0.153:442
0.153:446
0.153:450
0.153:458
0.153:467
0.154:474
0.154:480
0.154:483
0.154:488
0.154:497
0.154:504
0.155:501
0.155:495
0.155:485
0.155:472
0.155:459
0.156:447
0.156:439
0.156:439
0.156:430
0.156:415
0.156:420
0.157:426
0.157:434
0.157:444
0.157:454
0.157:464
0.158:473
0.158:480
0.158:489
0.158:504
0.158:511
0.158:512
0.159:509
0.159:504
0.159:494
0.159:483
0.159:476
0.159:474
0.160:470
0.160:455
0.160:448
0.160:452
0.160:460
0.161:471
0.161:484
0.161:494
0.161:501
0.161:507
0.161:515
0.162:523
0.162:527
0.162:523
0.162:510
0.162:498
0.163:484
0.163:473
0.163:465
0.163:460
0.163:451
0.164:442
0.164:441
0.164:445
0.164:454
0.165:464
0.165:473
0.165:483
0.165:491
0.166:497
0.166:505
0.166:518
0.166:518
0.166:514
0.166:507
0.167:500
0.167:494
0.167:486
0.167:476
0.167:476
0.167:466
0.167:455
0.168:438
0.168:435
0.168:437
0.168:443
0.168:453
0.169:466
0.169:474
0.169:478
0.169:481
0.170:489
0.170:503
0.170:510
0.170:508
0.170:504
0.170:495
0.171:482
0.171:467
0.171:457
0.171:452
0.171:447
0.172:436
0.172:432
0.172:431
0.172:435
0.172:443
0.172:451
0.173:458
0.173:465
0.173:470
0.173:479
0.173:495
0.174:507
0.174:505
0.174:493
0.174:480
0.174:469
0.175:463
0.175:464
0.175:468
0.175:466
0.175:460
0.175:460
0.176:465
0.176:473
0.176:487
0.176:503
0.176:514
0.177:520
0.177:523
0.177:529
0.177:536
0.177:537
0.178:533
0.178:524
0.178:517
0.178:509
0.178:505
0.178:505
0.179:502
0.179:500
0.179:494
0.179:484
0.179:482
0.179:485
0.180:495
0.180:507
0.180:520
0.180:529
0.180:536
0.181:541
0.181:548
0.181:552
0.181:545
0.181:536
0.181:524
0.182:511
0.182:499
0.182:488
0.182:480
0.182:474
0.182:462
0.182:448
0.182:443
0.182:446
0.182:453
0.183:460
0.183:469
0.183:478
0.183:487
0.183:493
0.183:506
0.183:515
0.183:514
0.184:509
0.184:500
0.184:490
0.184:477
0.184:466
0.184:458
0.184:452
0.184:441
0.186:432
0.186:434
0.186:441
0.186:451
0.186:461
0.186:470
0.187:477
0.187:481
0.187:485
0.187:494
0.187:506
0.187:506
0.188:498
0.188:490
0.188:477
0.188:465
0.188:465
0.189:457
0.189:452
0.189:451
0.189:445
0.189:439
0.189:444
0.190:452
0.190:464
0.190:477
0.190:486
0.190:492
0.191:494
0.191:501
0.191:511
0.191:518
0.191:514
0.191:507
0.192:498
0.192:485
0.192:478
0.192:472
0.192:469
0.193:465
0.193:452
0.193:448
0.193:454
0.193:462
0.193:472
0.194:481
0.194:493
0.194:501
0.194:509
0.194:509
0.195:517
0.195:523
0.195:522
0.195:516
0.195:503
0.195:491
0.196:485
0.196:483
0.196:486
0.196:489
0.196:487
0.197:489
0.197:495
0.197:504
0.197:518
0.197:534
0.197:550
0.198:569
0.198:590
0.198:613
0.199:639
0.199:652
0.199:652
0.199:645
0.199:639
0.199:633
0.199:633
0.199:632
0.199:618
0.200:611
0.200:621
0.200:636
0.200:648
0.201:668
0.201:697
0.201:718
0.201:729
0.202:744
0.202:771
0.202:810
0.202:841
0.202:885
0.202:929
0.203:971
0.203:990
0.203:989
0.203:989
0.203:989
0.204:989
0.204:989
0.204:990
0.204:972
0.204:921
0.205:876
0.205:828
0.205:761
0.205:685
0.205:599
0.206:525
0.206:470
0.206:437
0.206:419
0.206:406
0.207:397
0.207:391
0.207:391
0.207:385
0.207:381
0.208:383
0.208:378
0.208:369
0.208:358
0.208:356
0.209:363
0.209:376
0.209:391
0.209:409
0.209:428
0.210:444
0.210:457
0.210:469
0.210:488
0.210:494
0.211:488
0.211:476
0.211:467
0.211:467
0.211:458
0.212:452
0.212:448
0.212:450
0.212:449
0.212:440
0.213:436
0.213:440
0.213:447
0.213:458
0.213:467
0.214:478
0.214:486
0.214:491
0.214:496
0.214:505
0.215:508
0.215:503
0.216:495
0.216:486
0.216:479
0.216:471
0.216:464
0.216:460
0.217:456
0.217:448
0.217:446
0.217:451
0.217:462
0.218:474
0.218:485
0.218:495
0.218:501
0.219:502
0.219:509
0.219:518
0.219:523
0.219:520
0.220:511
0.220:501
0.220:492
0.220:487
0.220:483
0.221:481
0.221:472
0.221:461
0.221:461
0.221:468
0.221:478
0.222:490
0.222:500
0.222:508
0.222:514
0.222:521
0.222:531
0.223:539
0.223:535
0.223:530
0.223:525
0.223:525
0.224:516
0.224:506
0.224:499
0.224:492
0.224:494
0.225:492
0.225:485
0.225:491
0.225:496
0.225:502
0.225:512
0.226:518
0.226:522
0.226:526
0.226:530
0.226:541
0.227:551
0.227:550
0.227:543
0.227:534
0.227:524
0.227:516
0.228:509
0.228:505
0.228:504
0.228:498
0.228:490
0.229:492
0.229:499
0.229:511
0.229:520
0.229:529
0.229:541
0.230:548
0.230:555
0.230:566
0.230:576
0.230:582
0.231:579
0.231:572
0.231:569
0.231:561
0.231:555
0.232:551
0.232:549
0.232:540
0.232:534
0.232:536
0.232:540
0.232:549
0.232:557
0.232:562
0.233:568
0.233:573
0.233:573
0.233:583
0.233:591
0.234:592
0.234:586
0.234:586
0.234:579
0.234:575
0.235:570
0.235:566
0.236:564
0.236:565
0.236:558
0.236:552
0.236:560
0.236:571
0.237:579
0.237:592
0.237:601
0.237:605
0.237:609
0.238:612
0.238:624
0.238:634
0.238:633
0.238:627
0.239:616
0.239:603
0.239:593
0.239:588
0.239:585
0.239:579
0.240:566
0.240:560
0.240:562
0.240:567
0.240:579
0.241:595
0.241:607
0.241:617
0.241:628
0.241:638
0.241:647
0.242:653
0.242:654
0.242:649
0.242:643
0.242:640
0.243:632
0.243:625
0.243:619
0.243:616
0.243:606
0.243:602
0.244:609
0.244:620
0.244:633
0.244:646
0.244:655
0.245:660
0.245:664
0.245:669
0.245:680
0.245:687
0.246:686
0.246:686
0.246:678
0.246:669
0.246:660
0.246:654
0.247:646
0.247:642
0.247:636
0.247:626
0.247:628
0.248:635
0.248:642
0.249:655
0.249:663
0.249:667
0.249:673
0.249:677
0.249:681
0.249:692
0.250:697
0.250:693
0.250:684
0.250:678
0.250:668
0.250:655
0.251:644
0.251:637
0.251:629
0.251:614
0.252:611
0.252:612
0.252:618
0.252:625
0.252:628
0.253:628
0.253:635
0.253:638
0.253:641
0.253:648
0.253:646
0.254:637
0.254:625
0.254:611
0.254:603
0.254:591
0.255:578
0.255:567
0.255:553
0.255:537
0.255:529
0.255:526
0.256:522
0.256:525
0.256:530
0.256:531
0.256:529
0.257:525
0.257:520
0.257:519
0.257:511
0.257:511
0.257:499
0.258:481
0.258:460
0.258:440
0.258:419
0.258:403
0.259:407
0.259:392
0.259:371
0.259:363
0.259:358
0.259:363
0.260:369
0.260:375
0.260:381
0.260:385
0.260:389
0.261:394
0.261:401
0.261:389
0.261:383
0.261:378
0.261:363
0.262:347
0.262:331
0.262:318
0.262:304
0.262:289
0.263:274
0.263:277
0.263:278
0.263:280
0.263:293
0.263:302
0.264:303
0.264:302
0.265:300
0.265:309
0.265:321
0.265:327
0.266:328
0.266:323
0.266:313
0.266:301
0.266:291
0.266:292
0.266:295
0.267:290
0.267:282
0.267:282
0.267:285
0.268:296
0.268:303
0.268:314
0.268:326
0.268:330
0.269:334
0.269:348
0.269:356
0.269:356
0.269:354
0.270:350
0.270:343
0.270:332
0.270:319
0.270:311
0.270:309
0.271:316
0.271:314
0.271:311
0.271:313
0.271:321
0.272:332
0.272:340
0.272:347
0.272:356
0.272:362
0.272:367
0.273:376
0.273:384
0.273:382
0.273:371
0.273:358
0.274:344
0.274:341
0.274:342
0.274:333
0.274:326
0.275:320
0.275:316
0.275:326
0.275:340
0.275:358
0.275:368
0.276:377
0.276:388
0.276:402
0.276:405
0.276:415
0.277:418
0.277:418
0.277:413
0.277:410
0.277:402
0.277:385
0.278:372
0.278:368
0.278:368
0.278:363
0.278:357
0.279:363
0.279:372
0.279:381
0.279:391
0.279:403
0.279:409
0.280:410
0.280:413
0.280:427
0.280:427
0.280:440
0.281:438
0.281:429
0.281:421
0.281:414
0.281:406
0.281:402
0.281:404
0.282:401
0.282:395
0.282:393
0.282:398
0.282:408
0.282:419
0.282:431
0.282:435
0.282:437
0.282:441
0.282:445
0.283:459
0.283:463
0.283:458
0.283:452
0.284:446
0.284:433
0.284:431
0.284:429
0.284:419
0.285:422
0.285:414
0.285:407
0.285:410
0.285:422
0.285:434
0.286:443
0.286:452
0.286:458
0.286:463
0.286:469
0.287:482
0.287:484
0.287:483
0.287:474
0.287:465
0.287:455
0.288:442
0.288:431
0.288:426
0.288:422
0.288:413
0.289:410
0.289:417
0.289:429
0.289:439
0.289:453
0.289:466
0.290:467
0.290:467
0.290:475
0.290:475
0.290:490
0.291:492
0.291:489
0.291:476
0.291:460
0.291:455
0.291:445
0.292:434
0.292:428
0.292:424
0.292:413
0.292:410
0.293:413
0.293:434
0.293:446
0.293:455
0.293:461
0.293:468
0.294:476
0.294:481
0.294:497
0.294:499
0.294:493
0.295:488
0.295:480
0.295:466
0.296:459
0.296:453
0.297:445
0.297:439
0.298:428
0.298:425
0.298:431
0.298:437
0.298:449
0.299:460
0.299:469
0.299:475
0.299:479
0.299:485
0.299:500
0.299:500
0.299:496
0.299:488
0.299:476
0.300:465
0.300:459
0.300:456
0.300:453
0.300:442
0.300:437
0.300:434
0.300:434
0.300:443
0.301:455
0.301:465
0.301:473
0.301:476
0.301:475
0.301:475
0.301:481
0.301:493
0.301:499
0.302:495
0.302:484
0.302:475
0.302:464
0.302:456
0.303:458
0.303:452
0.303:433
0.303:422
0.303:425
0.303:438
0.304:447
0.304:453
0.304:464
0.304:472
0.304:479
0.305:484
0.305:494
0.305:504
0.305:506
0.305:498
0.305:487
0.305:475
0.305:464
0.307:456
0.307:451
0.307:450
0.307:445
0.308:436
0.308:434
0.308:437
0.308:445
0.308:454
0.308:467
0.309:475
0.309:481
0.309:483
0.309:488
0.309:497
0.310:495
0.310:488
0.310:478
0.310:467
0.310:461
0.311:459
0.311:455
0.311:452
0.311:444
0.311:434
0.312:436
0.312:441
0.312:449
0.312:463
0.312:472
0.313:479
0.313:482
0.313:482
0.313:483
0.313:492
0.313:495
0.314:502
0.314:494
0.314:489
0.315:480
0.315:471
0.315:464
0.315:458
0.315:447
0.315:439
0.315:437
0.316:442
0.316:450
0.316:468
0.316:482
0.316:490
0.316:501
0.316:503
0.316:509
0.317:517
0.317:522
0.317:517
0.317:505
0.317:488
0.317:473
0.317:459
0.317:448
0.318:442
0.318:438
0.318:429
0.318:426
0.318:430
0.318:440
0.318:450
0.318:458
0.318:472
0.318:484
0.318:495
0.318:498
0.318:506
0.318:513
0.319:514
0.319:511
0.319:501
0.319:491
0.319:477
0.319:467
0.319:460
0.319:456
0.319:450
0.319:449
0.319:453
0.319:461
0.319:473
0.320:484
0.320:491
0.320:495
0.320:495
0.320:495
0.320:490
0.321:495
0.321:509
0.321:505
0.321:493
0.321:482
0.321:471
0.321:458
0.322:455
0.322:457
0.322:453
0.322:447
0.322:439
0.323:444
0.323:457
0.323:468
0.323:482
0.323:489
0.324:491
0.324:493
0.324:499
0.324:510
0.325:511
0.325:516
0.325:509
0.325:497
0.325:485
0.326:475
0.326:469
0.326:465
0.326:460
0.326:450
0.326:446
0.326:449
0.326:458
0.326:468
0.327:479
0.327:487
0.327:494
0.327:497
0.327:501
0.327:519
0.327:524
0.327:517
0.327:504
0.328:492
0.328:482
0.328:471
0.328:466
0.328:461
0.328:456
0.328:445
0.328:442
0.328:446
0.328:454
0.328:464
0.329:475
0.329:481
0.329:481
0.329:483
0.330:491
0.330:498
0.330:507
0.330:507
0.330:502
0.331:494
0.331:482
0.331:464
0.331:462
0.331:449
0.331:452
0.332:450
0.332:436
0.332:435
0.332:442
0.332:453
0.332:464
0.332:478
0.333:491
0.333:495
0.333:497
0.334:504
0.334:514
0.334:519
0.334:515
0.334:509
0.334:499
0.334:485
0.336:474
0.336:471
0.336:469
0.336:461
0.336:447
0.336:448
0.337:453
0.337:458
0.337:468
0.337:478
0.337:485
0.338:492
0.338:498
0.338:505
0.338:515
0.338:515
0.339:512
0.339:506
0.339:497
0.339:486
0.339:480
0.339:477
0.339:473
0.340:461
0.340:456
0.340:458
0.340:462
0.340:472
0.341:482
0.341:491
0.341:491
0.341:500
0.341:503
0.341:504
0.341:509
0.341:521
0.341:521
0.341:516
0.341:506
0.341:497
0.342:486
0.342:472
0.342:475
0.342:472
0.342:464
0.343:457
0.343:458
0.343:463
0.343:472
0.343:484
0.344:491
0.344:496
0.344:504
0.344:506
0.344:517
0.344:525
0.345:522
0.345:516
0.345:506
0.345:493
0.345:481
0.346:471
0.346:462
0.346:453
0.346:445
0.346:435
0.346:439
0.347:445
0.347:454
0.347:464
0.348:472
0.349:480
0.349:486
0.349:487
0.349:495
0.349:513
0.349:515
0.349:511
0.349:507
0.349:501
0.349:496
0.349:490
0.349:491
0.350:493
0.350:489
0.350:473
0.350:470
0.350:479
0.350:489
0.350:500
0.351:500
0.351:509
0.351:513
0.351:519
0.351:523
0.352:533
0.352:543
0.352:543
0.352:539
0.352:527
0.352:517
0.353:511
0.353:503
0.353:499
0.353:498
0.353:487
0.354:483
0.354:486
0.354:492
0.354:500
0.354:512
0.355:521
0.355:528
0.355:534
0.355:537
0.355:545
0.355:549
0.356:544
0.356:533
0.356:521
0.356:510
0.357:500
0.357:490
0.357:483
0.357:476
0.357:464
0.358:458
0.358:463
0.359:468
0.359:475
0.359:481
0.359:486
0.359:489
0.359:491
0.359:496
0.360:505
0.360:512
0.360:502
0.360:499
0.360:489
0.361:473
0.361:462
0.361:454
0.361:449
0.361:447
0.362:438
0.362:435
0.362:434
0.362:432
0.362:440
0.363:440
0.363:455
0.363:465
0.363:474
0.363:480
0.364:484
0.364:493
0.365:499
0.365:501
0.365:493
0.365:484
0.365:474
0.365:465
0.365:461
0.365:459
0.366:457
0.366:449
0.366:443
0.366:448
0.366:455
0.366:460
0.366:471
0.366:480
0.366:487
0.366:492
0.367:492
0.367:508
0.367:517
0.367:514
0.367:503
0.367:493
0.367:482
0.367:474
0.367:468
0.367:462
0.368:455
0.369:446
0.369:444
0.369:449
0.369:459
0.369:468
0.369:479
0.369:486
0.369:489
0.370:492
0.370:497
0.370:513
0.370:521
0.370:516
0.370:506
0.371:495
0.371:487
0.371:497
0.371:502
0.371:506
0.372:502
0.372:494
0.373:495
0.373:501
0.373:516
0.373:516
0.374:533
0.374:557
0.374:582
0.374:601
0.374:611
0.375:617
0.375:623
0.375:623
0.375:618
0.375:611
0.375:603
0.376:592
0.376:596
0.376:607
0.376:618
0.376:623
0.377:618
0.377:622
0.377:628
0.377:640
0.377:662
0.377:694
0.377:741
0.377:791
0.378:840
0.378:895
0.378:963
0.378:990
0.378:989
0.378:989
0.379:989
0.379:988
0.379:989
0.379:989
0.379:989
0.379:990
0.380:981
0.380:902
0.380:802
0.380:704
0.380:608
0.381:534
0.381:479
0.382:433
0.382:391
0.382:365
0.382:359
0.382:358
0.383:361
0.383:355
0.383:347
0.383:342
0.383:341
0.383:343
0.384:348
0.384:355
0.384:363
0.385:379
0.385:394
0.385:394
0.385:409
0.385:420
0.385:433
0.386:442
0.386:450
0.386:455
0.386:464
0.386:470
0.387:473
0.387:462
0.387:449
0.387:439
0.387:427
0.388:414
0.388:409
0.388:406
0.389:403
0.389:395
0.389:397
0.389:403
0.389:412
0.390:422
0.390:435
0.390:443
0.390:449
0.390:450
0.390:462
0.391:480
0.391:480
0.391:470
0.391:460
0.391:451
0.392:448
0.392:443
0.392:436
0.392:431
0.392:422
0.392:413
0.393:416
0.393:424
0.393:433
0.393:444
0.393:451
0.393:468
0.394:475
0.394:481
0.394:491
0.394:500
0.394:497
0.395:489
0.395:481
0.395:473
0.395:462
0.395:453
0.395:451
0.396:450
0.396:442
0.396:437
0.396:441
0.396:441
0.397:450
0.397:462
0.397:474
0.397:485
0.397:493
0.397:498
0.398:502
0.398:512
0.398:519
0.398:519
0.398:513
0.398:502
0.398:490
0.399:481
0.399:474
0.399:469
0.399:467
0.399:456
0.399:450
0.400:457
0.400:465
0.401:478
0.401:492
0.401:503
0.401:511
0.401:515
0.401:522
0.402:537
0.402:543
0.402:542
0.402:531
0.403:523
0.403:512
0.403:502
0.403:497
0.403:495
0.405:492
0.405:483
0.405:481
0.405:486
0.405:492
0.405:509
0.406:519
0.406:526
0.406:533
0.406:538
0.406:542
0.407:555
0.407:561
0.407:560
0.407:554
0.407:546
0.407:539
0.407:532
0.407:523
0.407:517
0.408:514
0.408:503
0.408:501
0.408:501
0.408:505
0.408:515
0.409:526
0.409:536
0.409:546
0.409:553
0.409:557
0.409:562
0.409:575
0.410:582
0.410:579
0.410:573
0.410:562
0.410:551
0.410:544
0.412:539
0.412:536
0.412:532
0.412:523
0.412:520
0.413:524
0.413:536
0.413:547
0.413:560
0.413:570
0.413:578
0.414:582
0.414:589
0.414:601
0.414:606
0.414:607
0.414:602
0.414:595
0.415:585
0.415:577
0.415:571
0.415:570
0.415:571
0.415:563
0.415:562
0.415:570
0.415:579
0.415:591
0.416:603
0.416:611
0.416:617
0.416:621
0.416:631
0.416:644
0.418:649
0.418:645
0.419:634
0.419:624
0.419:613
0.419:606
0.420:603
0.420:603
0.420:599
0.420:593
0.420:593
0.421:596
0.421:603
0.421:614
0.421:623
0.421:631
0.421:639
0.422:646
0.422:653
0.422:665
0.422:680
0.422:684
0.423:680
0.423:673
0.423:665
0.423:655
0.423:648
0.423:646
0.424:647
0.424:643
0.424:632
0.424:633
0.424:640
0.425:648
0.425:656
0.425:664
0.425:668
0.425:673
0.426:676
0.426:681
0.426:686
0.426:686
0.426:682
0.427:671
0.427:659
0.427:650
0.427:641
0.427:635
0.427:630
0.427:619
0.427:605
0.428:603
0.428:609
0.428:618
0.428:623
0.428:627
0.428:628
0.429:629
0.429:628
0.429:631
0.429:636
0.429:630
0.429:619
0.429:604
0.430:589
0.430:576
0.430:562
0.430:551
0.431:542
0.431:529
0.431:529
0.431:511
0.431:503
0.432:504
0.432:508
0.432:512
0.432:512
0.432:509
0.432:507
0.432:502
0.434:506
0.434:509
0.434:502
0.434:490
0.435:474
0.435:454
0.435:435
0.435:417
0.436:404
0.436:393
0.436:377
0.436:363
0.436:357
0.437:358
0.437:361
0.437:365
0.437:367
0.437:369
0.437:369
0.437:368
0.437:375
0.438:381
0.438:373
0.438:361
0.438:348
0.439:334
0.439:322
0.439:314
0.439:305
0.439:298
0.440:285
0.440:275
0.440:276
0.440:282
0.440:289
0.441:299
0.441:306
0.441:311
0.441:316
0.441:322
0.441:331
0.442:334
0.442:327
0.442:320
0.442:311
0.442:302
0.442:293
0.443:285
0.443:280
0.443:278
0.443:278
0.443:272
0.444:269
0.444:272
0.444:279
0.444:292
0.444:304
0.444:316
0.445:325
0.445:330
0.445:334
0.445:344
0.445:349
0.446:345
0.446:334
0.446:323
0.446:318
0.446:316
0.447:309
0.447:306
0.447:306
0.447:298
0.449:296
0.449:302
0.449:312
0.449:326
0.449:342
0.449:354
0.450:364
0.450:370
0.450:375
0.450:387
0.450:394
0.451:391
0.451:381
0.451:368
0.451:357
0.451:352
0.452:346
0.452:344
0.452:342
0.452:333
0.452:333
0.452:337
0.452:347
0.453:357
0.453:366
0.453:373
0.453:380
0.453:384
0.453:391
0.454:403
0.454:411
0.454:410
0.454:405
0.454:398
0.454:389
0.455:381
0.455:373
0.455:370
0.455:370
0.455:367
0.456:357
0.456:357
0.456:361
0.456:371
0.456:383
0.457:398
0.457:403
0.457:410
0.457:414
0.457:422
0.458:436
0.458:442
0.458:438
0.459:429
0.459:418
0.459:407
0.459:399
0.459:394
0.459:390
0.459:385
0.459:375
0.460:375
0.460:384
0.460:398
0.460:410
0.460:423
0.461:432
0.461:438
0.461:444
0.461:453
0.461:466
0.462:468
0.462:461
0.462:448
0.462:435
0.462:424
0.462:417
0.463:415
0.463:411
0.463:408
0.463:398
0.463:399
0.464:403
0.464:412
0.464:422
0.464:434
0.464:442
0.464:449
0.465:452
0.465:459
0.465:471
0.465:474
0.465:471
0.465:462
0.465:452
0.466:442
0.466:433
0.466:425
0.466:
0.466:
0.467:579
0.467:559
0.467:560
0.467:535
0.468:497
0.468:510
0.468:498
0.469:485
0.469:465
0.469:455
0.469:434
0.469:408
0.469:368
0.470:380
0.470:400
0.470:395
0.470:408
0.470:440
0.470:489
0.471:535
0.471:5
0.471:441
0.471:457
0.471:476
0.471:517
0.472:552
0.472:579
0.472:559
0.472:560
0.472:535
0.472:497
0.473:510
0.473:498
0.473:485
0.473:465
0.473:455
0.474:434
0.474:408
0.474:368
0.474:380
0.474:400
0.475:395
0.475:408
0.475:440
0.475:489
0.475:535
0.475:547
0.476:543
0.476:542
0.476:523
0.476:529
0.476:510
0.477:500
0.477:503
0.477:493
0.477:445
0.477:396
0.478:392
0.478:380
0.478:391
0.479:413
0.479:413
0.479:414
0.479:457
0.479:521
0.479:561
0.480:573
0.480:564
0.480:577
0.480:569
0.480:534
0.480:509
0.481:495
0.481:460
0.482:407
0.482:389
0.483:389
0.483:402
0.483:430
0.483:424
0.484:418
0.484:415
0.484:412
0.484:435
0.484:480
0.484:528
0.485:558
0.485:573
0.485:561
0.485:551
0.486:553
0.486:531
0.486:516
0.486:517
0.486:489
0.487:431
0.487:407
0.487:381
0.487:385
0.487:409
0.487:427
0.487:441
0.487:457
0.488:462
0.488:477
0.488:515
0.488:564
0.488:604
0.488:618
0.489:639
0.489:634
0.489:575
0.489:524
0.489:502
0.489:477
0.489:436
0.490:414
0.490:398
0.490:396
0.490:415
0.490:422
0.490:444
0.491:453
0.491:472
0.491:500
0.491:530
0.491:577
0.492:626
0.492:632
0.492:613
0.492:594
0.492:576
0.493:550
0.493:515
0.493:474
0.493:438
0.493:438
0.494:431
0.494:421
0.494:410
0.494:398
0.494:436
0.495:474
0.495:498
0.495:518
0.495:546
0.495:591
0.495:634
0.496:646
0.496:626
0.496:617
0.496:600
0.496:579
0.496:538
0.498:505
0.498:455
0.498:407
0.498:383
0.499:350
0.499:359
0.499:387
0.499:418
0.499:422
0.499:403
0.499:437
0.499:505
0.500:582
0.500:577
0.500:571
0.500:564
0.501:554
0.501:549
0.501:525
0.501:467
0.501:423
0.502:424
0.502:416
0.502:372
0.502:360
0.502:380
0.503:400
0.503:419
0.503:433
0.503:442
0.503:460
0.503:489
0.504:521
0.504:539
0.504:584
0.504:574
0.504:546
0.505:529
0.505:512
0.505:516
0.505:497
0.505:431
0.506:431
0.506:402
0.506:402
0.506:387
0.506:390
0.506:408
0.507:424
0.507:444
0.507:458
0.507:447
0.507:472
0.508:529
0.508:557
0.508:550
0.509:529
0.509:525
0.509:529
0.509:512
0.509:519
0.509:516
0.509:488
0.510:463
0.510:441
0.510:394
0.510:352
0.510:331
0.510:344
0.511:368
0.511:435
0.511:483
0.511:509
0.512:533
0.512:569
0.512:591
0.512:573
0.512:556
0.512:534
0.513:494
0.513:489
0.513:506
0.513:485
0.513:449
0.514:419
0.514:400
0.515:410
0.515:427
0.515:453
0.515:468
0.515:477
0.516:488
0.516:527
0.516:575
0.516:584
0.516:585
0.516:618
0.516:648
0.517:676
0.517:652
0.517:603
0.517:592
0.518:592
0.518:600
0.518:622
0.518:613
0.518:638
0.518:682
0.519:703
0.519:716
0.519:761
0.519:821
0.519:860
0.520:922
0.520:990
0.520:990
0.520:989
0.520:988
0.520:988
0.521:989
0.521:989
0.521:989
0.521:989
0.521:990
0.522:886
0.522:785
0.522:714
0.522:649
0.522:583
0.522:531
0.523:490
0.523:431
0.523:413
0.523:442
0.523:444
0.524:435
0.524:436
0.524:436
0.524:391
0.524:354
0.524:303
0.525:293
0.525:285
0.525:249
0.525:247
0.525:268
0.526:311
0.526:325
0.526:320
0.526:315
0.526:329
0.526:370
0.526:402
0.528:447
0.528:502
0.528:525
0.528:514
0.528:510
0.529:507
0.529:508
0.529:505
0.529:461
0.529:461
0.529:429
0.529:395
0.530:355
0.530:322
0.530:322
0.530:352
0.530:433
0.531:458
0.531:435
0.532:416
0.532:431
0.532:453
0.532:479
0.532:497
0.532:528
0.532:563
0.533:572
0.533:558
0.533:506
0.533:451
0.534:420
0.534:381
0.534:354
0.534:356
0.534:343
0.535:344
0.535:372
0.535:384
0.535:402
0.535:428
0.536:461
0.536:497
0.536:540
0.536:585
0.536:592
0.537:566
0.537:534
0.537:529
0.537:502
0.537:481
0.538:447
0.538:403
0.538:363
0.539:346
0.539:357
0.539:386
0.539:404
0.539:380
0.539:411
0.539:465
0.539:487
0.539:525
0.540:546
0.540:568
0.540:576
0.540:565
0.540:560
0.541:571
0.541:544
0.541:544
0.541:509
0.541:483
0.542:470
0.542:483
0.542:453
0.542:388
0.542:357
0.543:360
0.543:412
0.543:481
0.543:492
0.543:481
0.544:520
0.544:555
0.544:577
0.544:572
0.544:529
0.544:481
0.545:500
0.545:532
0.545:540
0.545:516
0.545:493
0.546:468
0.546:445
0.546:476
0.546:451
0.546:425
0.546:392
0.546:416
0.546:443
0.548:497
0.548:557
0.548:583
0.548:585
0.549:583
0.549:589
0.549:588
0.549:575
0.549:525
0.549:504
0.549:519
0.549:494
0.549:436
0.549:410
0.550:393
0.550:365
0.550:421
0.550:470
0.550:496
0.551:521
0.551:526
0.551:560
0.551:598
0.551:627
0.552:636
0.552:650
0.552:628
0.552:631
0.559:631
0.559:610
0.560:542
0.563:483
0.564:432
0.564:421
0.564:431
0.565:443
0.565:433
0.565:451
0.565:478
0.566:486
0.566:493
0.568:498
0.568:542
0.568:573
0.568:587
0.569:578
0.569:609
0.569:608
0.569:598
0.569:582
0.572:573
0.572:592
0.572:535
0.572:495
0.573:471
0.573:492
0.573:495
0.573:481
0.592:491
0.592:499
0.592:490
0.592:511
0.593:561
0.593:619
0.593:670
0.593:669
0.593:643
0.596:611
0.596:609
0.596:606
0.596:580
0.597:557
0.597:512
0.598:487
0.598:492
0.599:516
0.599:517
0.600:512
0.600:488
0.600:481
0.601:535
0.601:582
0.601:627
0.601:686
0.601:723
0.603:714
0.604:695
0.605:662
0.620:662
0.620:638
0.620:614
0.620:588
0.620:557
0.620:512
0.621:510
0.621:509
0.624:498
0.624:479
0.625:495
0.625:522
0.625:534
0.625:533
0.625:564
0.625:609
0.625:653
0.625:699
0.629:707
0.629:697
0.629:662
0.629:634
0.629:615
0.629:605
0.630:596
0.630:563
0.630:520
0.630:496
0.632:483
0.632:466
0.648:500
0.649:546
0.649:552
0.649:532
0.649:552
0.653:600
0.653:617
0.653:608
0.654:619
0.654:642
0.654:639
0.654:604
0.654:554
0.654:534
0.655:513
0.658:449
0.658:420
0.658:397
0.658:417
0.659:442
0.659:468
0.659:479
0.660:475
0.660:462
0.661:437
0.662:512
0.662:571
0.662:612
0.662:608
0.663:587
0.678:587
0.678:549
0.678:538
0.678:518
0.681:492
0.682:454
0.682:382
0.682:350
0.682:335
0.682:328
0.682:337
0.683:361
0.683:364
0.683:354
0.686:366
0.686:385
0.686:415
0.687:427
0.687:484
0.687:519
0.687:542
0.687:525
0.688:479
0.690:434
0.690:425
0.690:387
0.691:330
0.691:302
0.691:321
0.691:337
0.706:326
0.711:318
0.711:333
0.712:331
0.712:339
0.712:348
0.713:396
0.713:432
0.713:451
0.714:432
0.714:435
0.714:434
0.715:414
0.715:396
0.715:391
0.715:355
0.716:305
0.716:308
0.716:327
0.716:327
0.719:304
0.719:293
0.720:318
0.720:355
0.720:351
0.720:357
0.721:422
0.721:473
0.721:498
0.722:493
0.739:493
0.739:499
0.739:481
0.739:464
0.739:432
0.739:394
0.740:366
0.740:338
0.740:352
0.740:352
0.744:321
0.744:277
0.744:297
0.745:333
0.745:353
0.745:367
0.746:401
0.746:461
0.746:481
0.747:485
0.747:466
0.747:474
0.747:505
0.747:485
0.748:435
0.748:417
0.748:440
0.748:439
0.749:436
0.751:411
0.768:382
0.768:375
0.769:358
0.769:331
0.769:339
0.769:387
0.769:446
0.772:495
0.772:500
0.773:485
0.773:499
0.773:520
0.774:499
0.774:488
0.774:479
0.774:477
0.776:438
0.776:356
0.777:321
0.777:330
0.777:360
0.778:370
0.779:375
0.779:379
0.779:378
0.779:402
0.781:435
0.781:485
0.781:498
0.781:521
0.796:521
0.796:531
0.798:551
0.798:530
0.798:526
0.798:524
0.801:483
0.801:421
0.801:368
0.802:328
0.802:302
0.802:304
0.802:322
0.802:374
0.803:424
0.804:448
0.805:436
0.805:445
0.805:466
0.805:509
0.805:579
0.806:585
0.806:542
0.806:507
0.806:510
0.808:509
0.808:475
0.810:418
0.810:373
0.810:378
0.825:381
0.825:417
0.829:427
0.829:414
0.829:420
0.830:459
0.830:506
0.830:495
0.830:499
0.831:526
0.831:561
0.831:589
0.833:592
0.834:571
0.834:528
0.834:486
0.835:468
0.835:439
0.835:383
0.836:393
0.836:379
0.836:352
0.837:355
0.838:380
0.838:415
0.838:441
0.839:452
0.839:477
0.839:510
0.839:531
0.853:531
0.853:565
0.858:568
0.858:572
0.858:545
0.859:514
0.859:495
0.859:493
0.859:443
0.859:389
0.860:378
0.862:368
0.862:377
0.863:382
0.863:376
0.863:389
0.864:401
0.864:439
0.864:510
0.865:580
0.865:591
0.866:592
0.866:577
0.866:567
0.867:531
0.867:495
0.867:502
0.868:503
0.868:455
0.869:409
0.887:410
0.887:428
0.887:444
0.887:455
0.888:468
0.888:456
0.888:444
0.888:449
0.890:483
0.891:532
0.891:556
0.891:565
0.891:553
0.892:583
0.892:587
0.892:530
0.892:479
0.894:461
0.895:420
0.895:372
0.895:353
0.895:365
0.896:382
0.896:389
0.896:397
0.896:417
0.898:443
0.899:472
0.899:522
0.899:576
0.915:576
0.915:597
0.915:599
0.915:574
0.915:558
0.916:548
0.917:527
0.919:523
0.919:532
0.920:497
0.920:445
0.920:398
0.920:345
0.920:318
0.920:328
0.921:360
0.921:419
0.923:468
0.923:467
0.924:479
0.924:531
0.924:578
0.924:589
0.924:582
0.924:597
0.925:597
0.927:547
0.927:492
0.927:466
0.928:449
0.944:423
0.944:399
0.944:395
0.945:394
0.948:378
0.948:387
0.948:419
0.949:442
0.949:485
0.949:535
0.950:569
0.950:580
0.950:587
0.952:570
0.952:506
0.952:464
0.953:458
0.953:487
0.953:480
0.954:467
0.954:440
0.954:406
0.955:372
0.956:383
0.956:383
0.956:365
0.956:387
0.958:437
0.958:476
0.958:534
0.972:534
0.972:580
0.973:606
0.977:610
0.977:597
0.977:578
0.978:556
0.978:519
0.979:499
0.979:492
0.979:437
0.979:394
0.981:362
0.981:355
0.981:386
0.982:417
0.982:439
0.982:471
0.982:480
0.982:483
0.982:528
0.982:558
0.985:576
0.985:565
0.985:560
0.985:563
0.985:544
0.986:527
0.986:544
0.986:525
1.006:471
1.006:428
1.006:410
1.006:408
1.006:391
1.007:395
1.007:408
1.007:431
1.007:442
1.009:465
1.009:515
1.009:531
1.009:526
1.011:539
1.011:551
1.011:540
1.011:546
1.011:546
1.012:552
1.014:555
1.014:522
1.015:480
1.015:437
1.015:434
1.015:416
1.015:384
1.015:361
1.016:409
1.017:452
1.018:471
1.034:471
1.034:492
1.035:521
1.035:538
1.035:537
1.035:545
1.036:554
1.036:557
1.038:523
1.039:487
1.039:469
1.039:430
1.039:385
1.040:337
1.040:319
1.040:341
1.040:397
1.040:442
1.042:475
1.042:500
1.043:496
1.043:539
1.043:590
1.043:605
1.043:590
1.044:578
1.044:568
1.046:560
1.046:539
1.047:514
1.063:504
1.063:472
1.064:431
1.064:418
1.064:402
1.067:376
1.067:381
1.067:406
1.067:432
1.067:453
1.068:458
1.068:519
1.068:565
1.068:577
1.068:578
1.071:561
1.071:521
1.071:518
1.071:515
1.071:493
1.072:458
1.072:399
1.072:349
1.072:358
1.075:382
1.075:393
1.075:445
1.075:481
1.076:483
1.076:509
1.091:509
1.091:534
1.091:586
1.092:606
1.095:600
1.096:582
1.096:593
1.096:556
1.096:510
1.096:469
1.096:475
1.096:465
1.097:396
1.097:358
1.100:362
1.100:386
1.101:393
1.101:399
1.101:374
1.101:393
1.102:446
1.102:481
1.102:543
1.104:581
1.104:610
1.104:617
1.104:602
1.105:575
1.105:544
1.105:536
1.120:514
1.124:466
1.125:404
1.125:386
1.125:390
1.125:397
1.125:391
1.126:405
1.126:429
1.126:445
1.126:438
1.128:433
1.128:484
1.128:548
1.128:578
1.129:590
1.129:615
1.129:592
1.129:547
1.129:522
1.132:501
1.132:479
1.132:445
1.132:435
1.132:413
1.133:376
1.134:356
1.134:367
1.134:406
1.134:448
1.153:448
1.153:477
1.153:503
1.153:561
1.153:629
1.153:668
1.154:658
1.154:638
1.154:595
1.154:551
1.156:493
1.156:449
1.156:464
1.156:432
1.158:416
1.158:408
1.158:416
1.158:423
1.158:432
1.161:448
1.161:438
1.161:444
1.161:464
1.162:534
1.162:580
1.162:594
1.162:609
1.162:612
1.163:558
1.165:557
1.181:549
1.181:493
1.182:434
1.182:385
1.182:359
1.182:342
1.185:363
1.186:397
1.186:436
1.186:456
1.186:471
1.186:489
1.186:526
1.187:596
1.187:636
1.187:654
1.189:641
1.190:625
1.190:598
1.190:574
1.190:540
1.190:526
1.191:526
1.191:505
1.191:479
1.191:468
1.193:478
1.194:469
1.194:483
1.194:480
1.210:480
1.210:467
1.211:478
1.211:517
1.211:549
1.211:556
1.214:560
1.214:566
1.214:577
1.215:559
1.215:516
1.215:472
1.215:477
1.215:469
1.215:449
1.218:402
1.219:380
1.219:372
1.219:357
1.219:371
1.219:395
1.219:444
1.219:483
1.219:508
1.219:560
1.222:568
1.222:559
1.223:567
1.223:592
1.223:602
1.238:591
1.239:554
1.243:515
1.243:461
1.243:402
1.243:336
1.244:297
1.244:329
1.244:351
1.244:347
1.244:368
1.245:396
1.248:425
1.248:453
1.248:513
1.249:573
1.249:611
1.249:580
1.249:566
1.249:522
1.249:491
1.251:483
1.251:488
1.251:518
1.251:495
1.251:435
1.252:363
1.252:324
1.252:336
1.252:357
1.267:357
1.267:409
1.272:431
1.272:457
1.272:499
1.272:549
1.273:576
1.273:587
1.273:580
1.273:594
1.273:586
1.276:567
1.276:550
1.276:525
1.276:489
1.277:400
1.277:359
1.277:349
1.277:371
1.277:380
1.278:397
1.280:406
1.280:444
1.280:488
1.281:495
1.281:542
1.281:576
1.282:581
1.282:580
1.282:560
1.300:523
1.300:520
1.301:507
1.301:501
1.301:496
1.301:443
1.301:442
1.302:433
1.305:441
1.305:474
1.305:542
1.306:595
1.306:639
1.306:676
1.306:723
1.307:789
1.307:819
1.308:828
1.308:821
1.308:811
1.309:803
1.309:819
1.309:827
1.309:823
1.309:795
1.310:783
1.310:810
1.313:857
1.313:923
1.313:966
1.329:966
1.329:990
1.329:990
1.329:990
1.329:990
1.330:989
1.331:989
1.333:990
1.333:921
1.334:833
1.334:773
1.334:690
1.334:594
1.334:528
1.334:488
1.335:392
1.337:282
1.337:236
1.337:231
1.338:256
1.338:256
1.339:259
1.339:272
1.339:280
1.339:285
1.339:319
1.341:386
1.341:422
1.341:439
1.341:432
1.357:455
1.358:450
1.358:451
1.358:437
1.362:428
1.362:400
1.362:360
1.362:331
1.363:333
1.363:355
1.364:345
1.364:368
1.365:386
1.366:381
1.366:402
1.366:431
1.366:465
1.367:487
1.367:533
1.367:541
1.367:523
1.368:511
1.368:501
1.369:478
1.370:437
1.370:407
1.370:392
1.370:379
1.370:370
1.371:337
1.386:337
1.386:321
1.386:370
1.391:403
1.391:393
1.391:381
1.391:405
1.392:489
1.392:499
1.392:511
1.392:528
1.392:525
1.395:513
1.395:512
1.395:474
1.395:434
1.396:399
1.396:367
1.396:366
1.396:362
1.396:351
1.397:355
1.398:384
1.398:440
1.398:467
1.398:466
1.398:505
1.400:574
1.400:565
1.400:541
1.419:532
1.419:531
1.419:520
1.419:523
1.419:550
1.419:550
1.420:505
1.420:443
1.420:387
1.423:370
1.423:376
1.423:389
1.423:421
1.424:454
1.424:481
1.424:498
1.424:503
1.424:523
1.425:508
1.428:531
1.428:553
1.428:561
1.428:536
1.428:520
1.429:506
1.429:487
1.429:450
1.429:411
1.431:382
1.431:366
1.448:366
1.448:380
1.448:404
1.448:418
1.448:434
1.449:452
1.449:463
1.449:498
1.452:545
1.452:584
1.452:591
1.452:583
1.453:589
1.453:560
1.453:531
1.453:517
1.453:516
1.453:483
1.456:419
1.456:405
1.456:402
1.457:417
1.457:437
1.457:449
1.457:489
1.457:507
1.457:520
1.460:555
1.460:583
1.460:603
1.476:615
1.476:627
1.476:610
1.476:586
1.476:579
1.480:573
1.482:532
1.482:450
1.482:365
1.482:359
1.482:362
1.483:389
1.483:416
1.483:454
1.483:469
1.485:469
1.485:477
1.485:537
1.485:609
1.485:623
1.485:616
1.485:606
1.485:617
1.486:611
1.489:579
1.489:553
1.489:557
1.489:543
1.489:490
1.489:450
1.505:450
1.505:420
1.505:407
1.506:427
1.509:462
1.509:510
1.509:510
1.509:518
1.509:570
1.510:609
1.510:637
1.510:647
1.510:642
1.510:622
1.514:587
1.514:573
1.514:572
1.514:589
1.515:595
1.515:567
1.515:525
1.515:500
1.515:484
1.518:510
1.518:535
1.518:531
1.518:517
1.518:496
1.518:555
1.519:618
1.533:624
1.538:620
1.538:635
1.538:643
1.538:637
1.538:611
1.539:586
1.539:581
1.539:549
1.539:511
1.539:491
1.542:488
1.542:480
1.543:498
1.543:535
1.543:566
1.543:590
1.543:618
1.543:649
1.544:659
1.546:659
1.546:686
1.548:681
1.548:641
1.548:615
1.548:594
1.548:577
1.548:558
1.548:534
1.548:511
1.567:511
1.567:492
1.567:484
1.567:470
1.567:482
1.568:512
1.568:551
1.568:563
1.568:548
1.568:565
1.570:606
1.571:649
1.571:654
1.571:636
1.571:627
1.572:625
1.572:599
1.572:589
1.572:564
1.574:495
1.575:452
1.575:477
1.575:511
1.575:527
1.575:555
1.576:560
1.576:553
1.576:543
1.576:526
1.579:532
1.595:568
1.595:616
1.595:638
1.595:638
1.595:596
1.595:556
1.599:495
1.599:473
1.599:470
1.599:435
1.600:388
1.600:367
1.600:364
1.600:353
1.600:370
1.601:422
1.604:424
1.604:382
1.604:368
1.604:418
1.605:483
1.605:512
1.605:502
1.605:490
1.605:478
1.606:480
1.607:483
1.607:493
1.607:462
1.607:385
1.623:385
1.624:331
1.624:325
1.624:304
1.624:292
1.624:314
1.628:326
1.628:343
1.628:355
1.629:347
1.629:373
1.629:406
1.629:438
1.629:481
1.629:492
1.632:482
1.632:463
1.632:424
1.632:389
1.633:364
1.633:343
1.633:328
1.633:305
1.634:293
1.634:294
1.635:321
1.636:330
1.636:345
1.636:370
1.636:346
1.652:382
1.652:455
1.657:512
1.657:539
1.657:551
1.657:498
1.657:449
1.657:427
1.658:397
1.658:378
1.658:340
1.658:297
1.661:291
1.661:307
1.661:311
1.661:332
1.662:356
1.662:376
1.662:394
1.662:403
1.662:449
1.665:472
1.665:498
1.665:488
1.665:519
1.665:509
1.666:481
1.666:480
1.666:488
1.666:437
1.681:437
1.686:323
1.686:275
1.686:260
1.686:277
1.687:299
1.687:315
1.687:328
1.687:347
1.687:378
1.687:399
1.689:445
1.689:470
1.690:498
1.690:509
1.690:512
1.690:485
1.690:506
1.691:515
1.691:476
1.691:461
1.693:424
1.693:370
1.694:344
1.694:338
1.694:346
1.694:376
1.694:387
1.695:409
1.695:417
1.714:417
1.714:463
1.714:511
1.714:542
1.714:544
1.715:529
1.715:508
1.715:489
1.718:461
1.718:465
1.718:460
1.718:416
1.719:373
1.719:340
1.719:345
1.719:338
1.719:339
1.722:375
1.722:402
1.722:424
1.722:456
1.723:506
1.723:546
1.723:550
1.723:524
1.723:514
1.724:501
1.726:480
1.726:465
1.726:462
1.742:462
1.742:467
1.742:417
1.743:381
1.743:367
1.743:357
1.743:342
1.746:345
1.748:380
1.748:420
1.748:429
1.748:415
1.748:468
1.748:502
1.748:547
1.748:553
1.751:554
1.751:533
1.751:516
1.751:488
1.752:462
1.752:457
1.752:433
1.752:406
1.752:369
1.753:349
1.755:343
1.755:381
1.755:417
1.755:434
1.770:447
1.771:487
1.771:546
1.771:566
1.774:563
1.774:566
1.776:574
1.776:577
1.776:609
1.776:580
1.776:508
1.777:435
1.777:365
1.779:367
1.779:406
1.781:409
1.781:371
1.781:371
1.781:382
1.781:405
1.781:441
1.782:463
1.782:486
1.784:508
1.784:546
1.784:560
1.784:575
1.785:572
1.785:535
1.785:506
1.800:506
1.800:487
1.800:452
1.804:390
1.805:341
1.805:308
1.805:342
1.805:399
1.805:429
1.806:439
1.806:468
1.806:490
1.808:476
1.808:495
1.808:527
1.808:555
1.808:559
1.808:573
1.809:554
1.809:559
1.809:549
1.809:515
1.812:456
1.812:387
1.813:359
1.813:374
1.813:385
1.813:401
1.813:401
1.815:405
1.832:434
1.832:480
1.833:523
1.833:562
1.833:564
1.833:566
1.833:565
1.834:562
1.834:530
1.836:525
1.836:520
1.837:506
1.837:491
1.837:432
1.837:389
1.838:379
1.839:371
1.839:368
1.839:395
1.840:418
1.840:437
1.842:431
1.842:460
1.842:554
1.843:609
1.843:627
1.843:622
1.843:611
1.845:590
1.845:572
1.861:572
1.861:530
1.862:503
1.862:460
1.862:393
1.862:379
1.862:379
1.862:365
1.866:341
1.866:344
1.866:364
1.866:377
1.866:404
1.867:467
1.867:545
1.867:559
1.867:575
1.867:577
1.869:587
1.869:588
1.869:586
1.869:542
1.870:488
1.870:437
1.870:401
1.870:430
1.870:423
1.874:418
1.874:414
1.874:406
1.889:418
1.889:446
1.890:472
1.890:504
1.890:563
1.894:576
1.894:553
1.894:519
1.894:511
1.895:475
1.895:460
1.895:461
1.895:460
1.895:466
1.896:450
1.898:415
1.898:393
1.898:399
1.898:406
1.898:441
1.898:471
1.898:494
1.898:489
1.898:508
1.902:573
1.902:603
1.902:600
1.902:564
1.903:553
1.903:544
1.918:544
1.918:539
1.919:517
1.919:496
1.923:468
1.923:429
1.923:402
1.923:386
1.924:375
1.924:362
1.924:386
1.924:420
1.924:452
1.925:485
1.927:506
1.927:527
1.928:542
1.928:562
1.928:579
1.928:588
1.928:557
1.928:547
1.929:536
1.930:508
1.931:458
1.932:402
1.932:406
1.932:414
1.932:402
1.932:398
1.947:420
1.951:423
1.952:431
1.952:469
1.952:508
1.952:552
1.952:580
1.953:576
1.953:575
1.953:589
1.956:573
1.956:533
1.956:459
1.956:468
1.957:453
1.957:398
1.957:379
1.957:369
1.957:359
1.957:385
1.959:406
1.959:444
1.959:462
1.959:474
1.959:504
1.961:549
1.961:562
1.961:555
1.961:552
1.961:580
1.980:580
1.981:594
1.981:579
1.981:560
1.981:543
1.982:518
1.982:442
1.982:386
1.982:363
1.982:364
1.984:383
1.984:413
1.984:434
1.984:442
1.985:434
1.985:457
1.985:515
1.985:547
1.985:577
1.988:568
1.988:556
1.988:556
1.988:537
1.989:512
1.989:516
1.989:504
1.989:501
1.989:470
1.989:438
1.991:418
2.008:370
2.009:369
2.009:410
2.009:437
2.009:452
2.009:488
2.013:531
2.014:546
2.014:586
2.014:610
2.014:614
2.015:594
2.015:546
2.015:500
2.015:500
2.015:487
2.017:440
2.017:423
2.017:405
2.017:386
2.017:371
2.018:382
2.018:415
2.018:446
2.018:462
2.021:503
2.021:538
2.021:533
2.021:564
2.022:581
2.037:581
2.037:617
2.037:620
2.038:609
2.038:594
2.042:550
2.042:462
2.042:350
2.042:317
2.043:325
2.043:351
2.043:389
2.043:408
2.043:431
2.043:452
2.046:481
2.047:508
2.047:542
2.047:575
2.048:608
2.048:601
2.048:596
2.049:582
2.049:545
2.049:509
2.049:513
2.049:518
2.049:487
2.049:430
2.049:374
2.065:358
2.065:370
2.070:373
2.070:380
2.070:418
2.070:464
2.071:517
2.071:530
2.071:534
2.071:549
2.071:567
2.071:568
2.075:534
2.075:518
2.075:517
2.075:524
2.076:510
2.076:467
2.076:445
2.076:440
2.076:430
2.078:424
2.078:386
2.078:376
2.079:406
2.079:471
2.080:558
2.081:624
2.081:632
2.081:627
2.094:627
2.099:612
2.099:555
2.099:503
2.099:464
2.100:456
2.100:459
2.100:465
2.100:458
2.101:440
2.101:413
2.103:397
2.103:397
2.103:400
2.104:413
2.104:432
2.104:467
2.104:520
2.105:566
2.105:569
2.107:559
2.107:563
2.108:551
2.108:525
2.108:499
2.108:512
2.108:509
2.108:479
2.109:462
2.109:456
2.127:445
2.127:433
2.127:445
2.128:470
2.128:492
2.128:502
2.128:533
2.128:565
2.132:593
2.132:606
2.132:608
2.132:594
2.133:571
2.133:545
2.133:520
2.133:496
2.133:479
2.136:449
2.136:417
2.136:410
2.136:430
2.137:451
2.137:476
2.137:486
2.137:492
2.137:513
2.137:537
2.140:572
2.140:595
2.140:609
2.156:609
2.156:647
2.156:655
2.156:630
2.156:619
2.157:587
2.157:580
2.160:561
2.160:491
2.160:403
2.160:373
2.161:361
2.161:328
2.161:328
2.161:349
2.161:366
2.164:402
2.164:462
2.164:521
2.164:553
2.164:569
2.165:577
2.165:562
2.165:533
2.165:524
2.165:511
2.168:485
2.168:467
2.168:424
2.168:390
2.184:393
2.185:421
2.185:440
2.185:442
2.188:450
2.188:455
2.188:453
2.188:447
2.188:495
2.189:542
2.189:570
2.189:566
2.189:568
2.193:560
2.193:557
2.193:513
2.193:481
2.194:475
2.194:427
2.194:395
2.194:367
2.194:339
2.195:352
2.196:375
2.196:364
2.196:362
2.196:390
2.198:424
2.198:497
2.198:570
2.214:570
2.214:594
2.214:587
2.218:596
2.218:577
2.218:573
2.219:530
2.219:516
2.219:522
2.219:476
2.219:438
2.219:420
2.222:432
2.222:414
2.222:409
2.222:404
2.223:416
2.223:431
2.223:454
2.223:495
2.223:537
2.223:571
2.226:566
2.226:574
2.226:582
2.226:575
2.227:526
2.227:467
2.227:445
2.227:401
2.246:377
2.246:390
2.247:442
2.247:437
2.247:421
2.247:406
2.248:422
2.248:454
2.248:506
2.250:578
2.250:616
2.250:644
2.250:640
2.251:608
2.251:568
2.251:580
2.251:573
2.251:563
2.252:547
2.254:540
2.254:548
2.254:559
2.254:585
2.254:613
2.255:648
2.255:679
2.255:727
2.255:769
2.258:790
2.258:847
2.274:847
2.274:915
2.275:976
2.275:990
2.275:990
2.275:989
2.276:989
2.276:989
2.279:989
2.280:989
2.280:990
2.280:945
2.280:942
2.280:913
2.280:855
2.280:829
2.281:804
2.281:768
2.283:706
2.283:616
2.283:580
2.283:538
2.284:502
2.284:490
2.284:472
2.284:444
2.284:409
2.287:361
2.287:344
2.288:338
2.304:283
2.304:236
2.304:230
2.304:247
2.304:261
2.308:279
2.308:291
2.308:309
2.308:334
2.309:351
2.309:392
2.309:441
2.309:478
2.309:494
2.309:507
2.311:492
2.312:481
2.312:469
2.312:462
2.313:454
2.313:406
2.313:345
2.313:325
2.313:334
2.316:313
2.316:313
2.316:322
2.316:328
2.317:378
2.317:430
2.332:430
2.332:512
2.332:550
2.332:545
2.336:538
2.336:558
2.336:540
2.336:497
2.337:444
2.337:392
2.337:380
2.337:363
2.338:355
2.338:363
2.341:372
2.341:369
2.341:375
2.341:385
2.341:407
2.341:430
2.341:459
2.341:524
2.341:561
2.345:577
2.345:574
2.345:539
2.345:487
2.345:486
2.345:484
2.346:450
2.360:412
2.365:397
2.365:413
2.365:405
2.365:388
2.366:381
2.366:421
2.366:416
2.366:401
2.366:412
2.369:449
2.369:524
2.369:578
2.369:628
2.369:640
2.369:640
2.369:591
2.370:531
2.370:477
2.370:453
2.373:450
2.373:433
2.373:397
2.373:354
2.374:372
2.374:391
2.374:420
2.374:436
2.374:441
2.375:448
2.394:448
2.394:458
2.394:488
2.394:516
2.395:552
2.395:568
2.395:568
2.395:553
2.395:553
2.397:558
2.398:567
2.398:537
2.398:464
2.398:444
2.398:435
2.398:414
2.399:383
2.399:396
2.399:433
2.401:443
2.401:460
2.401:481
2.401:528
2.403:565
2.403:591
2.403:608
2.403:623
2.403:599
2.404:568
2.406:534
2.422:505
2.422:483
2.422:428
2.422:393
2.422:381
2.422:407
2.427:403
2.427:407
2.427:451
2.427:509
2.427:534
2.428:537
2.428:573
2.428:581
2.428:547
2.428:524
2.431:565
2.431:606
2.432:609
2.432:579
2.432:525
2.432:492
2.432:454
2.432:436
2.432:436
2.435:445
2.435:424
2.435:424
2.435:445
2.436:461
2.450:461
2.450:496
2.452:538
2.452:594
2.452:629
2.455:630
2.455:599
2.455:611
2.455:641
2.456:626
2.456:603
2.456:602
2.456:569
2.456:486
2.457:440
2.458:409
2.458:415
2.458:452
2.460:501
2.460:525
2.460:521
2.460:527
2.460:571
2.461:629
2.463:662
2.464:682
2.464:674
2.464:667
2.464:654
2.464:633
2.479:615
2.480:593
2.484:592
2.485:572
2.485:528
2.485:469
2.485:428
2.485:460
2.486:506
2.486:519
2.486:501
2.486:520
2.487:567
2.488:628
2.488:648
2.488:685
2.488:705
2.488:682
2.488:656
2.488:653
2.488:643
2.492:597
2.492:556
2.492:513
2.492:491
2.493:474
2.493:459
2.493:453
2.493:470
2.494:493
2.508:493
2.513:526
2.513:550
2.514:587
2.514:640
2.514:655
2.514:680
2.514:702
2.514:701
2.515:675
2.515:656
2.517:628
2.517:609
2.518:570
2.518:505
2.518:474
2.519:483
2.519:491
2.519:473
2.519:470
2.521:507
2.521:538
2.521:536
2.521:579
2.522:638
2.522:651
2.522:650
2.522:629
2.523:620
2.523:605
2.541:614
2.542:634
2.542:637
2.542:597
2.542:524
2.542:468
2.542:432
2.543:408
2.545:425
2.545:438
2.545:452
2.546:474
2.546:461
2.546:505
2.546:581
2.546:607
2.546:610
2.549:597
2.549:575
2.550:553
2.550:538
2.550:522
2.550:492
2.550:453
2.551:404
2.551:377
2.551:345
2.553:314
2.554:319
2.554:359
2.568:359
2.570:409
2.570:423
2.570:409
2.570:442
2.570:511
2.571:546
2.574:536
2.574:490
2.574:464
2.575:447
2.575:438
2.575:432
2.575:410
2.575:343
2.575:260
2.578:233
2.578:248
2.578:285
2.578:323
2.579:362
2.579:389
2.580:368
2.580:330
2.580:370
2.580:425
2.582:430
2.582:439
2.583:445
2.583:461
2.598:470
2.598:463
2.599:454
2.599:432
2.603:397
2.603:314
2.603:269
2.603:257
2.604:245
2.604:249
2.604:294
2.604:346
2.604:356
2.607:331
2.607:353
2.607:417
2.607:471
2.608:519
2.608:521
2.608:486
2.608:427
2.608:380
2.608:377
2.610:370
2.611:368
2.611:345
2.611:321
2.611:296
2.611:293
2.612:315
2.627:315
2.627:316
2.627:316
2.631:332
2.632:354
2.632:405
2.632:452
2.632:498
2.632:511
2.633:505
2.633:497
2.634:467
2.635:425
2.635:414
2.635:430
2.636:421
2.636:370
2.636:336
2.636:321
2.637:306
2.637:284
2.637:274
2.639:320
2.639:395
2.639:470
2.639:508
2.639:512
2.640:486
2.640:464
2.640:458
2.660:459
2.660:453
2.660:447
2.661:451
2.661:429
2.661:390
2.661:370
2.661:366
2.661:349
2.664:335
2.664:357
2.664:364
2.664:344
2.664:359
2.665:420
2.665:505
2.665:574
2.665:568
2.666:552
2.668:536
2.668:516
2.668:491
2.668:468
2.668:454
2.669:469
2.669:454
2.669:422
2.669:397
2.672:367
2.672:363
2.689:363
2.689:364
2.689:358
2.689:381
2.689:401
2.689:415
2.689:474
2.690:510
2.693:518
2.693:537
2.693:547
2.693:546
2.694:554
2.694:539
2.694:519
2.694:501
2.694:456
2.695:385
2.696:341
2.696:337
2.696:339
2.697:333
2.697:360
2.697:391
2.697:392
2.697:423
2.697:479
2.701:516
2.701:513
2.701:523
2.717:537
2.717:520
2.717:514
2.718:507
2.718:507
2.721:518
2.721:493
2.721:426
2.721:353
2.721:319
2.722:344
2.722:400
2.722:451
2.722:487
2.725:458
2.725:427
2.725:479
2.725:513
2.726:528
2.726:551
2.726:576
2.726:565
2.726:538
2.726:510
2.729:471
2.730:442
2.730:401
2.730:380
2.730:376
2.731:367
2.747:367
2.747:356
2.747:383
2.747:408
2.750:436
2.750:477
2.750:497
2.751:533
2.751:579
2.751:599
2.751:610
2.751:619
2.752:576
2.752:527
2.754:499
2.754:482
2.754:479
2.754:429
2.754:405
2.755:403
2.755:390
2.755:397
2.755:433
2.758:431
2.758:427
2.758:414
2.758:407
2.759:465
2.759:510
2.759:526
2.774:538
2.780:562
2.780:559
2.780:561
2.781:545
2.781:503
2.781:444
2.782:392
2.782:385
2.782:404
2.783:437
2.783:450
2.783:436
2.783:402
2.783:414
2.784:439
2.784:468
2.785:535
2.785:588
2.785:583
2.787:551
2.787:521
2.787:493
2.787:515
2.788:517
2.788:467
2.788:462
2.788:444
2.788:399
2.791:375
2.807:375
2.807:385
2.808:378
2.808:385
2.808:400
2.808:413
2.808:429
2.808:442
2.809:476
2.812:500
2.812:534
2.813:578
2.813:603
2.813:602
2.813:582
2.813:532
2.813:489
2.814:477
2.814:448
2.816:422
2.816:392
2.816:366
2.816:348
2.816:381
2.816:413
2.816:428
2.816:419
2.816:454
2.816:523
2.819:551
2.836:534
2.836:525
2.836:541
2.836:548
2.836:562
2.837:578
2.840:548
2.840:507
2.840:435
2.840:384
2.841:343
2.841:354
2.841:375
2.841:403
2.841:404
2.841:417
2.844:445
2.844:466
2.844:504
2.845:535
2.845:546
2.846:548
2.846:572
2.846:562
2.846:544
2.848:545
2.848:510
2.848:482
2.848:436
2.848:396
2.865:396
2.865:390
2.866:415
2.866:393
2.866:382
2.869:421
2.869:486
2.869:500
2.869:468
2.869:513
2.870:566
2.870:576
2.870:572
2.870:574
2.870:560
2.873:540
2.873:507
2.873:472
2.873:450
2.874:418
2.874:412
2.874:406
2.874:415
2.874:399
2.877:430
2.877:448
2.877:433
2.877:426
2.878:451
2.878:516
2.893:557
2.893:516
2.897:501
2.897:517
2.897:530
2.897:566
2.898:597
2.898:560
2.898:494
2.899:417
2.899:383
2.899:374
2.901:356
2.901:356
2.901:379
2.901:398
2.901:422
2.902:405
2.902:414
2.902:495
2.902:553
2.905:603
2.905:645
2.905:664
2.905:628
2.906:558
2.906:526
2.906:508
2.906:502
2.906:454
2.921:454
2.926:417
2.926:364
2.926:350
2.926:359
2.927:385
2.927:397
2.927:411
2.927:434
2.928:458
2.928:500
2.930:534
2.930:568
2.930:592
2.931:597
2.931:569
2.931:549
2.931:527
2.932:498
2.932:490
2.934:442
2.934:406
2.934:374
2.934:369
2.935:373
2.935:415
2.935:450
2.935:474
2.935:505
2.936:514
2.955:561
2.955:596
2.955:629
2.955:655
2.955:635
2.955:569
2.956:505
2.956:479
2.958:463
2.958:450
2.958:410
2.960:399
2.960:412
2.960:418
2.960:382
2.960:358
2.961:368
2.962:419
2.963:449
2.963:469
2.963:505
2.963:541
2.963:579
2.964:569
2.964:567
2.964:555
2.965:538
2.966:509
2.967:480
2.967:454
2.983:454
2.983:418
2.983:390
2.983:359
2.983:383
2.983:413
2.983:444
2.987:459
2.987:464
2.988:476
2.988:499
2.988:549
2.988:580
2.988:589
2.989:562
2.989:563
2.992:562
2.992:522
2.992:508
2.992:490
2.993:473
2.993:430
2.993:418
2.993:400
2.993:383
2.994:370
2.996:389
2.997:394
2.997:441
2.997:499
3.012:513
3.013:494
3.013:496
3.016:544
3.017:583
3.017:617
3.017:657
3.017:617
3.017:551
3.017:506
3.017:471
3.017:414
3.017:384
3.020:399
3.020:428
3.020:432
3.021:436
3.021:424
3.021:427
3.021:437
3.021:463
3.022:476
3.022:464
3.024:492
3.024:539
3.024:549
3.024:524
3.025:521
3.025:508
3.025:490
3.040:490
3.040:477
3.040:447
3.045:441
3.045:441
3.045:468
3.046:471
3.046:457
3.046:442
3.046:435
3.047:438
3.047:482
3.049:572
3.049:611
3.049:620
3.050:576
3.050:565
3.050:565
3.050:569
3.050:552
3.050:537
3.050:501
3.053:437
3.053:410
3.053:397
3.053:417
3.054:427
3.054:422
3.054:422
3.054:460
3.074:479
3.074:511
3.074:552
3.074:563
3.074:549
3.075:549
3.075:586
3.075:608
3.075:585
3.078:559
3.078:547
3.078:534
3.078:502
3.079:470
3.079:402
3.079:390
3.079:417
3.079:460
3.081:471
3.081:505
3.082:523
3.082:554
3.082:577
3.082:573
3.083:586
3.083:620
3.083:650
3.083:629
3.086:572
3.086:523
3.102:523
3.102:511
3.102:509
3.103:483
3.103:438
3.103:420
3.103:432
3.103:404
3.106:386
3.106:386
3.106:383
3.106:383
3.107:420
3.107:499
3.107:557
3.107:573
3.107:569
3.108:585
3.110:574
3.110:536
3.110:494
3.111:496
3.111:504
3.111:444
3.111:393
3.111:339
3.112:316
3.114:344
3.114:393
3.115:421
3.131:449
3.131:485
3.131:503
3.131:535
3.131:553
3.135:566
3.135:564
3.135:568
3.135:552
3.136:539
3.136:530
3.136:497
3.136:450
3.136:392
3.139:352
3.139:339
3.139:337
3.139:347
3.139:385
3.139:446
3.140:469
3.140:458
3.140:467
3.140:498
3.143:523
3.143:554
3.143:576
3.143:596
3.143:604
3.144:582
3.159:582
3.159:532
3.159:494
3.159:434
3.164:353
3.164:346
3.164:370
3.164:375
3.165:383
3.165:414
3.165:430
3.165:442
3.165:452
3.166:483
3.167:550
3.168:570
3.168:563
3.168:548
3.168:553
3.168:578
3.169:571
3.169:539
3.169:532
3.172:532
3.172:488
3.172:463
3.172:408
3.173:367
3.173:374
3.173:410
3.188:446
3.192:454
3.192:426
3.192:458
3.192:528
3.193:567
3.193:587
3.193:598
3.193:633
3.193:626
3.195:595
3.196:558
3.196:544
3.196:533
3.196:508
3.196:512
3.196:542
3.198:581
3.198:613
3.198:664
3.200:725
3.200:754
3.200:769
3.201:819
3.201:916
3.201:990
3.201:990
3.201:990
3.201:990
3.204:989
3.221:989
3.221:989
3.221:989
3.221:989
3.222:989
3.222:965
3.222:895
3.222:864
3.223:849
3.225:816
3.225:777
3.225:736
3.225:683
3.226:612
3.226:580
3.226:577
3.226:559
3.226:539
3.227:488
3.228:429
3.230:385
3.230:344
3.230:355
3.230:371
3.230:322
3.230:265
3.231:249
3.231:232
3.231:209
3.233:192
3.250:218
3.250:270
3.250:303
3.250:323
3.250:362
3.250:410
3.254:442
3.254:484
3.254:506
3.255:530
3.255:530
3.255:495
3.255:478
3.255:468
3.255:435
3.256:421
3.258:404
3.258:384
3.258:370
3.259:378
3.259:377
3.259:365
3.259:365
3.259:376
3.259:417
3.262:459
3.263:475
3.263:505
3.263:545
3.263:567
3.277:567
3.279:532
3.279:514
3.280:522
3.280:516
3.281:479
3.282:410
3.282:353
3.282:347
3.283:341
3.283:361
3.283:375
3.283:395
3.284:412
3.284:418
3.287:441
3.287:486
3.287:517
3.287:522
3.287:516
3.287:505
3.288:521
3.288:535
3.288:504
3.289:478
3.290:418
3.290:346
3.290:322
3.290:341
3.291:367
3.307:384
3.307:403
3.311:418
3.311:448
3.312:478
3.312:515
3.312:547
3.313:586
3.313:594
3.313:572
3.313:544
3.313:539
3.314:530
3.315:512
3.315:505
3.315:484
3.315:431
3.315:371
3.315:323
3.316:319
3.316:354
3.319:404
3.319:440
3.319:435
3.319:451
3.319:516
3.319:561
3.319:552
3.320:545
3.320:557
3.335:557
3.339:584
3.339:606
3.339:586
3.339:574
3.340:542
3.340:479
3.340:442
3.340:428
3.340:423
3.341:418
3.343:428
3.343:427
3.343:433
3.343:446
3.345:445
3.345:463
3.345:518
3.345:554
3.345:558
3.347:553
3.347:540
3.347:544
3.347:535
3.347:526
3.347:530
3.348:497
3.348:443
3.348:397
3.349:399
3.368:403
3.368:426
3.368:451
3.368:482
3.368:525
3.369:546
3.369:597
3.369:614
3.372:600
3.372:610
3.372:633
3.372:619
3.372:591
3.372:556
3.374:536
3.374:542
3.374:537
3.377:504
3.377:436
3.377:404
3.377:418
3.377:468
3.378:471
3.378:446
3.379:438
3.379:451
3.379:487
3.380:525
3.380:558
3.381:583
3.397:583
3.397:608
3.397:605
3.397:608
3.397:576
3.397:588
3.397:614
3.400:570
3.400:494
3.400:449
3.401:444
3.401:434
3.401:469
3.401:516
3.401:556
3.401:555
3.405:550
3.405:588
3.405:625
3.405:642
3.406:642
3.406:645
3.406:611
3.406:570
3.406:570
3.406:577
3.409:573
3.409:517
3.409:483
3.409:487
3.425:516
3.425:511
3.426:475
3.429:464
3.429:494
3.429:547
3.429:576
3.429:605
3.429:635
3.429:651
3.429:663
3.429:696
3.429:685
3.434:650
3.434:612
3.434:594
3.434:566
3.434:518
3.434:484
3.434:465
3.434:472
3.434:462
3.435:495
3.436:532
3.438:577
3.438:616
3.438:625
3.438:653
3.438:693
3.439:708
3.453:708
3.453:687
3.453:684
3.458:655
3.458:614
3.459:593
3.459:591
3.459:570
3.460:520
3.460:484
3.460:470
3.460:477
3.462:489
3.462:520
3.462:530
3.463:541
3.463:527
3.463:536
3.463:579
3.463:610
3.464:603
3.464:604
3.466:637
3.466:639
3.466:632
3.467:618
3.467:613
3.467:609
3.467:551
3.467:504
3.487:475
3.487:458
3.487:431
3.487:436
3.487:479
3.488:525
3.488:552
3.488:559
3.488:571
3.491:569
3.492:555
3.492:556
3.492:563
3.493:520
3.493:495
3.493:481
3.493:474
3.494:454
3.495:396
3.495:363
3.496:352
3.496:331
3.496:311
3.497:324
3.497:335
3.497:348
3.497:367
3.497:387
3.498:421
3.498:461
3.516:461
3.516:501
3.516:505
3.516:535
3.516:503
3.517:457
3.517:432
3.517:420
3.519:420
3.519:356
3.519:309
3.520:284
3.520:299
3.520:278
3.520:257
3.520:266
3.521:319
3.521:356
3.523:366
3.523:413
3.524:453
3.524:452
3.524:431
3.524:432
3.524:403
3.524:393
3.525:365
3.527:340
3.527:336
3.528:352
3.544:363
3.544:359
3.544:367
3.545:346
3.545:357
3.548:379
3.548:367
3.548:321
3.548:336
3.548:415
3.549:466
3.549:486
3.549:472
3.549:476
3.552:429
3.553:386
3.553:383
3.553:368
3.554:338
3.554:316
3.554:315
3.554:298
3.555:293
3.555:311
3.556:338
3.557:338
3.557:349
3.557:364
3.557:370
3.557:421
3.572:421
3.572:459
3.573:460
3.573:450
3.576:469
3.577:477
3.577:477
3.577:463
3.577:430
3.578:401
3.578:357
3.579:335
3.579:313
3.581:302
3.581:309
3.581:339
3.581:363
3.582:375
3.582:380
3.582:398
3.582:449
3.582:470
3.583:499
3.585:513
3.585:509
3.585:447
3.585:425
3.586:429
3.586:414
3.586:395
3.601:341
3.605:328
3.606:339
3.606:359
3.606:349
3.607:353
3.607:382
3.607:402
3.607:432
3.607:491
3.610:556
3.610:568
3.610:564
3.610:542
3.610:529
3.611:506
3.611:491
3.611:458
3.611:445
3.612:436
3.614:394
3.614:365
3.614:332
3.615:315
3.615:319
3.615:350
3.615:379
3.615:387
3.615:393
3.617:392
3.634:392
3.635:446
3.635:514
3.635:556
3.635:554
3.635:542
3.636:516
3.636:504
3.636:498
3.638:493
3.638:456
3.638:402
3.638:396
3.639:374
3.639:353
3.639:344
3.639:361
3.639:367
3.640:376
3.642:412
3.642:443
3.642:512
3.642:545
3.642:567
3.642:586
3.644:604
3.644:579
3.644:536
3.646:492
3.647:463
3.663:430
3.663:368
3.663:355
3.663:382
3.663:357
3.664:338
3.667:376
3.667:418
3.667:432
3.667:439
3.668:471
3.668:535
3.669:568
3.669:551
3.669:516
3.669:523
3.671:532
3.671:535
3.671:526
3.672:488
3.672:457
3.672:424
3.672:400
3.672:392
3.673:390
3.675:405
3.675:414
3.675:421
3.675:443
3.676:446
3.691:446
3.691:461
3.692:518
3.692:542
3.692:577
3.696:561
3.696:537
3.696:514
3.696:490
3.696:490
3.697:503
3.697:511
3.697:456
3.697:407
3.697:380
3.699:369
3.699:365
3.700:390
3.700:401
3.700:423
3.700:453
3.700:474
3.701:499
3.701:534
3.703:559
3.703:542
3.703:545
3.704:556
3.704:571
3.704:570
3.720:535
3.720:455
3.724:368
3.724:350
3.724:365
3.725:399
3.725:383
3.725:391
3.725:428
3.725:436
3.725:421
3.726:450
3.729:524
3.729:577
3.729:610
3.729:610
3.730:582
3.730:526
3.730:476
3.730:480
3.731:483
3.733:463
3.733:422
3.733:390
3.733:388
3.733:404
3.734:414
3.734:392
3.734:395
3.734:431
3.749:431
3.753:481
3.753:512
3.753:532
3.754:523
3.754:538
3.754:557
3.754:554
3.754:518
3.754:484
3.755:498
3.757:516
3.757:501
3.757:426
3.758:392
3.758:380
3.758:395
3.758:402
3.758:401
3.758:421
3.761:455
3.761:467
3.761:495
3.762:544
3.762:544
3.762:540
3.762:533
3.763:510
3.763:516
3.763:512
3.782:483
3.782:449
3.782:426
3.782:388
3.783:375
3.783:386
3.783:418
3.783:431
3.786:422
3.786:421
3.786:417
3.786:452
3.787:496
3.787:539
3.787:535
3.787:549
3.787:593
3.789:604
3.789:577
3.791:555
3.791:528
3.791:524
3.792:495
3.792:436
3.792:399
3.793:392
3.793:380
3.794:385
3.794:398
3.795:414
3.810:414
3.810:425
3.811:442
3.811:464
3.811:515
3.811:545
3.812:549
3.814:554
3.815:582
3.815:597
3.815:577
3.816:563
3.816:537
3.816:465
3.816:400
3.817:379
3.819:352
3.819:366
3.819:375
3.819:367
3.820:405
3.820:432
3.820:458
3.820:484
3.820:511
3.821:525
3.823:551
3.823:590
3.823:607
3.823:563
3.839:536
3.839:522
3.839:532
3.843:495
3.843:443
3.843:425
3.844:400
3.844:373
3.844:375
3.844:397
3.845:436
3.845:464
3.845:469
3.846:511
3.846:549
3.846:572
3.846:570
3.846:551
3.846:556
3.846:550
3.846:497
3.846:477
3.851:462
3.851:422
3.851:376
3.851:355
3.851:372
3.852:402
3.852:420
3.852:448
3.867:448
3.868:493
3.871:478
3.872:448
3.872:477
3.872:543
3.872:561
3.873:532
3.873:535
3.873:533
3.873:528
3.873:519
3.876:512
3.876:510
3.876:499
3.876:470
3.876:444
3.877:417
3.877:375
3.877:371
3.877:409
3.878:457
3.880:490
3.880:483
3.881:504
3.881:523
3.881:531
3.881:560
3.882:574
3.882:574
3.900:576
3.900:547
3.900:507
3.901:479
3.901:433
3.901:392
3.901:369
3.901:365
3.902:378
3.904:408
3.904:414
3.905:435
3.905:461
3.905:451
3.905:464
3.905:502
3.906:568
3.906:593
3.909:602
3.909:609
3.909:590
3.909:548
3.909:523
3.910:494
3.910:449
3.910:420
3.910:392
3.911:397
3.912:396
3.912:414
3.929:414
3.929:424
3.930:448
3.930:471
3.930:459
3.930:481
3.930:533
3.930:568
3.933:580
3.933:590
3.934:592
3.934:564
3.934:515
3.934:482
3.934:477
3.935:460
3.935:427
3.937:408
3.937:385
3.937:373
3.937:369
3.937:381
3.938:416
3.938:439
3.938:440
3.938:473
3.938:502
3.941:535
3.941:588
3.941:622
3.957:598
3.958:554
3.958:527
3.958:523
3.958:532
3.961:488
3.962:440
3.962:387
3.962:370
3.962:381
3.962:414
3.962:430
3.962:438
3.963:453
3.965:455
3.966:495
3.966:538
3.966:562
3.966:571
3.966:565
3.967:554
3.967:550
3.967:563
3.967:553
3.969:538
3.969:489
3.970:425
3.970:392
3.970:396
3.970:392
3.986:392
3.986:387
3.987:394
3.987:418
3.991:427
3.991:430
3.991:488
3.991:538
3.991:560
3.991:580
3.992:597
3.992:568
3.992:538
3.994:505
3.995:477
3.995:463
3.995:418
3.995:388
3.995:379
3.995:396
3.995:398
3.995:411
3.995:421
3.998:457
3.998:506
3.998:532
3.998:568
4.000:587
4.000:592
4.000:571
4.015:568
4.019:551
4.020:562
4.020:554
4.020:510
4.021:492
4.021:451
4.021:417
4.022:409
4.022:400
4.023:394
4.024:412
4.024:417
4.024:436
4.024:462
4.024:469
4.025:512
4.025:540
4.025:581
4.025:598
4.027:604
4.028:573
4.028:549
4.028:516
4.029:504
4.029:514
4.029:461
4.029:410
4.029:382
4.031:412
4.048:412
4.048:436
4.049:445
4.049:427
4.049:431
4.049:463
4.049:486
4.049:532
4.050:553
4.052:557
4.053:577
4.053:566
4.053:531
4.053:551
4.053:522
4.054:494
4.054:490
4.054:471
4.054:451
4.056:435
4.056:430
4.056:406
4.057:411
4.057:419
4.057:445
4.057:464
4.057:475
4.057:539
4.059:566
4.059:581
4.076:568
4.076:565
4.077:549
4.077:512
4.077:516
4.077:532
4.081:528
4.081:468
4.081:427
4.081:397
4.082:406
4.082:402
4.082:425
4.082:453
4.082:472
4.083:501
4.085:492
4.085:508
4.085:535
4.085:571
4.086:590
4.086:589
4.086:564
4.086:542
4.087:498
4.089:482
4.089:522
4.089:501
4.089:452
4.090:424
4.105:424
4.106:453
4.106:489
4.106:504
4.106:497
4.109:520
4.109:515
4.109:508
4.109:564
4.110:617
4.110:624
4.110:625
4.110:631
4.111:627
4.111:628
4.114:594
4.114:559
4.114:522
4.114:432
4.114:384
4.114:390
4.115:430
4.115:423
4.115:407
4.118:397
4.118:426
4.118:467
4.118:511
4.118:569
4.119:587
4.134:585
4.134:562
4.138:556
4.138:557
4.138:557
4.138:540
4.138:481
4.139:443
4.139:408
4.139:384
4.139:383
4.139:367
4.142:335
4.142:338
4.142:365
4.142:401
4.142:420
4.142:429
4.142:501
4.142:538
4.144:554
4.146:558
4.146:566
4.146:578
4.146:589
4.146:551
4.146:515
4.146:466
4.146:385
4.146:376
4.161:376
4.167:363
4.167:343
4.167:350
4.167:381
4.168:398
4.168:414
4.168:448
4.168:475
4.168:508
4.168:516
4.171:553
4.171:581
4.171:577
4.171:557
4.171:564
4.171:535
4.172:485
4.172:483
4.172:461
4.175:416
4.175:356
4.176:344
4.176:372
4.176:398
4.177:426
4.177:454
4.177:502
4.178:548
4.178:586
4.195:593
4.195:580
4.195:554
4.196:532
4.196:510
4.196:500
4.196:503
4.199:506
4.199:500
4.199:457
4.199:408
4.200:387
4.200:365
4.200:346
4.200:397
4.200:459
4.201:501
4.204:496
4.204:499
4.204:557
4.204:583
4.205:598
4.205:586
4.205:594
4.205:608
4.205:609
4.207:592
4.207:590
4.207:565
4.207:498
4.223:498
4.223:477
4.224:482
4.224:511
4.224:542
4.224:580
4.224:610
4.228:654
4.228:716
4.228:754
4.229:810
4.229:842
4.229:872
4.229:906
4.229:955
4.229:967
4.232:972
4.232:980
4.232:986
4.232:990
4.233:990
4.233:990
4.233:989
4.233:989
4.233:990
4.234:985
4.235:937
4.236:885
4.236:824
4.236:774
4.252:743
4.252:690
4.252:621
4.257:538
4.257:508
4.257:480
4.257:415
4.258:363
4.258:332
4.258:308
4.258:268
4.258:250
4.259:253
4.261:248
4.262:219
4.262:226
4.262:270
4.262:305
4.263:326
4.263:369
4.263:460
4.263:467
4.265:478
4.265:497
4.265:498
4.265:502
4.266:484
4.266:442
4.266:421
4.266:395
4.281:395
4.281:363
4.286:362
4.286:337
4.286:299
4.286:294
4.287:324
4.287:361
4.287:383
4.287:400
4.287:446
4.287:482
4.289:507
4.289:550
4.289:540
4.290:542
4.290:509
4.290:443
4.290:415
4.290:410
4.291:390
4.291:357
4.293:374
4.293:368
4.294:362
4.294:379
4.294:410
4.295:426
4.295:441
4.295:448
4.314:441
4.314:476
4.314:531
4.314:558
4.314:552
4.315:536
4.315:505
4.315:451
4.315:448
4.318:471
4.318:449
4.318:403
4.319:380
4.319:351
4.319:337
4.319:359
4.319:384
4.319:413
4.322:439
4.323:469
4.323:514
4.323:562
4.324:587
4.324:630
4.324:620
4.325:604
4.325:566
4.325:506
4.326:490
4.326:470
4.342:470
4.342:432
4.342:395
4.342:385
4.342:369
4.344:386
4.344:393
4.345:371
4.347:370
4.347:391
4.347:435
4.347:493
4.348:560
4.348:574
4.348:571
4.348:563
4.348:570
4.351:555
4.351:526
4.351:499
4.351:498
4.352:490
4.352:451
4.352:409
4.352:394
4.352:440
4.353:479
4.355:485
4.355:486
4.355:475
4.371:468
4.371:477
4.371:495
4.371:537
4.371:583
4.375:584
4.375:576
4.375:552
4.375:530
4.375:498
4.376:490
4.376:471
4.376:442
4.376:424
4.379:401
4.379:384
4.380:377
4.380:385
4.380:451
4.380:482
4.380:460
4.381:495
4.381:594
4.381:641
4.384:669
4.384:650
4.384:613
4.384:600
4.385:585
4.385:550
4.399:550
4.399:499
4.400:442
4.400:413
4.404:417
4.404:444
4.404:485
4.404:500
4.405:477
4.405:469
4.405:498
4.405:540
4.405:567
4.408:608
4.408:645
4.408:641
4.408:610
4.409:609
4.409:615
4.409:604
4.409:585
4.409:578
4.409:538
4.412:485
4.412:458
4.412:432
4.412:408
4.413:404
4.413:419
4.413:450
4.428:477
4.432:497
4.432:540
4.433:580
4.433:614
4.433:652
4.433:621
4.433:614
4.433:608
4.434:604
4.437:586
4.437:595
4.437:567
4.438:512
4.438:497
4.438:501
4.438:484
4.438:475
4.439:506
4.439:531
4.441:517
4.441:515
4.441:584
4.442:646
4.442:644
4.442:637
4.442:643
4.443:645
4.443:640
4.445:608
4.462:608
4.462:603
4.462:593
4.462:571
4.462:547
4.462:504
4.462:475
4.462:484
4.462:531
4.466:565
4.466:544
4.466:531
4.466:531
4.467:579
4.467:655
4.467:687
4.467:710
4.467:725
4.467:714
4.469:700
4.469:689
4.469:662
4.470:631
4.470:569
4.470:492
4.470:455
4.470:453
4.470:450
4.474:471
4.474:507
4.490:539
4.490:539
4.490:537
4.491:565
4.491:623
4.491:661
4.494:677
4.495:669
4.496:640
4.496:610
4.496:586
4.496:600
4.496:608
4.497:589
4.497:540
4.497:474
4.498:423
4.498:397
4.498:416
4.498:469
4.498:500
4.499:511
4.499:508
4.499:535
4.499:565
4.502:570
4.502:585
4.502:602
4.502:589
4.503:554
4.519:554
4.519:521
4.519:495
4.519:457
4.519:423
4.523:406
4.523:408
4.523:405
4.523:402
4.524:403
4.524:386
4.524:380
4.524:381
4.524:406
4.525:432
4.527:457
4.527:468
4.527:457
4.528:449
4.528:453
4.528:437
4.528:403
4.528:395
4.528:411
4.531:391
4.531:379
4.531:350
4.531:301
4.531:286
4.532:319
4.547:351
4.547:359
4.552:362
4.552:344
4.552:355
4.552:404
4.553:460
4.553:503
4.553:501
4.553:465
4.553:439
4.556:435
4.556:438
4.556:411
4.556:318
4.557:250
4.557:244
4.557:258
4.557:263
4.557:285
4.557:308
4.559:338
4.560:346
4.560:362
4.560:410
4.561:440
4.561:461
4.562:483
4.562:515
4.562:492
4.576:492
4.580:421
4.580:383
4.580:421
4.580:438
4.580:384
4.580:360
4.580:327
4.580:284
4.580:260
4.580:288
4.584:317
4.584:336
4.584:363
4.584:372
4.584:426
4.584:468
4.585:495
4.585:501
4.585:490
4.588:457
4.588:435
4.588:402
4.589:378
4.589:380
4.589:367
4.589:337
4.589:310
4.589:310
4.589:299
4.609:306
4.609:341
4.609:393
4.609:416
4.609:411
4.609:442
4.609:500
4.612:537
4.612:523
4.613:491
4.613:482
4.613:463
4.613:446
4.613:445
4.614:447
4.614:417
4.614:366
4.617:310
4.617:287
4.617:271
4.617:287
4.618:336
4.618:402
4.618:445
4.618:460
4.619:487
4.620:503
4.621:493
4.621:481
4.621:501
4.637:501
4.637:479
4.637:463
4.638:470
4.638:455
4.638:432
4.642:383
4.642:332
4.642:347
4.642:352
4.642:327
4.643:346
4.643:362
4.644:393
4.644:417
4.645:444
4.646:471
4.646:501
4.646:517
4.646:523
4.647:548
4.647:543
4.647:522
4.647:498
4.647:483
4.647:479
4.649:442
4.649:440
4.649:415
4.649:372
4.666:349
4.666:355
4.666:384
4.670:417
4.670:438
4.670:437
4.670:475
4.671:516
4.671:557
4.671:566
4.671:582
4.671:577
4.672:564
4.674:507
4.674:450
4.674:418
4.674:371
4.675:382
4.675:388
4.675:381
4.675:360
4.675:393
4.678:395
4.678:395
4.678:411
4.678:423
4.679:488
4.679:543
4.679:579
4.679:576
4.695:576
4.695:556
4.699:530
4.699:513
4.699:502
4.699:488
4.700:473
4.700:430
4.700:396
4.700:375
4.700:388
4.701:390
4.703:378
4.703:359
4.703:397
4.703:459
4.703:501
4.703:498
4.705:503
4.705:553
4.705:571
4.707:553
4.707:548
4.708:556
4.708:548
4.708:522
4.708:476
4.708:406
4.709:374
4.709:365
4.727:369
4.727:373
4.727:409
4.727:424
4.728:440
4.728:458
4.728:463
4.728:509
4.728:548
4.731:598
4.731:605
4.731:595
4.731:555
4.732:516
4.732:483
4.732:468
4.732:469
4.732:424
4.736:389
4.736:356
4.737:342
4.737:355
4.737:386
4.737:407
4.737:417
4.737:481
4.737:531
4.737:544
4.739:539
4.739:548
4.756:548
4.756:553
4.757:563
4.757:550
4.757:544
4.757:520
4.757:485
4.757:462
4.760:426
4.761:388
4.761:345
4.761:352
4.761:373
4.761:403
4.761:401
4.761:405
4.761:428
4.764:466
4.764:521
4.764:558
4.764:575
4.764:563
4.764:562
4.764:553
4.766:504
4.766:467
4.766:478
4.768:503
4.768:443
4.768:409
4.784:389
4.785:391
4.785:391
4.785:400
4.785:404
4.789:413
4.789:459
4.789:471
4.789:521
4.789:582
4.790:616
4.790:601
4.790:588
4.790:569
4.793:548
4.793:514
4.793:476
4.795:458
4.795:423
4.795:394
4.795:379
4.795:372
4.796:363
4.796:379
4.797:408
4.797:416
4.797:410
4.797:430
4.797:508
4.798:547
4.813:547
4.813:545
4.814:526
4.814:527
4.818:509
4.818:521
4.818:522
4.818:501
4.819:484
4.819:430
4.819:399
4.819:402
4.819:417
4.822:403
4.822:418
4.822:449
4.822:458
4.823:458
4.823:483
4.823:502
4.823:527
4.823:569
4.823:595
4.826:631
4.826:651
4.826:618
4.827:544
4.827:496
4.827:455
4.828:397
4.842:357
4.847:345
4.847:355
4.847:355
4.847:366
4.847:386
4.847:407
4.847:422
4.847:427
4.848:480
4.851:533
4.851:563
4.851:551
4.851:532
4.852:547
4.852:555
4.852:555
4.852:573
4.852:584
4.853:546
4.855:490
4.855:427
4.855:367
4.855:331
4.855:348
4.856:376
4.856:399
4.856:409
4.856:451
4.858:541
4.875:541
4.875:577
4.875:580
4.876:547
4.876:567
4.876:563
4.876:537
4.877:494
4.877:454
4.879:453
4.879:425
4.879:381
4.879:392
4.880:404
4.880:439
4.880:471
4.880:494
4.880:486
4.880:473
4.883:487
4.883:536
4.883:567
4.883:587
4.884:557
4.884:522
4.884:481
4.884:487
4.884:492
4.887:491
4.887:500
4.904:479
4.904:445
4.904:419
4.904:420
4.904:405
4.904:391
4.908:403
4.908:443
4.908:471
4.908:509
4.909:565
4.909:567
4.909:551
4.909:524
4.909:508
4.909:502
4.911:502
4.911:494
4.912:492
4.912:469
4.912:419
4.912:410
4.912:413
4.913:425
4.913:455
4.916:463
4.916:439
4.916:409
4.916:410
4.917:433
4.932:433
4.932:505
4.932:565
4.932:583
4.933:597
4.936:601
4.936:585
4.936:564
4.936:524
4.937:482
4.937:456
4.937:438
4.938:419
4.938:383
4.938:365
4.940:354
4.940:359
4.941:393
4.941:457
4.941:502
4.941:541
4.941:601
4.942:593
4.942:560
4.945:532
4.945:548
4.945:565
4.945:555
4.945:533
4.945:496
4.960:481
4.961:448
4.965:412
4.965:389
4.965:398
4.966:411
4.966:412
4.966:435
4.966:468
4.966:469
4.966:498
4.969:555
4.969:585
4.969:589
4.969:569
4.970:556
4.970:528
4.970:505
4.970:500
4.970:492
4.971:457
4.973:401
4.973:383
4.973:394
4.973:410
4.974:420
4.974:433
4.974:443
4.974:489
4.974:502
4.989:502
4.995:526
4.995:538
4.995:539
4.996:550
4.996:528
4.996:543
4.996:561
4.996:566
4.997:565
4.997:527
4.999:473
4.999:434
4.999:400
4.999:360
5.000:377
5.000:404
5.000:412
5.000:415
5.000:430
5.002:464
5.002:517
5.002:563
5.002:535
5.003:529
5.003:547
5.003:591
5.003:583
5.003:551
5.004:523
5.022:522
5.022:507
5.022:453
5.022:413
5.023:366
5.023:354
5.023:368
5.027:394
5.027:417
5.027:434
5.028:436
5.028:506
5.028:578
5.028:586
5.028:576
5.028:569
5.028:574
5.031:577
5.031:550
5.031:504
5.031:459
5.032:431
5.032:417
5.032:409
5.032:386
5.032:386
5.035:404
5.035:433
5.035:439
5.035:433
5.051:433
5.051:440
5.052:486
5.052:537
5.052:570
5.052:570
5.055:541
5.055:510
5.055:519
5.055:530
5.056:534
5.056:508
5.056:483
5.056:455
5.056:412
5.056:386
5.059:387
5.059:418
5.059:446
5.060:465
5.060:499
5.061:513
5.061:530
5.061:574
5.061:614
5.063:636
5.064:614
5.064:543
5.064:501
5.064:495
5.079:490
5.079:479
5.080:466
5.084:422
5.084:398
5.084:404
5.084:387
5.085:373
5.085:388
5.085:436
5.085:468
5.085:460
5.086:496
5.088:550
5.088:565
5.088:550
5.088:519
5.088:507
5.089:536
5.089:529
5.089:524
5.089:520
5.092:474
5.092:443
5.092:417
5.092:398
5.092:379
5.093:379
5.094:391
5.094:434
5.108:434
5.108:459
5.113:465
5.113:495
5.113:554
5.113:588
5.114:612
5.114:611
5.114:565
5.114:520
5.114:497
5.115:498
5.117:488
5.117:476
5.117:445
5.117:391
5.118:347
5.118:329
5.118:348
5.118:347
5.118:379
5.121:433
5.121:490
5.121:541
5.121:564
5.121:567
5.122:565
5.122:561
5.122:557
5.122:573
5.140:572
5.141:567
5.141:560
5.141:516
5.141:448
5.141:406
5.142:399
5.142:399
5.142:416
5.145:436
5.145:462
5.146:464
5.146:460
5.146:501
5.146:561
5.146:584
5.147:594
5.147:613
5.149:612
5.149:594
5.149:529
5.150:486
5.150:493
5.150:458
5.150:425
5.150:416
5.151:382
5.151:356
5.153:361
5.153:399
5.170:399
5.170:473
5.170:527
5.170:556
5.170:584
5.171:596
5.171:594
5.171:588
5.174:579
5.174:561
5.174:559
5.174:548
5.175:523
5.175:518
5.175:488
5.175:452
5.175:457
5.178:471
5.179:434
5.179:400
5.179:402
5.179:454
5.179:499
5.180:527
5.180:540
5.180:558
5.180:594
5.182:616
5.182:615
5.182:626
5.198:612
5.198:580
5.198:553
5.199:543
5.199:501
5.202:452
5.202:421
5.203:414
5.203:437
5.203:456
5.203:443
5.203:453
5.203:471
5.204:473
5.207:496
5.207:521
5.207:549
5.207:602
5.208:645
5.208:621
5.208:592
5.208:555
5.208:522
5.209:510
5.210:458
5.210:395
5.210:340
5.210:322
5.210:329
5.210:393
5.226:393
5.226:437
5.226:471
5.226:471
5.231:442
5.231:456
5.231:500
5.231:524
5.231:541
5.231:551
5.232:545
5.232:535
5.232:511
5.236:485
5.236:480
5.236:440
5.236:379
5.237:331
5.237:346
5.237:361
5.237:402
5.237:441
5.237:486
5.239:494
5.239:470
5.239:512
5.240:530
5.240:525
5.240:528
5.240:559
5.260:575
5.261:554
5.261:518
5.261:502
5.261:495
5.262:429
5.262:356
5.262:343
5.262:413
5.262:439
5.264:449
5.264:456
5.264:482
5.264:492
5.265:481
5.265:498
5.265:518
5.265:534
5.265:539
5.266:534
5.268:514
5.268:508
5.269:498
5.269:502
5.269:496
5.269:435
5.269:391
5.270:369
5.270:397
5.272:413
5.288:413
5.288:415
5.288:420
5.289:442
5.289:456
5.289:469
5.289:508
5.289:538
5.289:557
5.292:588
5.292:620
5.293:593
5.294:554
5.294:516
5.295:479
5.295:464
5.295:446
5.295:432
5.295:405
5.296:426
5.296:434
5.296:454
5.296:458
5.296:438
5.296:454
5.298:515
5.298:623
5.298:686
5.301:681
5.301:661
5.317:661
5.317:675
5.317:745
5.317:778
5.317:807
5.318:816
5.321:758
5.321:709
5.322:697
5.322:720
5.322:745
5.322:785
5.323:812
5.323:854
5.323:910
5.325:985
5.325:989
5.325:988
5.325:988
5.326:988
5.326:988
5.327:989
5.327:989
5.327:990
5.327:910
5.329:849
5.329:754
5.329:641
5.330:533
5.330:453
5.345:453
5.346:386
5.346:377
5.346:356
5.346:335
5.350:341
5.350:378
5.350:442
5.350:443
5.351:439
5.351:442
5.351:425
5.351:386
5.351:347
5.351:317
5.354:310
5.354:335
5.354:314
5.355:246
5.355:208
5.355:242
5.355:299
5.355:376
5.355:392
5.358:371
5.358:357
5.358:397
5.358:464
5.359:481
5.359:491
5.374:489
5.374:485
5.379:498
5.379:524
5.379:517
5.379:484
5.380:445
5.380:381
5.380:362
5.380:372
5.380:388
5.383:392
5.383:411
5.383:417
5.383:404
5.384:403
5.384:400
5.384:449
5.384:490
5.384:506
5.385:528
5.387:558
5.387:539
5.387:499
5.387:461
5.388:404
5.388:388
5.388:390
5.388:406
5.388:376
5.403:376
5.408:362
5.408:354
5.408:349
5.408:361
5.408:375
5.409:369
5.409:400
5.409:480
5.409:526
5.411:540
5.411:557
5.412:562
5.412:552
5.412:536
5.412:498
5.412:466
5.413:455
5.413:442
5.413:414
5.416:368
5.416:339
5.416:347
5.416:390
5.417:437
5.417:454
5.417:446
5.418:453
5.418:530
5.418:569
5.435:550
5.435:519
5.436:523
5.436:550
5.436:577
5.436:559
5.436:501
5.440:476
5.440:421
5.440:392
5.440:393
5.441:399
5.441:420
5.441:457
5.441:474
5.441:490
5.442:491
5.445:486
5.445:517
5.445:545
5.445:580
5.445:587
5.446:596
5.446:567
5.446:523
5.446:500
5.448:509
5.448:489
5.448:427
5.449:388
5.464:388
5.465:385
5.465:412
5.465:415
5.465:402
5.465:411
5.469:470
5.469:499
5.469:502
5.469:557
5.469:581
5.470:595
5.470:581
5.470:579
5.470:574
5.470:545
5.473:532
5.473:570
5.473:587
5.473:518
5.474:452
5.474:425
5.474:412
5.474:411
5.474:435
5.477:443
5.477:438
5.477:444
5.478:475
5.478:501
5.493:499
5.493:547
5.494:579
5.498:600
5.498:602
5.498:596
5.498:562
5.498:517
5.499:506
5.499:486
5.499:459
5.499:427
5.499:421
5.501:417
5.501:442
5.502:496
5.502:551
5.502:579
5.502:605
5.502:623
5.503:612
5.503:594
5.506:599
5.506:629
5.506:608
5.506:582
5.507:567
5.507:570
5.507:540
5.507:483
5.522:483
5.522:442
5.527:434
5.527:462
5.527:463
5.528:469
5.528:493
5.528:532
5.528:555
5.528:581
5.528:632
5.528:648
5.530:667
5.530:682
5.530:693
5.530:679
5.531:656
5.531:612
5.531:583
5.531:553
5.531:498
5.534:449
5.534:423
5.534:443
5.534:466
5.535:521
5.535:542
5.535:530
5.535:532
5.535:527
5.555:585
5.555:637
5.555:692
5.556:712
5.556:701
5.556:636
5.556:570
5.556:585
5.556:612
5.558:577
5.559:530
5.559:507
5.559:509
5.561:509
5.561:518
5.561:544
5.561:542
5.562:537
5.563:563
5.563:619
5.563:671
5.563:668
5.564:668
5.564:687
5.564:695
5.564:672
5.564:656
5.565:632
5.566:610
5.567:574
5.583:574
5.584:502
5.584:488
5.584:489
5.584:493
5.584:499
5.585:497
5.585:463
5.588:454
5.588:484
5.588:522
5.588:576
5.589:614
5.589:657
5.589:691
5.589:697
5.589:673
5.592:644
5.592:626
5.592:595
5.592:555
5.593:488
5.593:447
5.594:409
5.594:382
5.594:372
5.594:401
5.596:418
5.596:441
5.596:463
5.612:498
5.612:542
5.612:543
5.612:527
5.616:492
5.616:515
5.616:537
5.616:537
5.617:514
5.617:466
5.617:418
5.617:367
5.617:342
5.618:350
5.620:355
5.620:342
5.621:337
5.621:320
5.621:335
5.622:367
5.622:418
5.622:449
5.622:453
5.623:477
5.624:515
5.624:516
5.625:499
5.625:449
5.625:390
5.625:345
5.640:345
5.640:323
5.641:306
5.641:294
5.645:268
5.645:237
5.645:220
5.645:252
5.646:323
5.646:339
5.646:341
5.646:387
5.646:430
5.649:464
5.649:473
5.649:452
5.649:428
5.650:428
5.650:447
5.650:432
5.650:407
5.651:361
5.651:320
5.652:293
5.653:284
5.653:269
5.653:260
5.653:284
5.653:325
5.654:343
5.674:347
5.674:354
5.674:403
5.674:434
5.675:459
5.675:459
5.675:467
5.675:452
5.675:415
5.675:400
5.678:425
5.678:437
5.678:394
5.679:362
5.679:342
5.679:310
5.679:285
5.679:275
5.680:292
5.682:307
5.682:316
5.682:372
5.682:433
5.683:455
5.683:470
5.683:493
5.683:493
5.683:490
5.684:484
5.686:447
5.702:447
5.702:412
5.702:374
5.702:337
5.702:335
5.703:340
5.703:343
5.703:353
5.703:334
5.706:342
5.706:363
5.706:356
5.706:388
5.706:458
5.706:489
5.708:508
5.708:534
5.708:546
5.708:522
5.710:495
5.710:455
5.710:401
5.710:366
5.710:351
5.711:318
5.711:295
5.711:325
5.711:349
5.714:353
5.714:370
5.730:383
5.731:417
5.731:461
5.731:508
5.731:497
5.731:490
5.735:492
5.735:533
5.735:574
5.735:550
5.736:496
5.736:473
5.736:452
5.736:407
5.736:361
5.739:356
5.739:360
5.739:352
5.739:339
5.739:325
5.739:345
5.740:365
5.740:409
5.740:463
5.740:502
5.743:534
5.743:540
5.744:555
5.744:568
5.744:550
5.759:550
5.759:533
5.759:519
5.759:474
5.761:437
5.762:430
5.764:413
5.764:395
5.764:381
5.764:395
5.764:420
5.764:434
5.764:410
5.764:413
5.764:451
5.767:490
5.768:525
5.768:543
5.768:538
5.768:499
5.768:452
5.768:436
5.768:444
5.768:438
5.772:407
5.772:385
5.772:363
5.772:370
5.773:392
5.773:418
5.787:468
5.788:483
5.792:499
5.793:526
5.793:541
5.793:558
5.793:567
5.793:552
5.794:511
5.794:484
5.794:466
5.797:494
5.797:515
5.797:471
5.797:415
5.797:395
5.797:395
5.798:389
5.798:395
5.798:384
5.798:399
5.800:420
5.800:440
5.800:492
5.800:554
5.801:588
5.801:588
5.801:578
5.801:535
5.801:517
5.816:517
5.821:496
5.821:489
5.821:484
5.821:437
5.822:392
5.822:351
5.822:362
5.822:393
5.822:405
5.825:408
5.825:427
5.825:434
5.825:437
5.826:482
5.826:518
5.827:540
5.827:560
5.827:579
5.827:563
5.829:546
5.829:535
5.829:513
5.829:490
5.829:452
5.829:414
5.830:385
5.830:375
5.830:378
5.830:402
5.849:419
5.849:438
5.850:458
5.850:467
5.850:499
5.850:544
5.850:578
5.854:597
5.854:602
5.854:561
5.854:529
5.854:527
5.855:522
5.855:465
5.855:381
5.855:351
5.855:347
5.857:320
5.858:337
5.858:367
5.859:382
5.859:407
5.859:450
5.859:453
5.859:486
5.859:546
5.862:586
5.862:568
5.862:567
5.862:584
5.878:584
5.878:565
5.878:541
5.878:520
5.879:504
5.879:479
5.882:423
5.882:379
5.882:362
5.882:369
5.883:405
5.883:431
5.883:463
5.883:460
5.883:428
5.884:412
5.887:443
5.887:481
5.887:507
5.887:555
5.887:553
5.888:556
5.888:537
5.888:511
5.888:494
5.890:450
5.890:423
5.890:404
5.890:391
5.890:396
5.907:431
5.907:442
5.907:448
5.911:440
5.911:427
5.911:506
5.911:585
5.912:622
5.912:624
5.912:604
5.912:560
5.912:558
5.913:546
5.915:522
5.915:506
5.915:460
5.915:417
5.915:384
5.916:355
5.916:345
5.916:351
5.916:394
5.919:418
5.919:434
5.919:425
5.919:459
5.919:508
5.919:549
5.920:553
5.920:563
5.935:563
5.936:586
5.939:598
5.939:563
5.939:530
5.940:490
5.940:393
5.940:333
5.940:334
5.940:349
5.941:364
5.941:389
5.944:397
5.944:432
5.944:447
5.944:464
5.944:515
5.945:570
5.945:611
5.945:597
5.945:576
5.947:530
5.948:502
5.948:482
5.948:502
5.948:519
5.948:483
5.948:429
5.949:378
5.949:361
5.968:372
5.968:386
5.968:424
5.968:452
5.968:448
5.969:444
5.969:508
5.969:553
5.969:584
5.972:594
5.973:587
5.973:532
5.973:503
5.973:506
5.973:492
5.974:467
5.974:417
5.974:405
5.976:398
5.978:399
5.978:391
5.978:407
5.978:435
5.978:453
5.978:453
5.978:463
5.980:531
5.980:578
5.980:591
5.980:599
5.996:599
5.996:593
5.997:574
5.997:560
5.997:533
5.997:490
5.997:459
5.998:396
6.001:362
6.001:347
6.001:349
6.001:359
6.001:409
6.002:406
6.002:407
6.002:416
6.002:433
6.005:489
6.005:526
6.005:575
6.005:605
6.006:600
6.006:563
6.006:535
6.006:516
6.006:517
6.007:515
6.009:480
6.009:475
6.010:450
6.025:423
6.025:376
6.026:373
6.026:391
6.030:432
6.030:467
6.030:478
6.030:511
6.031:521
6.031:539
6.031:557
6.031:579
6.031:578
6.031:610
6.034:601
6.034:540
6.034:510
6.034:468
6.035:451
6.035:428
6.035:399
6.035:366
6.035:370
6.038:402
6.038:435
6.038:444
6.038:466
6.039:542
6.039:551
6.039:559
6.054:559
6.054:575
6.054:567
6.054:528
6.058:488
6.058:475
6.058:473
6.058:439
6.059:363
6.059:351
6.061:393
6.061:412
6.061:402
6.063:400
6.063:412
6.063:444
6.063:465
6.064:493
6.064:516
6.064:534
6.064:568
6.064:571
6.065:589
6.066:584
6.067:570
6.067:553
6.067:550
6.067:533
6.067:482
6.067:427
6.087:392
6.087:391
6.087:377
6.087:388
6.087:405
6.088:421
6.088:447
6.088:473
6.088:518
6.089:544
6.091:568
6.091:583
6.091:597
6.091:589
6.092:545
6.093:474
6.093:466
6.093:480
6.094:451
6.095:425
6.095:384
6.095:381
6.095:409
6.096:417
6.096:394
6.096:380
6.096:408
6.096:449
6.097:523
6.099:575
6.116:575
6.116:615
6.116:604
6.116:582
6.116:545
6.116:529
6.117:515
6.117:507
6.117:513
6.119:470
6.120:436
6.120:408
6.120:398
6.120:387
6.120:349
6.121:342
6.121:381
6.121:427
6.121:461
6.124:527
6.124:566
6.124:584
6.124:584
6.124:575
6.125:550
6.125:574
6.125:579
6.125:536
6.128:496
6.128:434
6.144:420
6.144:388
6.144:349
6.145:331
6.145:360
6.145:407
6.148:439
6.149:471
6.149:497
6.149:541
6.149:574
6.149:613
6.149:621
6.151:609
6.151:586
6.153:547
6.153:508
6.153:493
6.153:504
6.154:467
6.154:427
6.154:417
6.154:409
6.154:381
6.155:380
6.157:392
6.157:420
6.157:458
6.157:482
6.157:528
6.173:528
6.173:541
6.173:558
6.173:564
6.173:574
6.176:544
6.177:522
6.177:515
6.177:512
6.177:501
6.178:466
6.178:442
6.178:393
6.178:369
6.181:369
6.181:385
6.181:395
6.181:425
6.182:451
6.182:485
6.182:529
6.182:573
6.182:611
6.183:613
6.185:604
6.185:581
6.185:550
6.185:523
6.186:502
6.186:489
6.202:437
6.202:406
6.206:411
6.206:411
6.206:390
6.206:400
6.207:412
6.207:457
6.207:479
6.207:481
6.207:529
6.210:548
6.210:534
6.210:511
6.212:544
6.212:576
6.212:546
6.212:522
6.213:512
6.213:492
6.213:433
6.214:429
6.214:443
6.214:450
6.215:423
6.215:410
6.215:403
6.215:412
6.215:442
6.216:478
6.230:478
6.235:551
6.235:575
6.235:590
6.236:589
6.236:604
6.236:621
6.236:595
6.236:563
6.236:556
6.239:532
6.239:462
6.239:430
6.240:427
6.240:439
6.240:446
6.240:447
6.240:458
6.241:478
6.241:547
6.243:609
6.244:619
6.244:596
6.244:600
6.244:616
6.244:658
6.244:641
6.244:580
6.245:530
6.247:492
6.263:461
6.263:446
6.263:432
6.263:414
6.264:406
6.264:377
6.264:383
6.267:412
6.268:427
6.268:449
6.268:481
6.268:541
6.268:567
6.269:572
6.269:570
6.269:565
6.269:545
6.271:532
6.271:512
6.271:501
6.272:475
6.272:429
6.272:410
6.272:390
6.272:376
6.273:368
6.275:371
6.277:382
6.277:399
6.277:422
6.291:422
6.292:436
6.292:470
6.292:507
6.293:529
6.293:532
6.296:530
6.296:530
6.296:520
6.296:506
6.297:486
6.297:447
6.297:403
6.297:396
6.297:387
6.297:381
6.300:395
6.300:417
6.300:443
6.300:453
6.300:462
6.301:496
6.301:538
6.301:546
6.301:546
6.304:542
6.304:561
6.305:555
6.305:540
6.305:533
6.320:492
6.320:454
6.320:421
6.324:403
6.325:375
6.325:369
6.325:375
6.326:411
6.326:451
6.326:466
6.327:466
6.327:471
6.327:525
6.328:544
6.328:541
6.328:517
6.328:509
6.329:528
6.329:553
6.329:557
6.329:535
6.329:512
6.333:472
6.333:425
6.333:388
6.333:388
6.334:394
6.334:417
6.334:422
6.334:433
6.348:433
6.348:469
6.353:512
6.353:571
6.353:604
6.353:603
6.354:592
6.354:590
6.354:592
6.354:553
6.354:522
6.355:529
6.357:508
6.357:478
6.357:472
6.357:464
6.357:468
6.358:487
6.358:537
6.358:618
6.359:675
6.361:721
6.361:744
6.361:781
6.361:826
6.363:847
6.363:866
6.363:904
6.363:916
6.363:958
6.382:989
6.382:989
6.382:989
6.382:990
6.382:976
6.382:954
6.383:967
6.383:975
6.383:959
6.386:938
6.386:905
6.386:876
6.386:856
6.386:842
6.387:781
6.387:709
6.387:630
6.387:578
6.390:522
6.390:463
6.390:411
6.390:378
6.390:318
6.391:263
6.391:236
6.391:215
6.391:215
6.391:225
6.394:233
6.394:283
6.411:283
6.411:309
6.411:314
6.411:354
6.411:427
6.412:464
6.412:450
6.412:444
6.415:440
6.415:446
6.415:424
6.415:411
6.415:418
6.416:409
6.416:381
6.416:359
6.416:359
6.419:356
6.419:354
6.419:337
6.419:342
6.420:364
6.420:392
6.420:443
6.420:524
6.420:590
6.421:584
6.422:535
6.423:497
6.423:491
6.438:485
6.439:452
6.439:426
6.439:409
6.442:366
6.444:338
6.444:321
6.444:310
6.444:337
6.444:372
6.444:381
6.445:380
6.445:383
6.445:422
6.448:464
6.448:485
6.448:499
6.448:526
6.448:534
6.449:529
6.449:492
6.449:480
6.449:508
6.452:470
6.452:412
6.452:381
6.452:370
6.453:368
6.453:391
6.453:375
6.466:375
6.468:379
6.468:401
6.472:439
6.472:517
6.472:566
6.472:575
6.473:580
6.473:574
6.473:543
6.473:525
6.473:523
6.473:519
6.476:491
6.476:433
6.477:393
6.477:349
6.477:363
6.478:385
6.478:409
6.478:401
6.478:400
6.478:417
6.480:447
6.480:499
6.480:536
6.480:556
6.480:571
6.481:582
6.481:563
6.501:562
6.501:546
6.501:511
6.501:480
6.502:397
6.502:347
6.502:357
6.502:393
6.502:400
6.503:386
6.505:380
6.505:404
6.506:445
6.506:478
6.506:536
6.506:582
6.507:596
6.507:597
6.507:602
6.509:585
6.509:570
6.510:558
6.510:550
6.510:539
6.510:485
6.510:434
6.510:411
6.511:393
6.511:397
6.513:420
6.529:420
6.529:448
6.529:466
6.529:509
6.530:559
6.530:595
6.530:600
6.530:570
6.530:556
6.534:571
6.534:567
6.534:543
6.535:522
6.535:490
6.535:471
6.535:439
6.535:408
6.535:384
6.538:377
6.538:405
6.538:419
6.538:434
6.538:473
6.539:496
6.539:502
6.539:536
6.539:583
6.540:605
6.541:611
6.541:613
6.557:608
6.557:603
6.558:593
6.558:593
6.558:570
6.559:514
6.562:455
6.562:444
6.562:479
6.562:486
6.563:466
6.563:457
6.563:470
6.563:462
6.563:449
6.566:490
6.566:583
6.566:659
6.566:668
6.567:666
6.567:668
6.568:651
6.568:600
6.568:553
6.568:557
6.570:543
6.570:558
6.570:533
6.570:497
6.571:471
6.587:471
6.587:471
6.587:506
6.587:545
6.587:549
6.591:535
6.591:575
6.591:617
6.591:657
6.592:688
6.593:720
6.593:693
6.593:645
6.593:603
6.595:583
6.595:592
6.595:557
6.595:495
6.596:471
6.596:492
6.596:505
6.596:492
6.596:497
6.597:522
6.599:555
6.599:566
6.599:608
6.600:642
6.600:656
6.600:654
6.615:669
6.615:660
6.619:661
6.619:649
6.620:627
6.620:632
6.620:597
6.620:551
6.620:519
6.620:506
6.620:473
6.624:467
6.624:491
6.624:529
6.624:541
6.625:550
6.625:604
6.625:657
6.625:698
6.626:718
6.626:716
6.628:664
6.628:635
6.628:609
6.628:591
6.628:557
6.629:500
6.629:473
6.629:456
6.629:445
6.643:445
6.648:435
6.648:436
6.648:453
6.648:480
6.649:496
6.649:538
6.649:595
6.649:611
6.649:619
6.652:603
6.652:618
6.652:600
6.652:568
6.653:535
6.653:491
6.653:468
6.653:442
6.653:394
6.654:353
6.656:336
6.656:319
6.656:339
6.657:360
6.657:391
6.657:409
6.657:434
6.657:491
6.658:530
6.660:544
6.676:546
6.676:543
6.676:507
6.676:467
6.676:438
6.677:418
6.677:395
6.681:353
6.681:324
6.681:315
6.681:321
6.682:296
6.682:291
6.682:293
6.682:303
6.682:348
6.683:387
6.685:427
6.685:440
6.685:439
6.685:445
6.685:487
6.685:480
6.686:476
6.686:474
6.686:451
6.689:422
6.689:347
6.689:281
6.689:271
6.705:271
6.706:294
6.706:321
6.706:328
6.706:284
6.706:271
6.709:289
6.710:333
6.710:399
6.710:432
6.710:449
6.712:438
6.712:443
6.712:435
6.712:447
6.712:426
6.713:400
6.714:389
6.714:339
6.714:313
6.714:305
6.714:300
6.715:291
6.715:296
6.715:310
6.718:345
6.718:368
6.718:394
6.718:420
6.718:410
6.733:398
6.733:419
6.734:456
6.738:431
6.738:417
6.738:430
6.739:426
6.739:407
6.740:332
6.740:285
6.740:273
6.740:289
6.740:295
6.743:324
6.743:352
6.744:358
6.744:350
6.744:350
6.744:417
6.744:478
6.745:522
6.745:504
6.746:487
6.746:491
6.746:481
6.746:451
6.747:431
6.747:422
6.747:363
6.747:329
6.762:329
6.763:304
6.767:297
6.767:322
6.767:367
6.768:407
6.768:431
6.768:434
6.768:437
6.768:474
6.768:473
6.769:471
6.771:463
6.771:463
6.771:472
6.771:488
6.771:474
6.772:472
6.772:481
6.772:436
6.772:408
6.775:361
6.775:333
6.776:324
6.776:349
6.776:404
6.776:451
6.777:431
6.777:410
6.777:459
6.796:501
6.796:529
6.796:538
6.796:543
6.796:519
6.797:495
6.797:474
6.797:444
6.799:422
6.799:382
6.799:369
6.800:353
6.800:335
6.800:329
6.800:366
6.800:410
6.801:433
6.801:418
6.804:433
6.804:465
6.804:492
6.804:530
6.804:537
6.804:536
6.805:511
6.805:495
6.805:484
6.805:482
6.807:462
6.807:405
6.823:405
6.824:380
6.824:384
6.824:372
6.824:343
6.825:344
6.825:376
6.825:439
6.828:478
6.828:491
6.828:524
6.829:540
6.829:530
6.829:493
6.829:506
6.829:515
6.829:530
6.832:537
6.832:528
6.832:514
6.832:459
6.833:406
6.833:362
6.833:350
6.833:336
6.833:391
6.834:440
6.835:469
6.837:475
6.837:457
6.852:511
6.852:536
6.852:540
6.853:562
6.857:590
6.857:586
6.857:574
6.858:523
6.858:472
6.858:445
6.859:398
6.859:371
6.859:365
6.859:388
6.861:375
6.861:368
6.861:388
6.861:438
6.862:458
6.862:480
6.862:513
6.862:511
6.862:519
6.865:526
6.865:561
6.865:572
6.865:577
6.866:558
6.866:495
6.866:435
6.881:435
6.881:392
6.881:380
6.886:368
6.886:354
6.886:349
6.886:374
6.887:409
6.887:464
6.887:496
6.887:498
6.887:556
6.887:580
6.889:563
6.889:548
6.890:555
6.890:536
6.890:516
6.890:507
6.890:500
6.891:463
6.891:417
6.891:411
6.893:395
6.893:392
6.894:402
6.894:391
6.894:388
6.894:403
6.894:410
6.914:445
6.914:512
6.914:513
6.914:522
6.915:544
6.915:555
6.915:533
6.915:532
6.915:510
6.916:491
6.918:489
6.918:447
6.918:412
6.919:393
6.919:384
6.919:392
6.919:426
6.919:446
6.919:441
6.923:442
6.923:473
6.923:535
6.923:556
6.924:562
6.924:570
6.924:607
6.924:636
6.924:608
6.925:536
6.926:504
6.942:504
6.942:468
6.942:419
6.942:384
6.943:371
6.943:355
6.943:349
6.943:360
6.943:373
6.947:397
6.947:424
6.947:460
6.947:518
6.947:539
6.948:547
6.948:555
6.948:553
6.948:538
6.951:509
6.951:496
6.951:505
6.951:476
6.952:420
6.952:410
6.952:397
6.952:387
6.952:401
6.952:430
6.955:461
6.955:456
6.971:463
6.971:528
6.971:547
6.972:521
6.972:537
6.972:559
6.975:542
6.975:509
6.975:480
6.976:461
6.976:452
6.976:453
6.976:438
6.977:442
6.977:444
6.980:427
6.980:413
6.980:422
6.980:443
6.981:447
6.981:445
6.981:461
6.981:506
6.981:548
6.981:573
6.984:594
6.984:590
6.984:562
6.984:523
6.985:481
6.999:481
7.000:472
7.000:455
7.000:412
7.000:403
7.004:395
7.004:406
7.004:411
7.004:413
7.005:431
7.005:452
7.005:456
7.005:474
7.005:519
7.009:544
7.009:568
7.009:574
7.009:557
7.009:529
7.009:524
7.011:519
7.011:520
7.011:494
7.011:472
7.012:424
7.012:364
7.012:361
7.012:372
7.013:364
7.013:373
7.028:382
7.028:390
7.032:465
7.032:522
7.032:560
7.033:597
7.033:605
7.033:583
7.033:508
7.033:489
7.034:525
7.037:525
7.037:491
7.037:444
7.038:432
7.038:410
7.038:389
7.038:385
7.038:407
7.039:416
7.039:420
7.041:448
7.041:487
7.041:542
7.042:590
7.042:623
7.042:615
7.042:582
7.042:553
7.042:528
7.057:528
7.061:514
7.061:511
7.061:463
7.061:405
7.062:389
7.062:391
7.062:374
7.062:377
7.062:401
7.066:427
7.066:432
7.066:441
7.066:486
7.067:534
7.067:550
7.067:545
7.067:557
7.067:576
7.068:559
7.069:523
7.069:507
7.069:510
7.069:485
7.069:438
7.069:398
7.071:354
7.071:345
7.071:385
7.074:424
7.090:445
7.090:448
7.091:474
7.091:544
7.091:599
7.091:618
7.091:627
7.094:630
7.094:600
7.094:554
7.094:478
7.094:448
7.095:451
7.095:432
7.095:411
7.095:407
7.095:385
7.098:371
7.098:379
7.099:378
7.099:409
7.099:419
7.099:428
7.099:462
7.100:511
7.100:573
7.102:611
7.102:600
7.102:578
7.102:569
7.119:569
7.119:551
7.119:545
7.120:534
7.120:511
7.120:461
7.123:424
7.123:405
7.123:397
7.123:394
7.124:380
7.124:398
7.124:429
7.125:474
7.125:505
7.126:544
7.127:552
7.127:554
7.127:565
7.127:547
7.127:534
7.128:517
7.128:494
7.128:502
7.129:482
7.131:440
7.131:408
7.131:400
7.131:401
7.132:399
7.147:389
7.147:413
7.147:487
7.152:521
7.152:554
7.152:576
7.152:554
7.153:551
7.153:569
7.153:560
7.153:538
7.153:508
7.156:495
7.156:482
7.156:451
7.156:435
7.157:400
7.157:384
7.157:383
7.157:388
7.157:373
7.157:379
7.159:407
7.159:449
7.159:506
7.159:558
7.161:577
7.161:585
7.161:591
7.161:578
7.176:578
7.176:583
7.180:564
7.180:555
7.180:540
7.180:490
7.181:432
7.181:391
7.181:353
7.181:356
7.181:351
7.182:389
7.184:442
7.184:440
7.184:442
7.184:476
7.184:529
7.185:555
7.185:557
7.185:588
7.185:606
7.189:617
7.189:587
7.189:513
7.189:444
7.190:373
7.190:379
7.190:397
7.190:386
7.191:361
7.209:374
7.209:404
7.210:450
7.210:479
7.210:487
7.210:513
7.210:563
7.211:598
7.213:614
7.213:634
7.213:632
7.213:610
7.214:582
7.214:549
7.214:497
7.214:426
7.214:369
7.215:335
7.217:324
7.218:320
7.218:330
7.218:372
7.218:418
7.218:456
7.219:464
7.219:495
7.219:527
7.221:566
7.221:590
7.221:603
7.237:603
7.237:598
7.237:571
7.237:550
7.238:521
7.238:478
7.238:435
7.241:399
7.242:392
7.242:416
7.242:436
7.242:435
7.244:431
7.244:452
7.244:484
7.244:500
7.244:526
7.246:542
7.246:566
7.246:563
7.246:569
7.247:553
7.247:539
7.247:526
7.247:508
7.247:502
7.248:441
7.250:415
7.250:402
7.250:373
7.266:335
7.266:342
7.266:354
7.266:407
7.271:488
7.271:519
7.271:534
7.271:556
7.271:566
7.271:586
7.272:595
7.272:570
7.272:562
7.273:549
7.275:528
7.275:527
7.276:466
7.276:429
7.276:411
7.276:416
7.276:410
7.277:437
7.277:455
7.278:477
7.279:482
7.279:473
7.279:486
7.279:523
7.280:550
7.280:535
7.295:535
7.295:539
7.295:547
7.299:560
7.299:559
7.299:534
7.299:501
7.299:453
7.300:424
7.300:379
7.300:360
7.300:328
7.300:346
7.303:382
7.303:410
7.303:426
7.303:434
7.304:506
7.304:557
7.304:582
7.304:575
7.305:578
7.307:578
7.307:549
7.308:516
7.309:486
7.309:485
7.309:461
7.309:450
7.309:451
7.326:447
7.328:423
7.328:416
7.328:415
7.329:432
7.329:447
7.329:465
7.329:523
7.329:552
7.329:550
7.331:566
7.332:582
7.332:567
7.332:575
7.332:568
7.333:549
7.333:533
7.333:488
7.333:468
7.336:450
7.336:422
7.336:386
7.336:362
7.336:358
7.337:373
7.337:419
7.337:452
7.337:498
7.337:520
7.339:557
7.356:557
7.356:589
7.356:606
7.356:595
7.357:568
7.357:546
7.357:521
7.357:478
7.358:418
7.361:396
7.361:430
7.361:452
7.361:438
7.362:440
7.362:463
7.362:481
7.362:475
7.362:471
7.365:516
7.365:557
7.365:600
7.365:613
7.366:601
7.366:575
7.366:549
7.366:520
7.367:507
7.367:506
7.368:467
7.368:453
7.385:447
7.385:454
7.385:443
7.386:431
7.386:450
7.386:497
7.389:524
7.389:535
7.389:582
7.389:589
7.389:582
7.389:600
7.389:629
7.389:595
7.389:575
7.393:604
7.393:583
7.393:512
7.393:442
7.394:404
7.394:391
7.394:411
7.394:417
7.394:450
7.395:468
7.396:502
7.396:516
7.396:515
7.396:551
7.398:545
7.413:545
7.414:566
7.414:560
7.414:551
7.414:530
7.418:497
7.418:468
7.418:458
7.418:456
7.419:414
7.419:404
7.419:377
7.419:369
7.419:364
7.422:359
7.422:389
7.422:426
7.422:443
7.423:457
7.423:501
7.423:517
7.423:545
7.423:554
7.424:563
7.426:555
7.426:543
7.426:497
7.426:458
7.426:451
7.427:404
7.442:371
7.442:357
7.446:388
7.446:440
7.446:467
7.446:457
7.446:437
7.447:430
7.447:436
7.447:486
7.447:528
7.451:577
7.451:611
7.451:610
7.451:570
7.452:536
7.452:499
7.452:464
7.452:437
7.452:385
7.453:363
7.455:376
7.455:372
7.455:370
7.455:378
7.455:400
7.455:440
7.456:468
7.456:482
7.456:538
7.471:538
7.475:573
7.475:596
7.475:618
7.476:599
7.476:539
7.476:506
7.476:475
7.476:440
7.476:448
7.479:432
7.479:420
7.479:406
7.479:399
7.479:408
7.479:433
7.480:463
7.480:475
7.480:485
7.480:506
7.483:544
7.483:572
7.483:590
7.483:596
7.484:591
7.484:544
7.484:498
7.484:479
7.484:503
7.487:520
7.503:486
7.503:432
7.503:391
7.504:420
7.504:445
7.504:477
7.505:520
7.508:536
7.508:566
7.509:617
7.509:681
7.509:733
7.509:767
7.509:788
7.509:786
7.509:750
7.512:766
7.512:799
7.512:822
7.512:818
7.513:769
7.513:777
7.513:823
7.513:871
7.513:939
7.513:976
7.516:984
7.516:990
7.516:989
7.516:988
7.532:988
7.532:988
7.532:988
7.533:988
7.533:989
7.533:975
7.536:843
7.537:751
7.537:659
7.537:568
7.537:498
7.537:398
7.537:324
7.537:277
7.538:252
7.538:227
7.540:228
7.540:234
7.541:229
7.541:242
7.541:313
7.541:398
7.541:386
7.542:388
7.542:401
7.545:421
7.545:446
7.545:449
7.545:450
7.545:447
7.560:415
7.561:373
7.561:362
7.565:326
7.565:305
7.565:319
7.565:371
7.565:401
7.567:403
7.567:389
7.567:399
7.567:461
7.569:492
7.569:526
7.569:524
7.569:517
7.569:480
7.569:440
7.569:435
7.570:456
7.570:418
7.570:360
7.573:337
7.573:330
7.573:335
7.573:332
7.575:363
7.575:392
7.576:419
7.576:459
7.589:459
7.589:497
7.594:504
7.594:500
7.594:502
7.594:531
7.595:576
7.595:529
7.595:465
7.595:436
7.595:440
7.598:437
7.598:383
7.598:351
7.598:361
7.599:362
7.599:361
7.599:392
7.599:411
7.599:413
7.600:428
7.602:444
7.602:492
7.602:530
7.602:572
7.603:579
7.603:587
7.603:559
7.603:516
7.603:456
7.622:434
7.622:408
7.622:373
7.622:366
7.622:362
7.624:349
7.624:381
7.624:424
7.627:431
7.627:435
7.627:466
7.627:515
7.627:565
7.628:582
7.628:569
7.628:551
7.628:549
7.628:528
7.631:502
7.631:507
7.631:503
7.631:499
7.632:464
7.632:424
7.632:387
7.632:366
7.632:384
7.635:410
7.635:408
7.635:414
7.651:414
7.651:424
7.651:457
7.651:525
7.651:579
7.652:614
7.652:626
7.655:637
7.655:615
7.655:546
7.656:497
7.656:497
7.656:477
7.656:418
7.656:400
7.656:409
7.657:412
7.659:398
7.659:408
7.659:451
7.659:469
7.659:482
7.659:503
7.660:525
7.660:533
7.660:550
7.663:579
7.663:596
7.663:600
7.663:594
7.679:566
7.679:543
7.680:521
7.680:480
7.684:453
7.684:451
7.684:447
7.684:406
7.685:409
7.685:451
7.685:477
7.685:464
7.685:500
7.686:562
7.688:593
7.688:615
7.688:618
7.689:624
7.689:617
7.689:586
7.689:558
7.689:520
7.690:505
7.691:490
7.692:497
7.692:488
7.692:454
7.692:440
7.692:451
7.692:490
7.708:490
7.708:530
7.709:539
7.713:578
7.713:623
7.713:625
7.713:635
7.714:640
7.714:648
7.714:597
7.714:560
7.714:549
7.714:570
7.717:544
7.717:476
7.717:454
7.717:458
7.718:473
7.718:491
7.718:486
7.718:498
7.718:513
7.720:495
7.721:507
7.721:563
7.722:605
7.722:633
7.722:648
7.722:659
7.722:651
7.741:615
7.742:578
7.742:572
7.742:561
7.743:532
7.743:517
7.743:497
7.743:497
7.743:503
7.744:530
7.745:521
7.745:506
7.745:516
7.745:569
7.746:660
7.746:695
7.746:691
7.747:676
7.747:675
7.749:655
7.749:610
7.749:589
7.749:592
7.750:568
7.750:519
7.750:486
7.750:480
7.750:493
7.751:504
7.753:517
7.770:517
7.770:563
7.770:630
7.770:658
7.771:677
7.771:686
7.771:668
7.771:673
7.771:701
7.774:705
7.775:672
7.775:645
7.775:632
7.776:645
7.776:565
7.776:486
7.776:455
7.777:447
7.778:431
7.779:438
7.779:455
7.779:492
7.779:536
7.779:543
7.780:576
7.780:626
7.780:649
7.780:657
7.782:641
7.782:599
7.798:573
7.798:551
7.798:546
7.799:547
7.799:492
7.799:412
7.802:352
7.802:345
7.803:350
7.803:369
7.803:403
7.803:454
7.803:487
7.803:500
7.804:542
7.807:563
7.808:560
7.808:551
7.809:544
7.809:533
7.809:535
7.809:496
7.809:456
7.809:412
7.809:366
7.811:325
7.811:295
7.811:280
7.811:270
7.811:279
7.827:279
7.827:333
7.827:358
7.827:349
7.827:341
7.831:376
7.831:426
7.832:473
7.832:502
7.832:528
7.832:525
7.832:477
7.832:413
7.833:384
7.836:373
7.836:332
7.836:274
7.836:278
7.837:292
7.837:281
7.837:282
7.837:293
7.837:325
7.837:345
7.839:345
7.839:387
7.840:449
7.840:486
7.840:495
7.840:497
7.856:476
7.860:461
7.860:435
7.860:391
7.860:337
7.861:313
7.861:301
7.861:316
7.861:326
7.861:319
7.862:320
7.864:320
7.864:335
7.864:325
7.864:326
7.865:372
7.865:414
7.865:433
7.865:469
7.865:498
7.866:491
7.868:460
7.868:421
7.868:371
7.869:349
7.869:331
7.869:336
7.869:327
7.869:312
7.869:315
7.884:315
7.888:339
7.888:358
7.889:386
7.889:390
7.889:398
7.889:432
7.889:449
7.889:473
7.889:477
7.893:452
7.893:425
7.894:421
7.894:452
7.894:474
7.894:449
7.894:399
7.894:356
7.895:327
7.895:320
7.897:313
7.897:326
7.897:338
7.897:345
7.897:350
7.897:380
7.897:443
7.898:490
7.898:491
7.901:487
7.917:507
7.917:494
7.917:491
7.917:469
7.918:431
7.918:411
7.918:387
7.922:390
7.922:384
7.922:369
7.922:353
7.923:348
7.923:343
7.923:361
7.923:402
7.923:438
7.925:498
7.925:538
7.925:569
7.925:586
7.925:583
7.925:547
7.925:517
7.926:485
7.926:465
7.926:447
7.929:407
7.929:358
7.929:319
7.929:308
7.945:308
7.946:313
7.946:338
7.946:361
7.946:368
7.946:369
7.950:364
7.950:413
7.950:495
7.950:559
7.951:555
7.951:546
7.951:549
7.951:527
7.951:498
7.952:497
7.954:496
7.954:450
7.954:394
7.954:351
7.954:355
7.955:342
7.955:361
7.955:399
7.955:433
7.958:442
7.959:448
7.959:489
7.959:527
7.959:552
7.974:542
7.974:527
7.974:516
7.979:504
7.979:471
7.979:438
7.979:450
7.979:445
7.979:417
7.980:392
7.980:384
7.980:381
7.983:374
7.983:372
7.983:406
7.984:443
7.984:449
7.984:493
7.984:557
7.984:608
7.985:615
7.985:607
7.987:587
7.987:550
7.987:484
7.988:458
7.988:464
7.988:440
7.988:418
7.988:383
8.003:383
8.003:367
8.008:339
8.009:355
8.009:404
8.009:476
8.009:513
8.009:503
8.009:538
8.010:557
8.010:560
8.012:541
8.012:527
8.012:495
8.012:499
8.013:497
8.013:489
8.013:476
8.013:423
8.013:390
8.013:384
8.016:391
8.016:383
8.016:415
8.016:425
8.017:421
8.017:414
8.017:426
8.017:485
8.017:524
8.036:556
8.036:555
8.036:546
8.036:544
8.036:551
8.037:521
8.037:478
8.037:467
8.040:426
8.041:387
8.041:374
8.041:389
8.042:391
8.042:396
8.042:407
8.042:438
8.042:472
8.043:504
8.044:550
8.044:581
8.044:602
8.045:577
8.045:535
8.045:486
8.045:491
8.046:511
8.046:490
8.048:459
8.048:402
8.048:374
8.065:374
8.065:370
8.065:397
8.065:409
8.065:424
8.066:443
8.066:456
8.069:471
8.069:464
8.069:488
8.069:523
8.070:536
8.070:561
8.070:601
8.070:607
8.071:586
8.071:528
8.073:466
8.073:435
8.073:390
8.074:355
8.075:339
8.075:345
8.075:336
8.075:356
8.075:383
8.077:415
8.077:460
8.077:482
8.077:529
8.093:578
8.093:617
8.093:594
8.094:584
8.098:550
8.098:539
8.098:534
8.098:512
8.098:486
8.099:439
8.099:407
8.099:405
8.099:431
8.099:430
8.101:432
8.102:413
8.102:398
8.102:418
8.102:436
8.102:502
8.102:559
8.103:580
8.103:568
8.106:575
8.106:559
8.106:523
8.106:477
8.107:485
8.107:484
8.107:447
8.121:447
8.121:414
8.122:368
8.126:364
8.126:373
8.126:410
8.126:428
8.127:437
8.127:435
8.127:434
8.127:491
8.127:547
8.128:578
8.130:561
8.130:557
8.130:550
8.130:551
8.131:560
8.131:539
8.131:476
8.131:415
8.131:382
8.134:368
8.134:365
8.134:339
8.134:354
8.135:388
8.135:408
8.135:430
8.135:451
8.155:504
8.155:534
8.155:564
8.155:565
8.155:559
8.155:545
8.156:547
8.156:544
8.156:511
8.157:474
8.159:425
8.159:431
8.159:445
8.159:442
8.159:412
8.159:417
8.159:422
8.159:423
8.161:459
8.163:492
8.163:532
8.163:561
8.163:573
8.164:568
8.164:571
8.164:568
8.164:562
8.164:538
8.165:498
8.166:451
8.183:451
8.183:405
8.183:409
8.183:422
8.183:431
8.185:424
8.185:400
8.185:392
8.185:383
8.187:394
8.187:430
8.188:517
8.188:572
8.188:577
8.188:550
8.189:543
8.189:527
8.189:528
8.192:548
8.192:545
8.192:549
8.192:487
8.192:428
8.193:404
8.193:397
8.193:393
8.193:397
8.193:421
8.196:450
8.196:451
8.212:452
8.212:506
8.212:525
8.212:542
8.212:545
8.216:568
8.216:552
8.216:542
8.216:515
8.216:486
8.216:463
8.216:427
8.218:405
8.218:390
8.218:383
8.221:380
8.221:386
8.221:423
8.221:458
8.222:469
8.222:486
8.222:532
8.222:588
8.222:616
8.223:600
8.224:573
8.225:567
8.225:543
8.225:483
8.225:447
8.240:447
8.241:457
8.241:450
8.241:447
8.241:415
8.244:378
8.244:335
8.245:331
8.245:354
8.245:387
8.245:436
8.245:493
8.245:530
8.245:541
8.249:565
8.249:575
8.249:575
8.250:558
8.250:560
8.250:540
8.250:525
8.250:507
8.250:466
8.251:435
8.253:417
8.253:411
8.253:412
8.253:452
8.253:469
8.253:477
8.269:503
8.274:511
8.274:523
8.274:540
8.274:567
8.275:567
8.275:578
8.275:581
8.275:550
8.275:529
8.276:512
8.278:474
8.278:409
8.278:361
8.279:334
8.279:324
8.279:332
8.279:391
8.279:446
8.279:488
8.281:489
8.282:503
8.282:523
8.282:536
8.282:550
8.282:542
8.283:537
8.283:553
8.283:557
8.283:553
8.298:553
8.302:540
8.302:510
8.302:439
8.302:382
8.302:355
8.302:371
8.304:399
8.304:416
8.304:427
8.307:453
8.307:483
8.308:528
8.308:563
8.308:569
8.309:576
8.309:562
8.309:581
8.309:573
8.309:561
8.310:533
8.310:508
8.310:472
8.310:411
8.310:381
8.311:360
8.311:356
8.311:382
8.311:397
8.314:405
8.331:406
8.331:427
8.331:494
8.331:567
8.332:602
8.332:587
8.332:569
8.335:594
8.335:617
8.335:615
8.335:586
8.336:534
8.336:481
8.336:435
8.336:407
8.337:397
8.339:406
8.339:389
8.339:355
8.339:352
8.339:413
8.340:484
8.340:502
8.340:511
8.342:506
8.342:499
8.343:513
8.343:530
8.343:532
8.343:536
8.360:536
8.360:539
8.360:530
8.360:489
8.360:435
8.361:393
8.364:380
8.364:407
8.364:428
8.364:421
8.365:435
8.365:426
8.365:410
8.365:447
8.365:510
8.368:538
8.368:553
8.368:577
8.368:608
8.369:607
8.369:584
8.369:558
8.369:523
8.369:470
8.369:418
8.372:371
8.372:358
8.372:396
8.372:414
8.373:417
8.388:421
8.388:427
8.388:442
8.392:481
8.392:535
8.392:570
8.392:588
8.392:605
8.393:622
8.393:629
8.393:604
8.393:572
8.396:559
8.396:493
8.396:420
8.397:373
8.397:330
8.397:338
8.397:345
8.397:363
8.398:371
8.398:390
8.400:435
8.400:499
8.400:550
8.400:564
8.401:584
8.401:593
8.401:595
8.401:596
8.416:596
8.417:561
8.421:543
8.421:549
8.421:519
8.421:442
8.422:390
8.422:361
8.422:357
8.422:371
8.422:378
8.425:405
8.425:421
8.425:436
8.425:481
8.426:521
8.426:564
8.426:613
8.426:600
8.426:532
8.427:523
8.429:512
8.429:494
8.429:496
8.429:490
8.429:450
8.430:424
8.430:406
8.430:382
8.430:375
8.449:399
8.449:439
8.449:462
8.449:479
8.449:526
8.449:569
8.451:598
8.451:590
8.454:584
8.454:594
8.454:587
8.454:565
8.455:552
8.455:543
8.455:504
8.455:432
8.455:394
8.456:406
8.458:400
8.458:402
8.458:383
8.458:396
8.458:421
8.459:442
8.459:474
8.459:516
8.459:571
8.462:596
8.462:575
8.462:561
8.478:561
8.478:565
8.478:570
8.478:569
8.479:557
8.479:502
8.479:437
8.483:399
8.483:393
8.483:414
8.483:403
8.484:373
8.484:372
8.484:440
8.484:481
8.484:532
8.485:589
8.487:603
8.487:609
8.487:627
8.487:626
8.487:606
8.488:588
8.488:566
8.488:534
8.488:475
8.490:426
8.490:400
8.490:404
8.492:414
8.507:436
8.507:462
8.508:494
8.508:509
8.511:504
8.511:536
8.511:551
8.511:586
8.512:612
8.512:622
8.512:606
8.512:570
8.512:530
8.513:522
8.515:536
8.515:522
8.515:484
8.515:459
8.515:456
8.516:437
8.516:428
8.516:409
8.516:429
8.519:464
8.519:465
8.519:498
8.520:520
8.520:529
8.520:530
8.520:533
8.535:533
8.535:526
8.536:514
8.539:502
8.539:499
8.540:490
8.541:457
8.541:425
8.541:388
8.542:363
8.542:347
8.542:358
8.542:351
8.544:372
8.544:420
8.544:449
8.544:482
8.545:506
8.545:530
8.545:543
8.545:558
8.545:565
8.548:560
8.548:542
8.548:509
8.548:484
8.548:445
8.549:419
8.549:389
8.549:365
8.569:350
8.569:402
8.569:452
8.569:478
8.569:476
8.570:464
8.570:495
8.570:516
8.570:527
8.573:566
8.573:601
8.573:574
8.573:533
8.574:508
8.575:493
8.575:475
8.575:428
8.575:397
8.576:384
8.577:380
8.577:371
8.577:394
8.577:400
8.577:411
8.577:426
8.578:429
8.578:476
8.578:516
8.579:545
8.580:577
8.597:577
8.597:640
8.597:652
8.597:584
8.597:522
8.597:499
8.598:496
8.598:448
8.598:426
8.601:389
8.601:393
8.601:399
8.601:413
8.601:419
8.601:437
8.602:460
8.602:478
8.602:525
8.605:543
8.605:560
8.605:557
8.605:554
8.606:538
8.607:532
8.607:540
8.608:533
8.608:549
8.609:542
8.609:517
8.609:485
8.625:498
8.625:533
8.625:569
8.625:588
8.626:630
8.629:692
8.629:748
8.629:815
8.630:858
8.630:889
8.630:911
8.630:911
8.630:912
8.631:932
8.631:968
8.634:975
8.634:961
8.634:940
8.634:962
8.635:979
8.635:990
8.635:982
8.635:987
8.635:985
8.638:963
8.638:912
8.638:879
8.638:883
8.638:823
8.639:740
8.654:740
8.654:675
8.654:621
8.655:562
8.655:526
8.658:489
8.658:414
8.658:341
8.659:242
8.659:205
8.659:197
8.659:208
8.659:215
8.660:246
8.662:259
8.662:269
8.663:290
8.663:295
8.663:353
8.664:402
8.664:432
8.664:451
8.665:472
8.665:464
8.666:463
8.667:447
8.667:425
8.667:416
8.667:367
8.668:344
8.682:329
8.687:315
8.687:307
8.688:333
8.688:339
8.688:361
8.688:402
8.689:433
8.689:462
8.689:498
8.689:520
8.690:499
8.692:482
8.692:484
8.692:495
8.693:492
8.693:482
8.693:467
8.693:427
8.693:385
8.695:335
8.695:321
8.695:332
8.695:326
8.695:342
8.696:385
8.696:439
8.696:475
8.696:518
8.696:533
8.716:533
8.716:531
8.716:526
8.716:520
8.717:516
8.717:517
8.717:503
8.717:483
8.717:464
8.718:438
8.720:404
8.720:371
8.720:385
8.720:396
8.720:391
8.721:396
8.721:387
8.721:381
8.721:412
8.721:480
8.723:547
8.724:570
8.724:540
8.724:553
8.724:560
8.724:544
8.725:531
8.725:502
8.725:460
8.728:424
8.745:398
8.745:390
8.745:399
8.745:400
8.745:409
8.745:422
8.746:441
8.748:453
8.748:462
8.748:497
8.749:537
8.749:558
8.749:572
8.749:585
8.749:560
8.749:542
8.752:513
8.752:491
8.753:472
8.753:418
8.753:381
8.753:359
8.754:378
8.754:366
8.754:401
8.755:413
8.756:434
8.756:459
8.756:503
8.756:565
8.773:565
8.774:603
8.774:650
8.774:630
8.774:604
8.774:575
8.777:559
8.777:539
8.777:532
8.777:527
8.778:481
8.778:427
8.778:373
8.778:371
8.778:384
8.781:446
8.781:480
8.781:493
8.781:501
8.781:521
8.782:564
8.782:578
8.782:553
8.782:532
8.782:553
8.785:561
8.785:535
8.785:522
8.785:518
8.785:509
8.801:490
8.802:456
8.802:425
8.806:420
8.806:414
8.806:430
8.806:405
8.807:414
8.807:464
8.808:539
8.808:601
8.808:611
8.809:609
8.809:621
8.809:624
8.809:608
8.810:622
8.810:593
8.810:559
8.811:561
8.811:501
8.811:433
8.813:388
8.813:420
8.813:432
8.814:441
8.814:454
8.814:475
8.814:521
8.814:562
8.830:562
8.830:622
8.835:630
8.835:657
8.835:667
8.835:660
8.836:646
8.836:622
8.836:586
8.836:568
8.836:569
8.839:517
8.839:480
8.839:459
8.839:464
8.840:461
8.840:455
8.841:469
8.841:528
8.841:541
8.841:544
8.843:616
8.843:686
8.843:733
8.843:715
8.844:686
8.844:637
8.844:611
8.844:609
8.844:607
8.863:597
8.863:546
8.864:519
8.864:512
8.864:509
8.864:504
8.864:502
8.865:505
8.867:530
8.868:560
8.868:578
8.868:634
8.868:647
8.868:642
8.869:660
8.869:709
8.869:703
8.869:682
8.871:644
8.871:612
8.871:595
8.872:569
8.872:541
8.872:529
8.872:523
8.872:520
8.873:534
8.875:565
8.875:569
8.875:563
8.892:563
8.892:579
8.892:627
8.892:642
8.893:675
8.893:680
8.893:674
8.896:659
8.896:633
8.896:620
8.896:597
8.896:552
8.897:458
8.897:414
8.897:421
8.897:470
8.897:499
8.899:504
8.900:504
8.900:526
8.900:520
8.900:521
8.900:567
8.901:606
8.901:624
8.901:622
8.904:616
8.904:594
8.904:579
8.904:552
8.920:546
8.920:519
8.920:453
8.920:416
8.925:411
8.925:382
8.925:320
8.925:315
8.926:345
8.926:376
8.926:407
8.926:443
8.926:487
8.927:500
8.928:511
8.928:524
8.928:533
8.928:506
8.929:477
8.929:439
8.929:409
8.929:403
8.929:351
8.933:306
8.933:250
8.933:243
8.933:276
8.933:301
8.934:326
8.934:358
8.948:358
8.949:366
8.949:391
8.953:426
8.953:448
8.953:496
8.953:520
8.954:490
8.954:440
8.954:404
8.954:393
8.954:373
8.954:346
8.956:313
8.956:309
8.956:317
8.956:328
8.956:313
8.956:319
8.958:355
8.958:329
8.958:298
8.961:324
8.961:394
8.961:452
8.961:484
8.961:481
8.962:450
8.962:405
8.962:398
8.982:404
8.982:417
8.982:375
8.982:285
8.983:254
8.983:246
8.983:256
8.983:257
8.983:279
8.986:333
8.986:370
8.986:403
8.986:433
8.986:473
8.987:474
8.987:464
8.987:431
8.987:422
8.987:417
8.991:389
8.991:386
8.991:381
8.991:376
8.991:352
8.992:322
8.992:293
8.992:300
8.992:309
8.992:310
8.994:335
9.010:335
9.010:350
9.011:356
9.011:370
9.011:423
9.011:457
9.011:469
9.012:470
9.012:469
9.014:464
9.015:457
9.015:466
9.015:467
9.015:440
9.015:387
9.016:357
9.016:334
9.016:310
9.019:298
9.019:314
9.019:326
9.019:338
9.020:348
9.020:404
9.020:464
9.020:496
9.020:532
9.020:544
9.022:536
9.022:536
9.038:517
9.039:494
9.039:473
9.039:412
9.040:350
9.044:326
9.044:307
9.044:319
9.044:322
9.045:333
9.045:353
9.045:383
9.045:400
9.045:443
9.046:506
9.048:539
9.048:544
9.048:551
9.048:534
9.048:516
9.048:496
9.048:474
9.048:451
9.049:429
9.052:408
9.052:386
9.052:389
9.052:385
9.052:366
9.053:354
9.067:354
9.067:379
9.067:387
9.068:376
9.072:446
9.072:522
9.072:557
9.072:578
9.074:586
9.074:533
9.074:474
9.074:452
9.075:455
9.075:468
9.076:434
9.076:385
9.076:345
9.077:322
9.077:335
9.077:356
9.077:370
9.077:391
9.078:420
9.078:454
9.079:514
9.079:561
9.081:563
9.081:562
9.081:556
9.081:531
9.096:526
9.100:528
9.101:531
9.101:517
9.101:451
9.101:387
9.101:342
9.102:310
9.102:331
9.102:357
9.102:356
9.105:376
9.105:401
9.105:421
9.105:489
9.105:569
9.105:582
9.106:556
9.106:565
9.107:559
9.108:553
9.108:528
9.108:465
9.110:457
9.110:452
9.110:408
9.110:396
9.110:376
9.111:370
9.111:382
9.129:382
9.129:386
9.129:415
9.129:445
9.129:459
9.130:512
9.130:569
9.130:575
9.130:573
9.130:569
9.134:528
9.134:501
9.134:494
9.134:479
9.135:449
9.135:403
9.135:358
9.135:361
9.135:384
9.138:402
9.138:425
9.138:428
9.138:431
9.138:400
9.138:384
9.139:459
9.139:555
9.139:618
9.140:618
9.141:593
9.158:562
9.158:549
9.158:514
9.158:484
9.158:489
9.158:474
9.158:437
9.162:403
9.162:407
9.162:419
9.162:418
9.163:406
9.163:412
9.163:428
9.163:439
9.163:488
9.166:539
9.166:560
9.166:551
9.166:524
9.167:499
9.167:500
9.167:509
9.167:506
9.167:494
9.168:451
9.170:413
9.170:382
9.170:373
9.170:375
9.186:375
9.186:402
9.187:420
9.187:446
9.187:464
9.187:475
9.191:515
9.191:552
9.191:575
9.191:586
9.191:593
9.192:574
9.192:573
9.192:543
9.192:495
9.195:464
9.195:448
9.195:440
9.195:431
9.196:384
9.196:334
9.196:317
9.196:330
9.196:369
9.197:432
9.199:461
9.199:521
9.199:571
9.199:577
9.199:566
9.215:544
9.215:525
9.215:509
9.219:486
9.220:462
9.220:458
9.220:440
9.220:403
9.220:365
9.221:370
9.221:364
9.221:389
9.224:414
9.224:435
9.224:434
9.225:422
9.225:468
9.225:532
9.225:587
9.225:619
9.226:639
9.226:608
9.228:558
9.228:528
9.228:506
9.228:505
9.229:460
9.229:431
9.229:400
9.229:379
9.244:379
9.244:357
9.248:347
9.248:357
9.248:404
9.248:442
9.248:468
9.248:508
9.248:547
9.248:600
9.249:601
9.252:605
9.252:607
9.252:602
9.252:549
9.253:483
9.253:436
9.253:388
9.253:358
9.253:371
9.254:366
9.257:341
9.257:334
9.258:350
9.258:399
9.258:433
9.258:453
9.258:530
9.258:577
9.258:590
9.276:577
9.276:588
9.277:585
9.277:570
9.277:529
9.277:499
9.277:489
9.278:464
9.281:424
9.281:394
9.281:406
9.281:429
9.282:457
9.282:467
9.282:475
9.282:475
9.282:457
9.283:467
9.285:479
9.285:512
9.285:534
9.285:570
9.286:577
9.286:559
9.286:503
9.286:453
9.286:445
9.289:412
9.289:401
9.289:398
9.305:398
9.305:383
9.306:347
9.306:369
9.307:401
9.307:429
9.307:450
9.309:449
9.309:498
9.309:536
9.309:575
9.310:584
9.310:573
9.310:552
9.310:557
9.311:535
9.311:525
9.313:542
9.313:479
9.313:403
9.313:360
9.314:372
9.314:387
9.314:388
9.314:390
9.314:421
9.318:447
9.318:457
9.318:509
9.318:532
9.334:558
9.334:581
9.334:611
9.335:566
9.338:539
9.338:553
9.338:531
9.339:518
9.340:453
9.340:387
9.340:355
9.341:359
9.341:368
9.342:403
9.342:433
9.342:473
9.342:501
9.343:518
9.343:529
9.343:532
9.343:539
9.343:538
9.344:542
9.346:520
9.346:514
9.346:537
9.346:529
9.348:510
9.348:443
9.348:417
9.362:417
9.362:424
9.362:413
9.367:374
9.367:371
9.367:396
9.368:431
9.368:475
9.368:510
9.368:548
9.368:541
9.369:554
9.369:562
9.371:560
9.371:542
9.371:539
9.371:535
9.371:528
9.372:517
9.372:483
9.372:446
9.372:393
9.375:348
9.375:349
9.375:380
9.376:391
9.376:428
9.376:468
9.376:480
9.376:516
9.396:547
9.396:572
9.396:562
9.397:548
9.397:538
9.397:523
9.397:499
9.397:476
9.397:475
9.399:427
9.399:399
9.399:377
9.399:365
9.400:369
9.400:395
9.400:432
9.400:464
9.400:449
9.401:420
9.404:487
9.404:552
9.404:577
9.404:579
9.404:585
9.404:579
9.404:565
9.405:550
9.405:519
9.406:497
9.406:439
9.424:439
9.424:401
9.424:398
9.425:424
9.425:448
9.425:457
9.425:456
9.425:469
9.426:487
9.428:493
9.428:534
9.428:548
9.428:552
9.428:534
9.428:520
9.429:533
9.429:580
9.429:592
9.432:527
9.432:494
9.432:439
9.432:389
9.434:350
9.434:360
9.434:393
9.434:410
9.434:418
9.434:454
9.435:485
9.437:497
9.452:531
9.452:562
9.453:566
9.453:552
9.453:562
9.457:579
9.457:570
9.457:541
9.458:510
9.458:472
9.458:423
9.458:413
9.458:415
9.458:424
9.458:388
9.461:374
9.461:377
9.461:385
9.461:413
9.462:472
9.462:541
9.462:548
9.462:552
9.462:568
9.465:591
9.465:582
9.465:559
9.465:516
9.466:482
9.466:444
9.481:444
9.481:403
9.481:382
9.481:372
9.486:384
9.486:404
9.486:431
9.486:433
9.487:440
9.487:451
9.487:484
9.487:550
9.487:575
9.487:605
9.490:618
9.490:615
9.490:570
9.490:524
9.492:495
9.492:483
9.492:474
9.492:436
9.492:415
9.494:371
9.494:376
9.494:384
9.494:392
9.495:402
9.495:433
9.495:446
9.509:467
9.514:540
9.514:562
9.514:566
9.514:545
9.515:549
9.515:532
9.515:534
9.515:529
9.515:521
9.516:515
9.518:471
