0.001:518
0.001:521
0.001:527
0.001:513
0.001:493
0.001:480
0.001:472
0.001:448
0.001:423
0.001:445
0.002:449
0.002:450
0.002:451
0.002:450
0.002:465
0.002:493
0.002:495
0.002:490
0.003:494
0.003:523
0.003:530
0.003:518
0.003:480
0.003:473
0.003:480
0.003:484
0.003:471
0.003:477
0.003:479
0.003:477
0.004:467
0.004:456
0.004:426
0.004:411
0.004:422
0.004:440
0.004:459
0.004:495
0.004:527
0.004:539
0.005:538
0.005:537
0.005:535
0.005:530
0.005:529
0.005:527
0.005:518
0.005:510
0.005:491
0.005:504
0.005:496
0.005:468
0.005:448
0.006:464
0.006:489
0.006:495
0.006:525
0.006:544
0.006:585
0.006:585
0.006:587
0.006:604
0.006:643
0.006:690
0.006:689
0.006:687
0.006:707
0.007:724
0.007:755
0.007:743
0.007:723
0.007:754
0.007:787
0.007:804
0.007:832
0.007:870
0.007:906
0.007:924
0.007:935
0.007:955
0.007:961
0.008:980
0.008:972
0.008:919
0.008:831
0.008:751
0.008:701
0.008:669
0.008:626
0.008:554
0.008:487
0.008:414
0.008:369
0.008:333
0.009:307
0.009:301
0.009:317
0.009:360
0.009:382
0.009:380
0.009:369
0.009:372
0.009:401
0.009:425
0.009:431
0.009:401
0.009:390
0.010:379
0.010:368
0.010:357
0.010:351
0.010:351
0.010:368
0.010:393
0.010:407
0.010:401
0.010:407
0.010:435
0.010:463
0.011:463
0.011:493
0.011:504
0.011:491
0.011:480
0.011:495
0.011:502
0.011:490
0.011:469
0.011:412
0.011:393
0.011:375
0.011:339
0.012:333
0.012:349
0.012:364
0.012:370
0.012:399
0.012:429
0.012:453
0.012:466
0.012:477
0.012:481
0.012:494
0.012:501
0.013:494
0.013:482
0.013:470
0.013:460
0.013:458
0.013:460
0.013:451
0.013:444
0.013:418
0.013:399
0.013:403
0.013:413
0.013:448
0.014:467
0.014:465
0.014:479
0.014:507
0.014:537
0.014:549
0.014:535
0.015:503
0.015:507
0.015:504
0.015:477
0.016:445
0.016:410
0.016:404
0.016:436
0.016:448
0.016:459
0.016:455
0.016:454
0.017:474
0.017:470
0.017:464
0.017:464
0.017:462
0.017:490
0.017:525
0.017:552
0.017:556
0.017:527
0.018:492
0.018:466
0.018:469
0.018:456
0.018:432
0.018:429
0.018:423
0.018:405
0.018:410
0.019:439
0.019:459
0.019:477
0.019:483
0.019:460
0.019:457
0.019:482
0.019:505
0.019:565
0.019:576
0.019:564
0.019:522
0.020:487
0.020:518
0.020:531
0.020:529
0.020:514
0.020:486
0.020:440
0.020:435
0.020:465
0.020:490
0.021:495
0.021:473
0.021:480
0.021:495
0.021:511
0.021:523
0.021:511
0.021:508
0.021:540
0.022:563
0.022:538
0.022:509
0.022:488
0.022:489
0.022:475
0.022:461
0.022:450
0.022:459
0.023:487
0.023:501
0.023:507
0.023:509
0.023:509
0.023:514
0.023:514
0.023:527
0.024:542
0.024:548
0.024:544
0.024:564
0.024:569
0.024:541
0.024:516
0.024:519
0.025:510
0.025:490
0.025:480
0.025:490
0.025:511
0.025:534
0.025:507
0.025:495
0.025:491
0.026:511
0.026:546
0.026:579
0.026:579
0.026:567
0.026:587
0.026:608
0.026:589
0.027:547
0.027:519
0.027:522
0.027:508
0.027:496
0.027:496
0.027:484
0.027:484
0.028:511
0.028:523
0.028:532
0.028:555
0.028:559
0.028:567
0.028:585
0.029:579
0.029:577
0.029:564
0.029:578
0.029:586
0.029:551
0.029:536
0.029:508
0.029:499
0.030:517
0.030:538
0.030:548
0.030:559
0.030:556
0.030:557
0.030:560
0.030:560
0.031:555
0.031:557
0.031:584
0.032:609
0.032:631
0.033:624
0.033:630
0.033:628
0.033:614
0.033:588
0.034:579
0.034:577
0.034:544
0.034:481
0.034:492
0.034:534
0.035:540
0.035:549
0.035:574
0.035:578
0.035:586
0.035:583
0.035:615
0.035:663
0.036:652
0.036:640
0.036:621
0.036:590
0.036:592
0.036:611
0.036:631
0.036:647
0.037:629
0.037:578
0.037:542
0.037:550
0.037:551
0.037:555
0.037:559
0.037:568
0.037:601
0.038:601
0.038:598
0.038:603
0.038:613
0.038:626
0.038:625
0.038:593
0.038:551
0.038:517
0.039:499
0.039:522
0.039:524
0.039:502
0.039:503
0.039:530
0.040:537
0.041:537
0.041:523
0.041:523
0.041:487
0.041:503
0.042:532
0.042:556
0.042:558
0.042:540
0.042:517
0.043:525
0.043:536
0.043:515
0.043:482
0.043:464
0.043:458
0.043:444
0.043:434
0.043:421
0.043:409
0.044:402
0.044:387
0.044:398
0.044:439
0.044:460
0.044:470
0.044:463
0.044:452
0.044:464
0.044:465
0.044:458
0.045:448
0.045:441
0.045:413
0.045:393
0.045:392
0.045:365
0.045:347
0.045:340
0.045:331
0.045:332
0.045:328
0.046:333
0.046:344
0.046:380
0.046:399
0.046:393
0.046:373
0.046:395
0.046:420
0.046:412
0.046:404
0.047:393
0.047:381
0.047:370
0.047:373
0.047:373
0.047:351
0.047:354
0.047:386
0.048:369
0.048:362
0.048:362
0.048:378
0.048:370
0.048:346
0.049:344
0.049:385
0.049:396
0.049:421
0.049:431
0.049:427
0.049:412
0.049:390
0.049:393
0.049:400
0.050:378
0.050:362
0.050:365
0.050:364
0.050:337
0.050:335
0.050:354
0.050:369
0.050:369
0.051:371
0.051:378
0.051:422
0.051:431
0.051:432
0.051:434
0.051:424
0.051:422
0.051:437
0.051:426
0.051:383
0.051:350
0.051:322
0.052:334
0.052:353
0.052:363
0.052:360
0.052:351
0.052:349
0.052:364
0.052:399
0.052:417
0.052:441
0.052:434
0.052:435
0.053:454
0.053:471
0.053:460
0.053:423
0.053:395
0.053:394
0.053:401
0.053:401
0.053:399
0.053:398
0.053:388
0.053:361
0.053:361
0.054:367
0.054:423
0.054:448
0.054:459
0.054:460
0.054:450
0.054:456
0.054:473
0.054:470
0.054:457
0.054:465
0.054:465
0.054:481
0.054:483
0.054:457
0.054:417
0.055:377
0.055:362
0.055:349
0.055:342
0.055:361
0.055:402
0.055:409
0.055:417
0.055:451
0.056:465
0.056:457
0.056:452
0.056:465
0.056:476
0.056:488
0.056:494
0.056:487
0.056:475
0.056:469
0.057:434
0.057:403
0.057:383
0.057:398
0.057:402
0.057:392
0.057:430
0.057:434
0.057:415
0.057:397
0.058:437
0.058:484
0.058:506
0.058:508
0.058:466
0.058:439
0.058:433
0.058:440
0.058:441
0.058:448
0.059:416
0.059:416
0.059:432
0.059:434
0.059:434
0.059:425
0.059:436
0.059:452
0.059:446
0.059:445
0.060:455
0.060:483
0.060:501
0.060:521
0.060:519
0.060:487
0.060:475
0.060:442
0.060:439
0.060:465
0.061:468
0.061:458
0.061:464
0.061:454
0.061:435
0.061:441
0.061:455
0.061:461
0.061:452
0.062:458
0.062:470
0.062:483
0.062:477
0.062:491
0.062:497
0.062:493
0.062:485
0.062:453
0.062:450
0.062:465
0.062:467
0.062:453
0.062:437
0.063:427
0.063:409
0.063:397
0.063:411
0.063:436
0.063:463
0.063:486
0.063:502
0.063:513
0.063:515
0.063:518
0.063:517
0.063:517
0.063:510
0.063:496
0.064:472
0.064:457
0.064:448
0.064:429
0.064:414
0.065:412
0.065:412
0.065:419
0.065:459
0.065:477
0.065:478
0.065:496
0.065:487
0.065:496
0.066:501
0.066:513
0.066:504
0.066:479
0.066:472
0.066:474
0.066:474
0.066:449
0.066:428
0.066:439
0.066:438
0.066:420
0.067:415
0.067:426
0.067:433
0.067:451
0.067:463
0.067:477
0.067:485
0.067:496
0.067:525
0.067:547
0.068:540
0.068:522
0.068:499
0.068:468
0.068:432
0.068:440
0.068:473
0.068:488
0.068:464
0.068:435
0.068:441
0.068:432
0.068:433
0.068:454
0.068:468
0.069:469
0.069:463
0.069:482
0.069:499
0.069:520
0.069:536
0.069:539
0.069:510
0.069:491
0.069:480
0.069:472
0.069:453
0.069:442
0.069:418
0.069:419
0.069:419
0.069:422
0.069:414
0.070:435
0.070:458
0.070:468
0.070:474
0.070:473
0.070:510
0.070:537
0.070:556
0.070:556
0.070:535
0.070:516
0.070:496
0.070:466
0.070:443
0.070:457
0.070:478
0.070:480
0.070:454
0.070:429
0.070:423
0.071:441
0.071:462
0.071:466
0.071:462
0.071:464
0.071:484
0.071:497
0.071:522
0.071:547
0.071:543
0.071:514
0.071:478
0.071:472
0.071:482
0.071:465
0.071:421
0.071:402
0.071:409
0.071:412
0.071:424
0.072:454
0.072:480
0.072:479
0.072:486
0.072:485
0.072:502
0.072:515
0.072:521
0.072:493
0.072:497
0.072:505
0.072:488
0.072:471
0.072:449
0.072:453
0.072:432
0.072:419
0.072:419
0.072:411
0.072:437
0.072:459
0.073:451
0.073:465
0.073:467
0.073:465
0.073:485
0.073:518
0.073:527
0.073:531
0.073:538
0.073:561
0.073:526
0.073:475
0.073:486
0.073:490
0.073:481
0.073:466
0.073:458
0.073:420
0.073:388
0.073:388
0.074:399
0.074:440
0.074:451
0.074:454
0.074:455
0.074:506
0.074:517
0.074:521
0.074:533
0.074:541
0.074:548
0.074:522
0.074:489
0.074:483
0.074:487
0.074:464
0.074:428
0.074:394
0.074:387
0.074:383
0.075:400
0.075:469
0.075:498
0.075:514
0.075:507
0.075:523
0.075:536
0.075:568
0.075:572
0.075:537
0.075:528
0.075:506
0.075:490
0.075:469
0.075:465
0.075:438
0.075:438
0.075:403
0.075:401
0.075:410
0.075:424
0.076:434
0.076:471
0.076:495
0.076:496
0.076:497
0.076:509
0.076:522
0.076:541
0.076:539
0.076:544
0.076:522
0.076:476
0.076:470
0.076:486
0.076:451
0.076:413
0.076:416
0.076:416
0.076:428
0.076:442
0.077:445
0.077:460
0.077:474
0.077:513
0.077:528
0.077:527
0.077:521
0.077:530
0.077:555
0.077:541
0.077:521
0.077:496
0.077:495
0.077:478
0.077:453
0.077:441
0.078:429
0.078:422
0.078:408
0.078:397
0.078:410
0.078:437
0.078:451
0.078:479
0.078:500
0.078:518
0.078:533
0.078:530
0.078:519
0.078:518
0.078:503
0.078:483
0.078:478
0.078:467
0.078:437
0.078:437
0.078:406
0.079:424
0.079:447
0.079:441
0.079:428
0.079:457
0.079:486
0.079:504
0.079:523
0.079:532
0.079:538
0.079:536
0.079:529
0.079:523
0.079:539
0.079:538
0.079:501
0.079:473
0.079:455
0.079:441
0.079:446
0.080:450
0.080:440
0.080:429
0.080:435
0.080:460
0.080:456
0.080:448
0.080:473
0.080:497
0.080:516
0.080:530
0.080:549
0.080:542
0.080:521
0.080:494
0.080:488
0.080:502
0.080:499
0.080:472
0.080:451
0.081:441
0.081:430
0.081:421
0.081:435
0.081:454
0.082:447
0.082:449
0.082:457
0.082:497
0.083:533
0.083:542
0.083:540
0.083:533
0.083:538
0.083:529
0.083:515
0.083:518
0.084:485
0.084:485
0.084:455
0.084:430
0.084:400
0.084:418
0.084:439
0.084:444
0.084:451
0.084:465
0.084:479
0.085:486
0.085:498
0.085:506
0.085:527
0.085:526
0.085:523
0.085:509
0.085:484
0.085:458
0.085:432
0.085:441
0.085:447
0.085:459
0.085:450
0.085:439
0.085:447
0.086:464
0.086:494
0.086:494
0.086:491
0.086:464
0.086:458
0.086:494
0.086:539
0.086:549
0.086:527
0.086:524
0.086:511
0.086:494
0.086:485
0.086:481
0.086:469
0.087:461
0.087:456
0.087:448
0.087:430
0.087:427
0.087:438
0.087:451
0.087:479
0.087:503
0.087:528
0.087:503
0.087:481
0.087:475
0.087:475
0.087:496
0.087:489
0.088:475
0.088:470
0.088:470
0.088:479
0.088:456
0.088:429
0.088:438
0.088:464
0.088:479
0.088:478
0.088:462
0.088:460
0.088:494
0.088:517
0.088:541
0.088:530
0.088:513
0.088:512
0.088:523
0.089:527
0.089:514
0.089:504
0.089:496
0.089:512
0.089:534
0.089:518
0.089:461
0.089:421
0.089:417
0.089:432
0.089:462
0.089:474
0.089:470
0.089:461
0.089:473
0.089:497
0.089:544
0.089:557
0.089:548
0.089:542
0.090:524
0.090:498
0.090:479
0.090:475
0.090:464
0.090:452
0.090:415
0.090:407
0.090:423
0.090:420
0.090:442
0.090:463
0.090:491
0.090:497
0.090:525
0.090:540
0.090:551
0.090:549
0.090:508
0.090:482
0.090:460
0.091:453
0.091:453
0.091:470
0.091:484
0.091:484
0.091:472
0.091:467
0.091:453
0.091:448
0.091:484
0.091:526
0.091:503
0.091:489
0.091:497
0.091:528
0.091:518
0.091:531
0.091:557
0.091:540
0.091:522
0.091:495
0.092:485
0.092:480
0.092:496
0.092:497
0.092:485
0.092:469
0.092:479
0.092:505
0.092:526
0.092:543
0.092:516
0.092:511
0.092:509
0.092:549
0.092:553
0.092:533
0.092:527
0.092:529
0.093:556
0.093:564
0.093:538
0.093:500
0.093:491
0.093:482
0.093:473
0.093:458
0.093:456
0.093:462
0.093:484
0.093:500
0.093:489
0.093:487
0.093:468
0.093:483
0.093:497
0.093:521
0.093:531
0.093:526
0.093:513
0.093:515
0.094:515
0.094:515
0.094:498
0.094:476
0.094:419
0.094:376
0.094:398
0.094:407
0.094:391
0.094:396
0.094:438
0.094:470
0.094:480
0.094:480
0.094:487
0.094:527
0.094:541
0.094:529
0.094:518
0.094:503
0.094:479
0.095:465
0.095:459
0.095:457
0.095:452
0.095:448
0.095:425
0.095:401
0.095:394
0.095:417
0.095:445
0.095:474
0.095:486
0.095:483
0.095:502
0.095:520
0.095:528
0.095:533
0.095:523
0.095:499
0.095:487
0.095:484
0.095:452
0.096:433
0.096:425
0.096:420
0.096:414
0.096:397
0.096:402
0.096:410
0.096:429
0.096:469
0.096:511
0.096:514
0.096:499
0.096:492
0.096:503
0.096:541
0.096:567
0.096:578
0.096:578
0.096:544
0.096:498
0.096:444
0.096:399
0.097:399
0.097:419
0.097:449
0.097:450
0.097:445
0.097:468
0.097:492
0.097:511
0.097:504
0.097:493
0.097:490
0.097:507
0.097:509
0.097:524
0.097:529
0.097:528
0.098:506
0.098:486
0.098:468
0.098:467
0.098:479
0.098:479
0.098:488
0.098:510
0.098:516
0.098:545
0.098:536
0.098:536
0.099:561
0.099:605
0.099:663
0.099:687
0.099:685
0.099:677
0.099:684
0.099:687
0.099:685
0.099:708
0.099:730
0.099:735
0.099:748
0.099:765
0.099:809
0.100:826
0.100:864
0.100:919
0.100:949
0.100:974
0.100:988
0.100:990
0.100:990
0.100:975
0.100:955
0.101:923
0.101:857
0.101:857
0.101:767
0.101:672
0.101:600
0.101:553
0.101:484
0.101:425
0.101:371
0.101:328
0.101:293
0.101:290
0.101:312
0.101:339
0.101:339
0.101:338
0.101:362
0.101:382
0.101:396
0.102:378
0.102:373
0.102:384
0.102:412
0.102:422
0.102:400
0.102:382
0.102:362
0.102:356
0.102:355
0.102:367
0.102:377
0.102:386
0.102:412
0.102:428
0.102:454
0.102:476
0.102:487
0.102:493
0.102:481
0.103:456
0.103:450
0.103:480
0.103:477
0.103:468
0.103:480
0.103:449
0.103:409
0.103:375
0.103:368
0.103:380
0.103:392
0.103:411
0.103:415
0.103:402
0.103:399
0.103:421
0.103:464
0.104:493
0.104:511
0.104:515
0.104:523
0.104:523
0.104:527
0.104:506
0.104:465
0.104:420
0.104:400
0.104:373
0.104:372
0.104:368
0.104:375
0.104:377
0.104:393
0.104:438
0.104:472
0.104:480
0.104:497
0.104:529
0.104:522
0.105:530
0.105:513
0.105:481
0.105:487
0.105:486
0.105:487
0.105:488
0.105:466
0.105:424
0.105:437
0.105:442
0.105:441
0.105:447
0.105:442
0.105:455
0.105:462
0.105:471
0.105:475
0.105:483
0.105:481
0.106:504
0.106:508
0.106:494
0.106:490
0.106:480
0.106:480
0.106:472
0.106:465
0.106:442
0.106:445
0.106:434
0.106:412
0.106:411
0.106:419
0.106:464
0.106:487
0.106:480
0.106:496
0.106:529
0.106:562
0.106:557
0.107:542
0.107:542
0.107:533
0.107:522
0.107:516
0.107:489
0.107:492
0.107:512
0.107:508
0.107:506
0.107:493
0.107:485
0.107:472
0.107:466
0.107:459
0.107:453
0.107:476
0.108:489
0.108:506
0.108:498
0.108:518
0.108:550
0.108:569
0.108:534
0.108:502
0.108:496
0.108:485
0.108:480
0.108:463
0.108:464
0.108:461
0.108:429
0.108:410
0.108:422
0.108:468
0.108:512
0.108:517
0.108:507
0.109:512
0.109:524
0.109:556
0.109:587
0.109:590
0.109:574
0.109:544
0.109:529
0.109:515
0.109:498
0.109:480
0.109:496
0.109:501
0.109:487
0.109:483
0.109:496
0.109:488
0.109:509
0.109:538
0.109:532
0.109:543
0.109:552
0.110:534
0.110:534
0.110:542
0.110:539
0.110:552
0.110:553
0.110:540
0.110:521
0.110:501
0.110:468
0.110:453
0.110:463
0.110:472
0.110:477
0.110:506
0.110:528
0.110:529
0.110:535
0.110:559
0.110:591
0.110:602
0.110:593
0.111:603
0.111:600
0.111:581
0.111:567
0.111:589
0.111:608
0.111:589
0.111:530
0.111:504
0.111:504
0.111:511
0.111:508
0.111:525
0.111:539
0.111:547
0.111:576
0.111:579
0.111:574
0.111:594
0.111:611
0.111:624
0.112:625
0.112:613
0.112:600
0.112:585
0.112:584
0.112:576
0.112:559
0.112:545
0.112:549
0.112:546
0.112:518
0.112:497
0.112:528
0.112:559
0.112:578
0.112:595
0.112:622
0.112:648
0.112:648
0.112:641
0.113:615
0.113:605
0.113:623
0.113:631
0.113:640
0.113:634
0.113:591
0.113:527
0.113:486
0.113:467
0.113:476
0.113:498
0.113:509
0.113:516
0.113:541
0.113:571
0.113:597
0.113:596
0.113:591
0.113:596
0.113:590
0.113:565
0.114:536
0.114:512
0.114:507
0.114:515
0.114:494
0.114:461
0.114:428
0.114:437
0.114:454
0.114:480
0.115:513
0.115:533
0.115:544
0.115:536
0.115:523
0.115:529
0.115:542
0.115:529
0.115:523
0.115:530
0.115:492
0.116:474
0.116:469
0.116:458
0.116:427
0.116:419
0.116:421
0.116:405
0.116:393
0.116:386
0.116:398
0.116:402
0.116:435
0.116:442
0.116:443
0.117:449
0.117:449
0.117:464
0.117:475
0.117:472
0.117:461
0.117:455
0.117:442
0.117:425
0.117:415
0.117:387
0.117:367
0.117:372
0.117:369
0.117:359
0.117:356
0.117:378
0.117:383
0.118:384
0.118:412
0.118:432
0.118:431
0.118:442
0.118:445
0.118:430
0.118:414
0.118:394
0.118:390
0.118:382
0.118:374
0.118:358
0.118:348
0.118:330
0.118:331
0.118:323
0.118:325
0.118:347
0.118:359
0.118:381
0.119:401
0.119:426
0.119:445
0.119:453
0.119:439
0.119:429
0.119:434
0.119:421
0.119:414
0.119:389
0.119:361
0.119:333
0.119:336
0.119:346
0.119:366
0.119:366
0.119:357
0.119:378
0.119:389
0.119:393
0.120:396
0.120:414
0.120:414
0.120:425
0.120:461
0.120:485
0.120:470
0.120:443
0.120:426
0.120:418
0.120:400
0.120:388
0.120:370
0.120:369
0.120:372
0.120:361
0.120:342
0.120:339
0.120:375
0.120:374
0.120:368
0.121:387
0.121:435
0.121:447
0.121:434
0.121:442
0.121:435
0.121:411
0.121:419
0.121:441
0.121:444
0.121:421
0.121:410
0.121:384
0.121:379
0.121:398
0.121:411
0.121:402
0.121:413
0.121:434
0.122:455
0.122:475
0.122:495
0.122:513
0.122:516
0.122:504
0.122:498
0.122:478
0.122:452
0.122:423
0.122:388
0.122:366
0.122:358
0.122:392
0.122:402
0.122:404
0.122:393
0.122:390
0.122:415
0.122:441
0.122:451
0.123:468
0.123:468
0.123:480
0.123:484
0.123:459
0.123:470
0.123:473
0.123:486
0.123:479
0.123:469
0.123:456
0.123:449
0.124:449
0.124:450
0.124:440
0.124:389
0.124:365
0.124:394
0.124:433
0.124:452
0.124:473
0.124:471
0.124:472
0.124:484
0.124:491
0.124:498
0.124:492
0.124:498
0.124:463
0.124:428
0.124:433
0.124:449
0.124:450
0.124:441
0.125:441
0.125:442
0.125:432
0.125:420
0.125:429
0.125:435
0.125:445
0.125:450
0.125:467
0.125:487
0.125:491
0.125:483
0.125:482
0.125:482
0.125:474
0.125:470
0.125:459
0.125:443
0.125:435
0.125:445
0.125:442
0.126:405
0.126:391
0.126:414
0.126:451
0.126:453
0.126:455
0.126:455
0.126:467
0.126:492
0.126:524
0.126:544
0.126:534
0.126:508
0.126:472
0.126:449
0.126:452
0.126:447
0.126:458
0.126:453
0.126:423
0.126:407
0.127:429
0.127:432
0.127:429
0.127:433
0.127:451
0.127:486
0.127:519
0.127:526
0.127:517
0.127:518
0.127:521
0.127:515
0.127:499
0.127:478
0.127:491
0.127:495
0.127:483
0.127:448
0.127:424
0.127:422
0.127:406
0.128:409
0.128:425
0.128:454
0.128:471
0.128:491
0.128:508
0.128:532
0.128:545
0.128:517
0.128:493
0.128:472
0.128:433
0.128:432
0.128:460
0.128:473
0.128:462
0.128:454
0.128:448
0.128:438
0.128:417
0.128:416
0.129:423
0.129:446
0.129:464
0.129:464
0.129:485
0.129:492
0.129:491
0.129:507
0.129:523
0.129:545
0.129:549
0.129:525
0.129:508
0.129:503
0.129:491
0.129:472
0.129:444
0.129:435
0.129:436
0.129:442
0.129:448
0.129:444
0.130:479
0.130:500
0.130:502
0.130:513
0.130:499
0.130:494
0.130:489
0.130:489
0.130:494
0.130:457
0.130:432
0.130:427
0.130:444
0.130:456
0.130:459
0.130:447
0.130:448
0.130:457
0.130:447
0.130:431
0.131:414
0.131:410
0.131:449
0.131:514
0.131:528
0.131:519
0.131:500
0.132:497
0.132:502
0.132:484
0.132:490
0.132:486
0.132:485
0.132:472
0.132:479
0.133:472
0.133:447
0.133:425
0.133:395
0.133:424
0.133:475
0.133:475
0.133:501
0.133:491
0.133:491
0.133:510
0.133:522
0.133:511
0.133:503
0.133:493
0.134:460
0.134:442
0.134:450
0.134:462
0.134:443
0.134:440
0.134:436
0.134:446
0.134:453
0.134:447
0.134:454
0.134:478
0.134:490
0.134:487
0.134:511
0.134:530
0.135:549
0.135:553
0.135:546
0.135:553
0.135:519
0.135:483
0.135:510
0.135:560
0.135:529
0.135:497
0.135:478
0.135:464
0.135:408
0.135:375
0.135:415
0.135:445
0.135:460
0.135:470
0.135:490
0.135:513
0.135:540
0.136:536
0.136:526
0.136:520
0.136:486
0.136:471
0.136:461
0.136:451
0.136:417
0.136:421
0.136:447
0.136:441
0.136:418
0.136:434
0.136:466
0.136:466
0.136:473
0.136:459
0.136:464
0.136:458
0.137:436
0.137:457
0.137:504
0.137:540
0.137:527
0.137:497
0.137:511
0.137:528
0.137:510
0.137:475
0.137:444
0.137:442
0.137:440
0.137:431
0.137:417
0.137:448
0.137:482
0.137:490
0.137:479
0.137:493
0.137:509
0.137:530
0.138:547
0.138:539
0.138:519
0.138:497
0.138:498
0.138:491
0.138:475
0.138:449
0.138:428
0.138:416
0.138:428
0.138:440
0.138:451
0.138:468
0.138:481
0.138:497
0.138:501
0.138:504
0.138:506
0.138:490
0.138:505
0.138:548
0.139:572
0.139:548
0.139:524
0.139:474
0.139:460
0.139:442
0.139:414
0.139:391
0.139:402
0.139:435
0.139:487
0.139:487
0.139:494
0.139:460
0.139:453
0.140:481
0.140:513
0.140:529
0.140:535
0.140:535
0.140:522
0.140:503
0.140:485
0.140:473
0.140:468
0.140:465
0.140:445
0.140:436
0.140:440
0.140:437
0.140:428
0.140:435
0.140:461
0.140:468
0.140:470
0.141:480
0.141:518
0.141:555
0.141:558
0.141:556
0.141:528
0.141:510
0.141:490
0.141:466
0.141:473
0.141:491
0.141:474
0.141:457
0.141:456
0.141:433
0.141:397
0.141:386
0.141:407
0.141:432
0.141:465
0.141:500
0.141:533
0.142:536
0.142:533
0.142:540
0.142:548
0.142:543
0.142:517
0.142:512
0.142:489
0.142:487
0.142:491
0.142:464
0.142:431
0.142:436
0.142:447
0.142:447
0.142:463
0.142:483
0.142:492
0.142:493
0.142:480
0.142:496
0.143:504
0.143:501
0.143:495
0.143:516
0.143:510
0.143:467
0.143:435
0.143:433
0.143:432
0.143:432
0.143:414
0.143:424
0.143:430
0.143:457
0.143:469
0.143:476
0.143:486
0.143:476
0.143:500
0.143:525
0.143:530
0.144:525
0.144:528
0.144:528
0.144:514
0.144:500
0.144:483
0.144:485
0.144:482
0.144:468
0.144:444
0.144:442
0.144:413
0.144:391
0.144:406
0.144:446
0.144:478
0.144:516
0.144:551
0.144:555
0.144:560
0.144:555
0.145:551
0.145:534
0.145:514
0.145:498
0.145:481
0.145:495
0.145:488
0.145:456
0.145:421
0.145:400
0.145:408
0.145:408
0.145:431
0.145:451
0.145:453
0.145:466
0.145:482
0.145:512
0.145:512
0.145:513
0.145:522
0.145:552
0.146:552
0.146:535
0.146:494
0.146:467
0.146:460
0.146:458
0.146:465
0.146:447
0.146:444
0.146:455
0.146:461
0.146:484
0.146:493
0.146:499
0.146:498
0.146:501
0.146:484
0.146:487
0.146:518
0.146:544
0.146:546
0.146:519
0.147:494
0.147:491
0.147:477
0.147:438
0.147:422
0.147:422
0.147:445
0.147:451
0.147:450
0.147:462
0.147:468
0.147:468
0.147:476
0.147:505
0.147:513
0.148:524
0.148:534
0.148:519
0.148:497
0.148:467
0.148:468
0.148:483
0.148:497
0.148:486
0.148:459
0.148:437
0.149:434
0.149:434
0.149:440
0.149:452
0.149:483
0.149:504
0.149:505
0.149:511
0.149:521
0.149:506
0.150:498
0.150:495
0.150:506
0.150:497
0.150:471
0.150:462
0.150:478
0.150:460
0.150:444
0.151:441
0.151:438
0.151:444
0.151:438
0.151:425
0.151:450
0.151:475
0.151:491
0.151:504
0.151:521
0.151:524
0.151:525
0.151:530
0.151:567
0.152:587
0.152:527
0.152:504
0.152:514
0.152:518
0.152:495
0.152:442
0.152:404
0.152:395
0.152:418
0.152:455
0.152:490
0.152:503
0.152:497
0.152:467
0.153:460
0.153:490
0.153:541
0.153:536
0.153:524
0.153:505
0.153:494
0.153:486
0.153:460
0.153:444
0.153:422
0.153:422
0.153:449
0.153:449
0.153:464
0.154:476
0.154:490
0.154:510
0.154:513
0.154:516
0.154:518
0.154:536
0.154:556
0.154:553
0.154:546
0.154:535
0.154:518
0.154:506
0.154:508
0.154:505
0.155:511
0.155:504
0.155:467
0.155:428
0.155:433
0.155:465
0.155:485
0.155:500
0.155:510
0.155:533
0.155:536
0.155:558
0.156:571
0.156:569
0.156:571
0.156:570
0.156:553
0.156:509
0.156:500
0.156:512
0.156:503
0.156:477
0.156:469
0.156:459
0.156:447
0.156:452
0.156:470
0.157:483
0.157:478
0.157:480
0.157:510
0.157:516
0.157:504
0.157:518
0.157:541
0.157:565
0.157:566
0.157:527
0.157:475
0.157:445
0.157:431
0.158:420
0.158:421
0.158:421
0.158:432
0.158:433
0.158:429
0.158:426
0.158:446
0.158:447
0.158:448
0.158:463
0.158:480
0.158:498
0.158:528
0.158:543
0.159:544
0.159:524
0.159:497
0.159:476
0.159:464
0.159:465
0.159:464
0.159:459
0.159:440
0.159:409
0.159:397
0.159:414
0.159:452
0.159:462
0.159:464
0.160:480
0.160:496
0.160:499
0.160:501
0.160:503
0.160:499
0.160:486
0.160:464
0.160:456
0.160:461
0.160:452
0.160:423
0.160:408
0.160:425
0.160:427
0.160:435
0.160:437
0.160:444
0.160:443
0.161:450
0.161:485
0.161:507
0.161:505
0.161:486
0.161:492
0.161:514
0.161:508
0.161:514
0.161:511
0.161:501
0.161:501
0.161:484
0.161:484
0.161:441
0.161:419
0.161:429
0.161:449
0.162:462
0.162:480
0.162:491
0.162:483
0.162:496
0.162:501
0.162:535
0.162:556
0.162:537
0.162:525
0.162:507
0.162:487
0.162:488
0.162:505
0.162:494
0.162:467
0.162:480
0.162:495
0.162:512
0.163:521
0.163:548
0.163:552
0.163:547
0.163:550
0.163:577
0.163:624
0.163:653
0.163:674
0.163:683
0.163:699
0.163:695
0.163:675
0.163:678
0.163:697
0.163:697
0.163:707
0.163:706
0.163:716
0.163:746
0.163:787
0.164:864
0.164:922
0.164:959
0.164:971
0.164:985
0.164:990
0.164:989
0.165:990
0.165:968
0.165:917
0.165:842
0.165:764
0.165:681
0.165:600
0.165:517
0.165:517
0.165:467
0.165:410
0.165:365
0.165:328
0.165:302
0.165:298
0.166:299
0.166:302
0.166:314
0.166:344
0.166:346
0.166:355
0.166:383
0.166:401
0.166:409
0.166:406
0.166:410
0.166:414
0.166:411
0.166:389
0.167:372
0.167:371
0.167:386
0.167:380
0.167:340
0.167:360
0.167:405
0.167:427
0.167:445
0.167:467
0.167:484
0.167:501
0.167:495
0.167:481
0.167:494
0.168:496
0.168:475
0.168:444
0.168:406
0.168:368
0.168:357
0.168:358
0.168:369
0.168:406
0.168:439
0.168:458
0.168:449
0.168:450
0.168:442
0.168:451
0.168:463
0.168:482
0.168:491
0.168:489
0.168:480
0.168:450
0.169:435
0.169:440
0.169:444
0.169:444
0.169:430
0.169:421
0.169:422
0.169:415
0.169:398
0.169:399
0.169:409
0.169:411
0.169:423
0.169:451
0.169:491
0.169:510
0.169:516
0.169:498
0.170:508
0.170:508
0.170:477
0.170:466
0.170:462
0.170:479
0.170:481
0.170:453
0.170:415
0.170:404
0.170:428
0.170:446
0.170:467
0.170:479
0.170:488
0.170:496
0.170:516
0.170:531
0.170:541
0.170:531
0.171:511
0.171:488
0.171:466
0.171:459
0.171:443
0.171:447
0.171:436
0.171:452
0.171:452
0.171:443
0.171:446
0.171:456
0.171:482
0.171:494
0.171:507
0.171:498
0.171:495
0.171:500
0.171:522
0.172:530
0.172:511
0.172:488
0.172:474
0.172:477
0.172:489
0.172:489
0.172:503
0.172:493
0.172:464
0.172:43124
0.172:442
0.172:428
0.172:405
0.172:377
0.172:370
0.172:386
0.172:408
0.172:444
0.172:457
0.172:451
0.173:444
0.173:5
0.173:397
0.173:426
0.173:454
0.173:454
0.173:482
0.173:481
0.173:444
0.173:418
0.173:408
0.173:412
0.173:408
0.173:384
0.173:400
0.173:424
0.173:442
0.173:428
0.173:405
0.173:377
0.174:370
0.174:386
0.174:408
0.174:444
0.174:457
0.174:451
0.174:444
0.174:419
0.174:399
0.174:42
0.174:454
0.174:454
0.174:482
0.174:481
0.174:444
0.174:418
0.174:408
0.174:412
0.174:408
0.174:384
0.175:400
0.175:424
0.175:442
0.175:428
0.175:405
0.175:377
0.175:370
0.175:386
0.175:408
0.175:444
0.175:457
0.175:451
0.175:444
0.175:419
0.175:399
0.175:429
0.175:462
0.175:464
0.175:473
0.175:474
0.175:452
0.176:425
0.176:440
0.176:457
0.176:469
0.176:450
0.176:410
0.176:402
0.176:387
0.176:397
0.176:403
0.176:420
0.176:420
0.176:428
0.176:436
0.176:417
0.176:414
0.176:453
0.176:467
0.176:462
0.176:447
0.176:414
0.176:399
0.177:407
0.177:413
0.177:391
0.177:365
0.177:367
0.177:383
0.177:452
0.177:502
0.177:502
0.177:502
0.177:507
0.177:501
0.177:481
0.177:471
0.177:483
0.177:493
0.177:488
0.177:458
0.177:415
0.177:381
0.178:346
0.178:347
0.178:367
0.178:368
0.178:373
0.178:388
0.178:398
0.178:451
0.178:514
0.178:512
0.178:469
0.178:477
0.178:531
0.178:586
0.178:610
0.178:586
0.178:537
0.178:469
0.178:447
0.178:466
0.178:475
0.179:449
0.179:414
0.179:380
0.179:387
0.179:386
0.179:422
0.179:501
0.179:528
0.179:520
0.179:515
0.179:515
0.179:503
0.179:502
0.179:490
0.179:469
0.179:450
0.179:467
0.179:500
0.179:517
0.180:520
0.180:500
0.180:460
0.180:441
0.180:421
0.180:406
0.180:397
0.180:454
0.189:454
0.189:499
0.189:519
0.189:534
0.189:548
0.194:543
0.194:535
0.194:529
0.194:517
0.194:513
0.194:481
0.194:466
0.194:453
0.194:451
0.194:435
0.197:420
0.198:417
0.198:413
0.198:395
0.198:393
0.198:416
0.198:435
0.198:441
0.198:452
0.202:511
0.202:560
0.202:564
0.202:540
0.202:514
0.202:495
0.218:471
0.218:446
0.223:440
0.223:464
0.223:460
0.223:422
0.223:404
0.223:393
0.223:397
0.223:401
0.223:420
0.227:442
0.227:453
0.227:467
0.227:493
0.227:523
0.227:527
0.227:536
0.227:556
0.227:565
0.227:597
0.231:594
0.232:559
0.232:527
0.232:488
0.232:463
0.232:457
0.232:451
0.232:432
0.232:421
0.247:421
0.251:437
0.251:445
0.251:445
0.251:470
0.252:490
0.252:492
0.252:487
0.252:497
0.252:495
0.256:471
0.256:440
0.256:436
0.256:438
0.256:476
0.256:508
0.256:514
0.256:487
0.256:463
0.256:441
0.260:454
0.260:517
0.260:517
0.260:498
0.260:504
0.260:531
0.260:538
0.260:517
0.261:485
0.261:478
0.280:467
0.280:449
0.280:467
0.280:480
0.280:464
0.280:432
0.280:415
0.284:419
0.284:414
0.284:433
0.284:456
0.284:485
0.284:502
0.284:511
0.284:518
0.284:531
0.284:519
0.289:486
0.289:475
0.289:485
0.289:491
0.289:461
0.289:429
0.289:425
0.289:430
0.289:419
0.292:411
0.292:413
0.292:416
0.292:429
0.309:429
0.309:462
0.309:507
0.309:548
0.309:538
0.309:514
0.313:525
0.313:504
0.313:507
0.313:514
0.313:500
0.313:490
0.313:477
0.313:476
0.313:468
0.313:462
0.317:456
0.317:456
0.317:449
0.317:405
0.317:375
0.317:397
0.317:448
0.317:454
0.318:441
0.321:439
0.321:436
0.321:407
0.321:398
0.321:418
0.337:423
0.337:455
0.337:502
0.342:508
0.342:483
0.342:481
0.342:480
0.342:471
0.342:486
0.342:505
0.342:531
0.342:547
0.342:572
0.345:589
0.345:595
0.345:582
0.345:562
0.346:559
0.346:564
0.346:551
0.346:522
0.346:471
0.349:434
0.350:442
0.350:444
0.350:425
0.350:403
0.350:395
0.350:414
0.350:456
0.366:456
0.366:477
0.370:491
0.370:501
0.370:505
0.370:494
0.370:473
0.370:446
0.370:446
0.370:484
0.370:511
0.370:514
0.374:499
0.374:480
0.374:432
0.374:391
0.374:373
0.374:392
0.374:460
0.374:500
0.375:490
0.378:463
0.378:464
0.378:490
0.378:507
0.378:508
0.378:539
0.379:543
0.379:582
0.379:589
0.399:565
0.399:509
0.399:448
0.399:417
0.399:397
0.399:428
0.399:474
0.399:501
0.400:511
0.403:497
0.403:456
0.403:435
0.403:445
0.403:447
0.403:464
0.403:495
0.403:531
0.403:535
0.407:517
0.407:515
0.407:513
0.407:511
0.407:505
0.407:475
0.407:442
0.407:455
0.407:462
0.408:474
0.411:445
0.411:400
0.427:400
0.428:381
0.428:419
0.428:452
0.428:482
0.428:489
0.428:515
0.428:536
0.431:532
0.432:522
0.432:536
0.432:555
0.432:537
0.432:513
0.432:507
0.432:495
0.432:486
0.436:485
0.436:464
0.436:437
0.436:438
0.436:456
0.436:451
0.436:439
0.436:430
0.437:433
0.437:440
0.440:445
0.440:424
0.440:422
0.456:423
0.456:414
0.456:422
0.456:438
0.460:409
0.460:429
0.460:482
0.460:474
0.460:437
0.460:381
0.460:381
0.460:427
0.462:425
0.462:445
0.465:486
0.465:541
0.465:581
0.466:586
0.466:564
0.466:560
0.466:540
0.466:516
0.466:492
0.467:465
0.469:439
0.469:431
0.469:458
0.469:469
0.469:441
0.469:417
0.485:417
0.485:441
0.485:484
0.485:485
0.489:489
0.489:479
0.489:464
0.489:463
0.489:504
0.489:522
0.489:536
0.489:539
0.489:546
0.493:554
0.493:544
0.493:551
0.493:559
0.493:545
0.493:521
0.493:516
0.493:489
0.493:444
0.493:411
0.497:423
0.497:457
0.497:494
0.497:529
0.497:531
0.497:539
0.497:531
0.517:537
0.517:522
0.517:498
0.517:483
0.517:451
0.517:425
0.517:425
0.517:441
0.518:459
0.518:499
0.522:523
0.522:511
0.522:474
0.522:451
0.522:449
0.522:447
0.522:451
0.522:452
0.522:482
0.526:499
0.526:479
0.526:453
0.526:427
0.526:429
0.526:438
0.526:448
0.526:466
0.526:452
0.526:432
0.530:432
0.546:432
0.546:414
0.546:392
0.546:404
0.546:474
0.546:528
0.547:503
0.547:493
0.547:476
0.550:455
0.551:445
0.551:461
0.551:475
0.551:497
0.551:541
0.551:551
0.551:553
0.551:526
0.551:513
0.554:449
0.554:406
0.554:371
0.554:363
0.555:410
0.555:483
0.555:538
0.555:552
0.555:543
0.559:562
0.559:613
0.575:600
0.575:589
0.575:569
0.575:560
0.575:525
0.575:500
0.579:475
0.579:449
0.579:408
0.579:378
0.579:400
0.579:442
0.579:487
0.579:513
0.579:528
0.583:521
0.583:499
0.583:490
0.583:507
0.583:516
0.583:500
0.583:498
0.583:500
0.583:485
0.583:454
0.587:410
0.587:404
0.587:422
0.587:465
0.587:448
0.603:448
0.603:421
0.603:383
0.603:366
0.603:363
0.608:369
0.608:407
0.608:453
0.608:484
0.608:499
0.608:507
0.608:503
0.608:517
0.608:536
0.612:553
0.612:549
0.612:532
0.612:516
0.612:521
0.612:520
0.612:486
0.612:484
0.612:465
0.612:460
0.616:481
0.616:492
0.616:481
0.616:435
0.617:402
0.617:424
0.631:518
0.632:549
0.636:533
0.636:492
0.636:452
0.636:445
0.636:471
0.636:505
0.636:522
0.637:537
0.637:523
0.641:491
0.641:438
0.641:408
0.641:415
0.641:461
0.641:544
0.641:596
0.641:570
0.641:530
0.641:536
0.645:546
0.645:565
0.645:566
0.645:559
0.645:548
0.645:516
0.645:498
0.645:496
0.645:488
0.660:488
0.665:488
0.665:503
0.666:490
0.666:475
0.666:462
0.666:488
0.666:525
0.666:548
0.667:544
0.669:531
0.669:530
0.669:511
0.669:504
0.669:478
0.669:466
0.669:478
0.669:479
0.669:476
0.669:462
0.673:458
0.673:429
0.673:409
0.673:397
0.673:420
0.673:462
0.673:486
0.673:502
0.673:525
0.677:561
0.693:570
0.693:593
0.693:588
0.693:554
0.693:539
0.693:536
0.693:538
0.697:525
0.697:473
0.697:446
0.699:440
0.699:420
0.699:420
0.699:431
0.699:443
0.699:492
0.699:488
0.702:478
0.702:488
0.702:480
0.702:471
0.702:532
0.703:582
0.703:605
0.703:608
0.703:567
0.706:530
0.706:512
0.706:500
0.707:444
0.722:444
0.722:393
0.722:372
0.722:390
0.722:401
0.723:432
0.725:444
0.727:445
0.727:470
0.727:505
0.727:526
0.727:515
0.727:510
0.727:516
0.727:527
0.727:528
0.731:489
0.731:463
0.731:445
0.732:460
0.732:468
0.732:464
0.732:448
0.732:435
0.732:427
0.735:415
0.735:410
0.735:414
0.735:433
0.735:440
0.750:462
0.750:472
0.750:488
0.755:464
0.755:443
0.755:446
0.755:456
0.755:431
0.755:420
0.755:438
0.755:457
0.755:453
0.755:440
0.759:443
0.759:413
0.759:445
0.759:467
0.759:472
0.759:525
0.759:503
0.759:486
0.759:505
0.763:530
0.763:541
0.763:528
0.763:511
0.763:513
0.763:486
0.763:451
0.763:442
0.779:442
0.779:455
0.784:472
0.784:485
0.784:492
0.784:503
0.784:534
0.784:562
0.784:603
0.784:586
0.784:525
0.784:520
0.787:557
0.787:588
0.787:591
0.787:607
0.788:597
0.788:574
0.788:561
0.788:544
0.788:556
0.792:588
0.792:596
0.792:579
0.792:595
0.792:621
0.792:655
0.792:696
0.792:731
0.792:763
0.812:780
0.813:774
0.813:788
0.813:840
0.813:884
0.813:923
0.813:955
0.813:964
0.813:970
0.816:973
0.816:989
0.816:990
0.817:990
0.817:965
0.817:915
0.817:890
0.817:870
0.817:793
0.820:689
0.821:626
0.821:551
0.821:499
0.821:464
0.821:420
0.821:377
0.821:362
0.821:334
0.821:302
0.824:292
0.824:284
0.841:284
0.841:295
0.841:332
0.841:369
0.841:355
0.841:332
0.841:326
0.842:328
0.845:335
0.845:327
0.845:349
0.845:380
0.845:398
0.845:405
0.845:427
0.845:447
0.845:439
0.849:439
0.849:486
0.849:509
0.849:449
0.849:420
0.849:411
0.849:407
0.849:389
0.849:370
0.850:359
0.853:359
0.853:393
0.853:411
0.869:423
0.869:409
0.869:392
0.869:389
0.873:438
0.873:488
0.873:497
0.873:485
0.873:489
0.873:472
0.873:456
0.873:479
0.873:472
0.873:475
0.878:478
0.878:487
0.878:463
0.878:414
0.878:385
0.878:377
0.878:392
0.878:440
0.878:452
0.881:451
0.882:483
0.882:473
0.882:449
0.882:438
0.882:442
0.882:422
0.898:422
0.898:410
0.898:423
0.898:430
0.902:446
0.902:439
0.902:410
0.902:401
0.902:398
0.902:401
0.902:426
0.902:480
0.902:502
0.906:506
0.906:495
0.906:508
0.906:521
0.906:525
0.906:533
0.906:519
0.906:527
0.906:521
0.907:507
0.910:478
0.910:471
0.910:453
0.910:445
0.910:466
0.910:458
0.910:399
0.930:373
0.930:407
0.930:416
0.930:428
0.931:475
0.931:522
0.931:523
0.931:516
0.931:507
0.931:498
0.935:505
0.935:498
0.935:462
0.935:424
0.935:418
0.935:445
0.936:482
0.936:487
0.936:499
0.939:512
0.939:513
0.939:529
0.939:537
0.939:536
0.939:520
0.939:515
0.940:537
0.940:545
0.940:539
0.943:519
0.960:519
0.960:492
0.960:478
0.960:450
0.960:445
0.960:455
0.960:453
0.960:474
0.960:488
0.964:469
0.964:460
0.964:469
0.964:470
0.964:473
0.965:480
0.965:490
0.965:498
0.965:516
0.967:551
0.968:567
0.968:564
0.968:537
0.968:513
0.968:507
0.968:504
0.968:497
0.968:512
0.968:545
0.971:571
0.971:549
0.988:543
0.988:560
0.988:581
0.988:556
0.989:524
0.989:522
0.992:551
0.992:573
0.993:566
0.993:547
0.993:529
0.993:519
0.993:524
0.993:521
0.993:526
0.996:533
0.996:546
0.996:550
0.996:521
0.996:485
0.997:470
0.997:476
0.997:496
0.997:508
0.997:518
1.000:545
1.000:589
1.000:610
1.000:576
1.000:542
1.017:542
1.017:549
1.017:548
1.017:553
1.017:558
1.021:537
1.021:501
1.021:478
1.021:481
1.021:487
1.021:501
1.021:530
1.021:559
1.021:602
1.025:605
1.025:604
1.025:607
1.025:589
1.025:580
1.025:574
1.025:556
1.025:535
1.025:523
1.025:552
1.029:557
1.029:555
1.029:559
1.029:560
1.029:569
1.029:577
1.046:553
1.046:560
1.050:572
1.050:566
1.050:548
1.050:543
1.050:576
1.051:626
1.051:663
1.051:654
1.051:649
1.054:650
1.054:619
1.054:579
1.054:569
1.054:602
1.054:605
1.054:599
1.054:598
1.055:609
1.055:614
1.058:607
1.058:561
1.058:531
1.058:527
1.058:512
1.058:533
1.059:589
1.059:621
1.059:621
1.073:621
1.078:641
1.078:654
1.078:616
1.078:581
1.078:548
1.078:563
1.078:584
1.079:566
1.079:576
1.082:595
1.082:602
1.083:559
1.083:514
1.083:494
1.083:500
1.083:517
1.083:521
1.083:541
1.083:565
1.087:569
1.087:565
1.087:563
1.087:553
1.087:528
1.087:495
1.087:466
1.087:467
1.087:474
1.090:467
1.107:456
1.107:442
1.107:447
1.107:474
1.107:498
1.107:458
1.107:398
1.111:367
1.111:374
1.111:388
1.111:393
1.111:416
1.112:420
1.112:421
1.112:453
1.112:475
1.112:457
1.115:402
1.115:382
1.115:383
1.115:409
1.115:403
1.115:379
1.115:384
1.115:420
1.115:439
1.119:424
1.119:388
1.119:370
1.119:364
1.136:364
1.136:340
1.136:329
1.136:370
1.136:404
1.136:383
1.140:350
1.140:331
1.140:306
1.140:319
1.140:352
1.140:400
1.140:429
1.140:413
1.140:394
1.140:403
1.144:415
1.144:433
1.144:453
1.144:453
1.144:427
1.144:392
1.144:392
1.144:411
1.144:415
1.147:394
1.147:377
1.148:368
1.148:331
1.148:311
1.164:295
1.164:302
1.164:334
1.168:358
1.169:380
1.169:411
1.169:423
1.169:381
1.169:378
1.169:399
1.169:436
1.169:472
1.169:481
1.172:440
1.172:391
1.172:364
1.173:348
1.173:344
1.173:317
1.173:283
1.173:263
1.173:254
1.177:259
1.177:279
1.177:327
1.177:369
1.177:390
1.177:408
1.177:428
1.177:457
1.192:457
1.193:466
1.197:455
1.197:465
1.197:420
1.198:364
1.198:343
1.198:339
1.198:365
1.198:378
1.198:427
1.198:470
1.201:456
1.201:446
1.201:468
1.202:515
1.202:527
1.202:512
1.202:461
1.202:447
1.202:467
1.205:492
1.205:499
1.205:488
1.205:501
1.205:499
1.205:494
1.205:503
1.205:493
1.205:435
1.225:409
1.225:400
1.225:406
1.225:361
1.225:361
1.225:398
1.225:403
1.226:386
1.231:404
1.231:418
1.231:408
1.231:384
1.231:372
1.231:377
1.232:415
1.232:422
1.232:436
1.232:465
1.233:484
1.233:464
1.235:444
1.235:435
1.235:428
1.235:423
1.236:403
1.239:413
1.239:437
1.239:462
1.239:477
1.239:502
1.254:502
1.254:510
1.254:455
1.254:404
1.254:414
1.254:421
1.254:417
1.254:385
1.258:365
1.258:366
1.258:386
1.258:416
1.258:419
1.259:433
1.259:444
1.259:473
1.259:516
1.263:568
1.263:593
1.263:559
1.263:536
1.263:513
1.263:511
1.263:512
1.264:506
1.264:488
1.264:470
1.266:465
1.266:455
1.266:473
1.282:497
1.283:490
1.283:456
1.283:458
1.288:435
1.288:405
1.288:398
1.288:382
1.288:399
1.288:430
1.288:453
1.288:461
1.288:486
1.288:508
1.292:524
1.292:537
1.292:533
1.292:495
1.292:466
1.292:456
1.292:461
1.292:492
1.292:493
1.296:494
1.296:485
1.296:443
1.296:447
1.297:467
1.298:455
1.298:436
1.311:436
1.311:440
1.311:448
1.316:461
1.316:485
1.316:466
1.316:427
1.317:398
1.317:395
1.317:423
1.317:458
1.317:484
1.317:480
1.320:467
1.320:458
1.320:452
1.320:456
1.320:476
1.320:492
1.320:504
1.320:529
1.320:568
1.321:584
1.323:586
1.323:569
1.323:602
1.323:625
1.323:558
1.323:460
1.325:400
1.345:381
1.345:354
1.345:357
1.345:381
1.345:407
1.345:435
1.345:439
1.345:433
1.345:436
1.346:449
1.349:465
1.349:495
1.349:481
1.349:450
1.349:435
1.349:444
1.349:468
1.350:472
1.350:483
1.353:479
1.353:465
1.353:437
1.353:441
1.353:449
1.353:429
1.353:393
1.353:369
1.353:396
1.353:429
1.357:440
1.373:440
1.373:461
1.373:493
1.373:523
1.373:545
1.373:584
1.373:569
1.373:479
1.373:409
1.378:416
1.378:447
1.378:437
1.378:375
1.378:402
1.378:446
1.378:472
1.378:468
1.378:448
1.381:489
1.381:525
1.381:558
1.381:555
1.382:525
1.382:472
1.382:475
1.382:494
1.382:510
1.382:527
1.385:514
1.385:492
1.401:457
1.401:439
1.401:424
1.401:426
1.402:435
1.402:413
1.406:407
1.406:441
1.406:476
1.406:480
1.406:471
1.406:448
1.406:445
1.406:420
1.406:425
1.410:458
1.410:487
1.410:502
1.410:482
1.410:459
1.410:474
1.410:519
1.410:517
1.410:493
1.410:457
1.413:451
1.413:447
1.414:458
1.414:522
1.414:568
1.430:568
1.430:552
1.430:514
1.431:507
1.431:531
1.435:562
1.435:545
1.435:518
1.435:519
1.435:473
1.435:441
1.435:463
1.435:474
1.435:440
1.439:419
1.439:429
1.439:450
1.439:457
1.439:466
1.439:493
1.439:494
1.439:477
1.439:446
1.439:461
1.443:497
1.443:546
1.443:558
1.443:536
1.443:494
1.443:448
1.459:460
1.459:434
1.464:400
1.464:399
1.464:423
1.464:461
1.464:462
1.464:458
1.464:465
1.464:440
1.465:418
1.468:439
1.468:469
1.468:513
1.468:537
1.468:542
1.468:512
1.468:488
1.468:456
1.468:437
1.468:471
1.472:507
1.472:526
1.472:527
1.472:508
1.472:449
1.472:391
1.472:383
1.472:413
1.472:470
1.487:470
1.492:505
1.492:529
1.492:509
1.492:512
1.492:526
1.492:546
1.492:550
1.492:531
1.492:515
1.496:486
1.496:449
1.496:463
1.497:490
1.497:426
1.497:390
1.497:375
1.497:357
1.498:354
1.498:350
1.500:339
1.500:323
1.500:351
1.500:422
1.500:480
1.500:493
1.500:505
1.500:563
1.501:580
1.504:571
1.520:568
1.520:541
1.520:531
1.520:557
1.520:552
1.520:537
1.520:527
1.525:511
1.525:498
1.525:499
1.525:508
1.525:499
1.525:509
1.525:497
1.525:494
1.525:479
1.525:496
1.528:494
1.528:483
1.528:483
1.528:457
1.529:459
1.529:451
1.529:427
1.529:395
1.529:390
1.533:411
1.533:440
1.533:467
1.533:499
1.549:499
1.549:537
1.549:570
1.549:576
1.550:527
1.550:521
1.554:555
1.554:580
1.554:568
1.554:520
1.554:468
1.554:413
1.554:389
1.554:414
1.554:471
1.554:490
1.557:479
1.557:450
1.557:415
1.557:411
1.557:429
1.557:461
1.557:462
1.557:453
1.557:442
1.562:434
1.562:423
1.562:442
1.562:452
1.562:457
1.577:453
1.577:475
1.577:481
1.582:480
1.582:486
1.582:463
1.582:444
1.582:414
1.582:403
1.582:414
1.582:459
1.582:513
1.586:537
1.586:513
1.586:493
1.586:514
1.586:514
1.586:515
1.587:532
1.587:555
1.587:583
1.587:562
1.590:520
1.590:486
1.590:480
1.590:475
1.590:484
1.590:479
1.590:464
1.590:476
1.605:476
1.605:470
1.611:454
1.611:459
1.611:477
1.611:482
1.611:497
1.611:517
1.611:526
1.611:532
1.611:533
1.611:515
1.615:490
1.615:498
1.615:533
1.615:565
1.615:565
1.615:515
1.615:432
1.615:341
1.616:304
1.619:339
1.619:423
1.619:454
1.619:445
1.619:440
1.619:455
1.619:457
1.619:489
1.619:521
1.639:533
1.639:526
1.639:491
1.639:477
1.639:461
1.640:437
1.640:422
1.640:422
1.644:429
1.644:416
1.644:402
1.644:372
1.644:386
1.644:417
1.644:454
1.644:502
1.644:538
1.644:545
1.647:549
1.647:566
1.647:545
1.647:520
1.647:491
1.647:517
1.647:561
1.647:570
1.647:521
1.652:490
1.652:511
1.652:520
1.668:520
1.668:516
1.668:508
1.668:508
1.668:495
1.668:489
1.668:479
1.668:487
1.672:510
1.672:523
1.672:530
1.672:515
1.672:493
1.672:459
1.672:462
1.672:482
1.672:499
1.676:529
1.676:561
1.676:569
1.676:507
1.676:472
1.676:465
1.677:450
1.677:455
1.677:468
1.677:444
1.680:453
1.680:498
1.680:530
1.696:523
1.697:503
1.697:462
1.697:435
1.701:451
1.701:446
1.701:459
1.701:458
1.701:446
1.701:455
1.701:443
1.701:418
1.701:422
1.701:445
1.705:467
1.705:496
1.705:519
1.705:517
1.705:500
1.706:500
1.706:514
1.706:526
1.706:521
1.709:473
1.709:407
1.709:410
1.709:422
1.709:404
1.709:395
1.709:394
1.725:394
1.725:391
1.725:425
1.729:510
1.730:589
1.730:587
1.730:540
1.730:489
1.730:455
1.730:453
1.731:479
1.731:505
1.731:520
1.734:528
1.734:556
1.734:552
1.734:491
1.734:431
1.734:397
1.734:383
1.734:380
1.734:383
1.734:402
1.737:415
1.737:429
1.737:456
1.737:461
1.737:472
1.737:472
1.737:490
1.758:525
1.758:548
1.758:579
1.758:600
1.758:597
1.758:574
1.758:523
1.758:486
1.758:465
1.758:465
1.763:482
1.763:513
1.763:532
1.763:507
1.763:553
1.763:586
1.764:562
1.764:511
1.764:486
1.766:461
1.766:444
1.766:423
1.766:418
1.766:413
1.766:407
1.766:429
1.766:449
1.766:456
1.767:465
1.770:508
1.787:508
1.787:573
1.787:546
1.787:458
1.787:398
1.787:416
1.787:474
1.787:489
1.787:465
1.791:472
1.791:478
1.791:471
1.791:489
1.791:528
1.791:553
1.791:583
1.791:605
1.791:561
1.795:493
1.795:427
1.795:354
1.795:352
1.795:358
1.796:389
1.796:448
1.796:542
1.797:653
1.797:707
1.799:729
1.799:726
1.816:687
1.816:678
1.816:664
1.816:642
1.816:614
1.816:557
1.819:542
1.819:554
1.820:497
1.820:442
1.820:424
1.820:407
1.820:410
1.820:436
1.820:464
1.824:470
1.824:512
1.824:548
1.824:545
1.824:500
1.824:463
1.824:441
1.824:438
1.824:419
1.824:401
1.828:367
1.828:344
1.828:370
1.828:402
1.828:423
1.844:423
1.844:432
1.844:410
1.844:392
1.844:424
1.848:501
1.848:550
1.848:556
1.848:519
1.848:508
1.848:505
1.848:495
1.848:493
1.848:448
1.853:462
1.853:431
1.853:339
1.853:316
1.853:388
1.853:454
1.853:481
1.853:432
1.853:414
1.853:410
1.856:465
1.856:538
1.856:554
1.856:529
1.856:502
1.856:509
1.873:525
1.873:537
1.877:576
1.877:590
1.878:581
1.878:590
1.878:527
1.878:470
1.878:445
1.878:419
1.878:419
1.881:419
1.881:447
1.881:450
1.881:438
1.881:455
1.881:488
1.881:530
1.881:508
1.882:449
1.882:387
1.885:411
1.885:433
1.885:415
1.885:407
1.885:403
1.885:402
1.885:396
1.885:426
1.885:461
1.901:461
1.906:491
1.906:464
1.906:487
1.906:529
1.906:559
1.906:560
1.906:520
1.906:502
1.906:512
1.910:514
1.910:505
1.910:507
1.910:511
1.910:505
1.910:461
1.910:434
1.910:445
1.910:486
1.910:517
1.913:519
1.913:519
1.913:498
1.913:483
1.913:470
1.915:443
1.915:453
1.915:489
1.915:595
1.918:673
1.933:693
1.933:668
1.933:642
1.933:602
1.933:573
1.933:583
1.933:605
1.939:638
1.939:665
1.939:667
1.939:653
1.939:683
1.939:730
1.939:722
1.939:711
1.939:706
1.939:765
1.942:869
1.942:925
1.942:908
1.942:930
1.943:990
1.943:988
1.943:989
1.943:989
1.943:986
1.946:984
1.947:988
1.947:944
1.947:872
1.963:872
1.963:794
1.963:721
1.963:636
1.963:533
1.963:380
1.967:314
1.967:278
1.967:268
1.967:297
1.967:313
1.967:328
1.967:341
1.967:369
1.967:397
1.967:404
1.971:413
1.971:404
1.971:399
1.971:380
1.971:330
1.971:290
1.971:282
1.971:273
1.971:260
1.975:284
1.975:310
1.975:353
1.975:413
1.975:489
1.991:518
1.991:562
1.991:580
1.996:574
1.997:511
1.997:433
1.997:406
1.997:419
1.997:411
1.997:395
1.997:378
1.997:367
2.000:384
2.000:411
2.000:412
2.000:383
2.000:357
2.000:358
2.000:365
2.000:396
2.000:446
2.000:465
2.004:471
2.004:447
2.004:417
2.004:338
2.004:353
2.004:363
2.004:303
2.004:268
2.020:268
2.020:291
2.025:333
2.025:410
2.025:428
2.025:441
2.025:501
2.025:552
2.025:557
2.025:561
2.025:509
2.025:442
2.028:453
2.028:497
2.028:504
2.028:508
2.028:506
2.028:472
2.028:453
2.028:498
2.028:521
2.032:483
2.032:409
2.032:359
2.032:333
2.032:361
2.032:394
2.032:406
2.032:411
2.032:396
2.053:401
2.053:424
2.053:467
2.053:502
2.053:532
2.053:548
2.054:569
2.054:561
2.057:560
2.057:553
2.057:551
2.057:559
2.057:544
2.057:546
2.057:550
2.057:499
2.057:450
2.057:449
2.061:479
2.061:498
2.061:475
2.061:453
2.061:442
2.061:443
2.061:452
2.061:500
2.061:533
2.065:550
2.065:527
2.065:465
2.082:465
2.082:426
2.082:409
2.082:378
2.082:367
2.082:341
2.082:341
2.086:335
2.086:360
2.086:370
2.086:429
2.086:493
2.086:523
2.086:547
2.087:547
2.087:537
2.087:549
2.090:554
2.090:536
2.090:495
2.090:468
2.090:476
2.090:497
2.090:493
2.090:507
2.091:530
2.091:547
2.093:550
2.093:541
2.093:576
2.109:611
2.110:595
2.110:615
2.110:649
2.114:578
2.114:506
2.115:533
2.115:576
2.115:541
2.115:494
2.115:502
2.115:463
2.115:421
2.115:419
2.119:451
2.119:439
2.119:405
2.119:433
2.119:504
2.119:572
2.119:587
2.119:547
2.119:500
2.123:521
2.123:529
2.123:502
2.123:509
2.123:559
2.123:588
2.123:566
2.138:566
2.138:517
2.138:494
2.143:504
2.143:486
2.143:480
2.143:515
2.143:544
2.143:587
2.143:634
2.143:641
2.143:599
2.143:546
2.147:505
2.147:534
2.147:557
2.147:591
2.147:610
2.147:591
2.147:585
2.147:565
2.147:511
2.151:494
2.151:532
2.151:559
2.151:571
2.151:579
2.151:599
2.151:597
2.151:578
2.172:585
2.172:576
2.172:571
2.172:525
2.172:466
2.172:500
2.172:559
2.172:558
2.172:543
2.172:538
2.176:531
2.176:549
2.176:559
2.176:572
2.176:568
2.176:595
2.176:595
2.176:588
2.176:616
2.179:613
2.180:632
2.180:669
2.180:702
2.180:695
2.180:689
2.180:694
2.180:728
2.180:800
2.180:865
2.184:844
2.200:844
2.200:730
2.200:631
2.200:586
2.200:558
2.200:538
2.200:543
2.200:538
2.201:530
2.204:541
2.205:504
2.205:480
2.205:463
2.205:499
2.205:549
2.205:610
2.205:658
2.205:638
2.209:630
2.209:656
2.209:625
2.209:543
2.209:494
2.209:466
2.209:453
2.209:469
2.209:445
2.209:425
2.213:449
2.213:453
2.229:462
2.229:486
2.229:487
2.230:481
2.230:512
2.230:565
2.233:555
2.233:561
2.233:587
2.233:564
2.233:556
2.233:559
2.233:524
2.234:470
2.234:484
2.237:521
2.237:498
2.237:481
2.237:459
2.237:412
2.237:370
2.237:365
2.238:422
2.238:529
2.238:539
2.240:488
2.241:462
2.241:469
2.241:479
2.241:475
2.257:475
2.257:464
2.257:416
2.257:404
2.257:430
2.261:439
2.261:421
2.261:413
2.261:408
2.262:427
2.262:448
2.262:454
2.262:417
2.262:381
2.266:373
2.266:369
2.266:380
2.266:346
2.266:333
2.266:360
2.266:387
2.266:381
2.266:372
2.266:389
2.270:411
2.270:385
2.270:308
2.270:279
2.270:325
2.270:343
2.285:334
2.285:294
2.290:294
2.290:349
2.290:392
2.291:370
2.291:380
2.291:380
2.291:394
2.291:403
2.291:386
2.295:352
2.295:313
2.295:336
2.295:361
2.295:367
2.295:382
2.295:395
2.295:402
2.295:373
2.295:396
2.298:471
2.298:497
2.298:469
2.298:439
2.298:431
2.298:441
2.298:451
2.299:433
2.299:420
2.315:420
2.319:405
2.319:388
2.319:368
2.319:364
2.319:360
2.319:356
2.319:356
2.319:360
2.319:337
2.323:333
2.323:341
2.323:386
2.323:426
2.323:433
2.323:489
2.323:543
2.323:577
2.323:533
2.323:491
2.327:491
2.327:475
2.327:428
2.327:343
2.327:290
2.327:287
2.327:284
2.327:248
2.328:291
2.330:390
2.347:442
2.347:443
2.347:422
2.348:384
2.348:337
2.348:340
2.348:408
2.352:491
2.352:485
2.352:481
2.352:511
2.352:513
2.352:444
2.352:387
2.352:343
2.352:282
2.356:267
2.356:293
2.356:327
2.356:365
2.356:398
2.356:366
2.356:358
2.356:416
2.356:473
2.356:506
2.360:502
2.360:497
2.360:500
2.360:494
2.375:494
2.377:493
2.377:473
2.377:444
2.377:405
2.377:399
2.380:395
2.381:400
2.381:457
2.381:469
2.381:452
2.381:409
2.381:402
2.381:431
2.381:440
2.381:406
2.384:396
2.384:433
2.384:488
2.385:546
2.385:568
2.385:571
2.385:545
2.385:495
2.385:437
2.389:410
2.389:414
2.389:435
2.389:458
2.389:425
2.405:397
2.405:406
2.405:408
2.409:414
2.409:419
2.409:403
2.409:387
2.409:379
2.409:347
2.409:388
2.409:454
2.409:494
2.413:481
2.413:485
2.413:484
2.413:497
2.413:472
2.413:433
2.413:422
2.413:444
2.413:456
2.413:466
2.418:497
2.418:473
2.418:457
2.418:448
2.418:458
2.418:461
2.418:485
2.418:533
2.434:533
2.434:540
2.438:548
2.438:563
2.438:551
2.438:568
2.438:556
2.438:524
2.438:521
2.439:489
2.439:466
2.439:442
2.442:460
2.442:508
2.442:530
2.442:525
2.442:482
2.442:481
2.442:513
2.442:548
2.442:554
2.447:471
2.447:369
2.447:364
2.447:397
2.447:380
2.447:373
2.448:378
2.448:388
2.448:386
2.466:375
2.466:371
2.466:362
2.467:375
2.467:441
2.467:483
2.467:491
2.467:484
2.471:486
2.471:524
2.471:549
2.471:526
2.471:516
2.471:524
2.471:532
2.471:543
2.471:556
2.471:516
2.475:448
2.475:391
2.475:338
2.475:332
2.475:389
2.475:446
2.475:476
2.475:470
2.475:461
2.479:442
2.479:452
2.479:488
2.495:488
2.495:560
2.495:621
2.495:621
2.495:591
2.495:529
2.495:500
2.499:484
2.499:468
2.499:439
2.499:400
2.500:407
2.500:441
2.500:436
2.500:434
2.500:444
2.500:478
2.504:487
2.504:508
2.504:578
2.504:575
2.504:514
2.504:514
2.504:529
2.504:535
2.504:537
2.508:503
2.508:505
2.508:532
2.508:563
2.523:527
2.523:453
2.523:423
2.523:428
2.528:456
2.528:440
2.528:420
2.528:410
2.528:424
2.528:479
2.529:519
2.529:506
2.529:516
2.529:516
2.532:500
2.532:490
2.532:496
2.532:521
2.532:533
2.532:498
2.532:462
2.533:448
2.533:429
2.536:435
2.536:479
2.536:536
2.536:547
2.536:523
2.536:464
2.536:415
2.552:415
2.552:385
2.552:376
2.557:411
2.557:470
2.557:466
2.557:459
2.557:414
2.557:377
2.557:372
2.557:353
2.557:353
2.557:374
2.561:400
2.561:419
2.561:423
2.561:429
2.561:506
2.561:593
2.561:622
2.561:584
2.561:526
2.565:474
2.565:495
2.565:520
2.565:485
2.565:469
2.565:480
2.565:529
2.565:571
2.585:572
2.585:578
2.585:499
2.585:459
2.585:439
2.585:409
2.585:398
2.585:424
2.585:478
2.585:528
2.589:502
2.589:471
2.589:524
2.589:550
2.589:521
2.589:490
2.589:474
2.589:467
2.589:456
2.594:435
2.594:413
2.594:404
2.594:409
2.594:438
2.594:453
2.594:471
2.594:489
2.594:497
2.594:518
2.598:519
2.613:519
2.613:528
2.615:528
2.615:549
2.615:546
2.615:502
2.615:465
2.615:456
2.615:435
2.618:440
2.618:450
2.618:445
2.618:460
2.618:462
2.618:471
2.618:458
2.618:452
2.618:456
2.622:460
2.622:475
2.622:501
2.622:518
2.622:548
2.622:577
2.622:532
2.622:482
2.622:468
2.622:454
2.626:430
2.626:385
2.642:351
2.642:352
2.642:371
2.643:374
2.643:392
2.643:387
2.646:405
2.646:475
2.646:527
2.647:568
2.647:556
2.647:562
2.647:566
2.647:590
2.647:573
2.651:499
2.651:472
2.651:484
2.651:495
2.651:522
2.651:544
2.651:550
2.651:558
2.651:541
2.651:509
2.654:492
2.654:492
2.655:462
2.655:457
2.655:469
2.671:469
2.671:465
2.671:459
2.671:471
2.671:493
2.675:474
2.675:437
2.675:412
2.675:429
2.676:428
2.676:387
2.676:397
2.676:433
2.676:433
2.679:465
2.680:466
2.680:441
2.680:455
2.680:472
2.680:488
2.680:502
2.681:489
2.681:500
2.681:502
2.683:480
2.683:497
2.683:496
2.684:489
2.684:521
2.684:518
2.699:507
2.704:521
2.704:518
2.704:514
2.704:507
2.704:484
2.704:473
2.704:461
2.704:452
2.704:479
2.704:527
2.708:562
2.708:578
2.708:548
2.708:512
2.708:473
2.708:481
2.708:484
2.708:449
2.708:398
2.708:399
2.712:425
2.712:438
2.712:457
2.712:438
2.712:488
2.712:534
2.713:544
2.713:544
2.713:522
2.728:522
2.733:507
2.733:502
2.733:537
2.733:588
2.733:558
2.733:514
2.733:484
2.734:487
2.734:469
2.736:444
2.736:434
2.736:427
2.736:402
2.736:400
2.737:425
2.737:423
2.737:402
2.737:386
2.737:377
2.740:373
2.740:387
2.740:419
2.740:482
2.740:530
2.741:601
2.741:644
2.741:672
2.741:692
2.744:602
2.760:519
2.760:497
2.760:513
2.761:498
2.761:486
2.761:476
2.761:461
2.766:467
2.766:459
2.766:452
2.766:490
2.767:519
2.767:477
2.767:451
2.767:460
2.767:499
2.770:510
2.770:491
2.770:433
2.770:367
2.770:377
2.770:412
2.770:422
2.770:415
2.770:418
2.770:428
2.774:454
2.774:477
2.774:490
2.774:496
2.790:496
2.790:507
2.790:528
2.790:522
2.790:484
2.790:489
2.794:532
2.794:603
2.794:669
2.794:661
2.794:585
2.794:548
2.794:547
2.794:589
2.794:586
2.794:533
2.799:460
2.799:433
2.799:456
2.799:491
2.799:534
2.799:484
2.799:454
2.799:460
2.799:470
2.802:460
2.802:460
2.802:477
2.802:494
2.802:499
2.818:506
2.818:509
2.818:519
2.823:514
2.823:469
2.823:438
2.823:406
2.823:403
2.823:418
2.823:455
2.823:485
2.823:466
2.826:470
2.826:463
2.826:481
2.826:496
2.826:474
2.826:429
2.826:410
2.826:405
2.826:420
2.826:405
2.831:422
2.831:462
2.831:456
2.832:461
2.832:512
2.832:547
2.832:560
2.832:552
2.847:552
2.847:566
2.852:584
2.852:536
2.852:460
2.852:428
2.852:449
2.852:499
2.852:513
2.852:513
2.852:525
2.856:554
2.856:569
2.856:518
2.856:446
2.856:426
2.856:436
2.857:448
2.857:445
2.857:419
2.857:391
2.860:384
2.860:408
2.860:446
2.860:482
2.860:516
2.860:580
2.860:655
2.860:659
2.861:617
2.879:555
2.879:507
2.880:496
2.880:514
2.880:507
2.880:483
2.880:454
2.881:443
2.884:443
2.884:444
2.884:438
2.884:463
2.884:465
2.884:495
2.884:506
2.884:490
2.885:438
2.885:404
2.888:398
2.888:423
2.888:458
2.888:471
2.888:517
2.889:530
2.889:514
2.889:501
2.889:498
2.892:497
2.892:505
2.892:496
2.909:496
2.909:448
2.909:447
2.909:453
2.909:462
2.909:482
2.909:503
2.912:528
2.913:558
2.913:561
2.913:558
2.913:545
2.913:465
2.913:448
2.913:437
2.913:448
2.913:406
2.917:420
2.917:476
2.917:479
2.917:469
2.917:470
2.917:486
2.917:494
2.917:486
2.917:463
2.921:474
2.921:484
2.921:539
2.921:560
2.937:537
2.937:523
2.937:510
2.937:482
2.942:446
2.942:465
2.942:440
2.942:431
2.942:424
2.942:403
2.942:398
2.942:419
2.942:442
2.942:405
2.945:400
2.945:423
2.946:536
2.946:645
2.946:687
2.946:630
2.946:569
2.946:550
2.946:534
2.949:507
2.950:465
2.950:449
2.950:463
2.950:480
2.950:487
2.950:477
2.966:477
2.966:465
2.966:478
2.970:523
2.970:529
2.970:516
2.970:487
2.970:490
2.970:528
2.970:562
2.970:607
2.970:605
2.970:595
2.975:544
2.975:500
2.975:511
2.975:528
2.975:533
2.975:505
2.975:435
2.975:359
2.975:370
2.979:429
2.979:486
2.979:504
2.980:491
2.980:492
2.980:528
2.980:563
2.980:572
2.999:552
2.999:517
2.999:468
3.000:433
3.000:426
3.000:449
3.000:461
3.000:466
3.000:443
3.000:403
3.003:392
3.003:417
3.003:477
3.003:522
3.003:491
3.003:475
3.003:486
3.003:517
3.003:577
3.007:618
3.007:652
3.007:641
3.007:599
3.007:559
3.007:523
3.007:496
3.007:464
3.007:467
3.007:482
3.010:485
3.027:485
3.027:501
3.027:499
3.027:442
3.027:416
3.027:432
3.027:441
3.027:506
3.027:576
3.031:591
3.031:592
3.032:576
3.032:569
3.032:564
3.032:575
3.032:585
3.032:580
3.032:565
3.036:499
3.036:452
3.036:443
3.036:425
3.036:405
3.036:409
3.036:441
3.036:475
3.036:497
3.036:503
3.040:492
3.040:439
3.056:437
3.056:428
3.056:392
3.056:404
3.056:408
3.061:389
3.061:411
3.061:428
3.061:440
3.061:456
3.061:454
3.061:463
3.061:461
3.061:480
3.061:484
3.064:502
3.064:489
3.064:515
3.064:565
3.064:561
3.065:517
3.065:491
3.065:497
3.065:538
3.065:502
3.068:493
3.068:506
3.068:503
3.068:464
3.068:450
3.085:450
3.085:447
3.085:421
3.085:426
3.085:444
3.089:489
3.089:499
3.089:496
3.089:507
3.089:511
3.089:530
3.089:576
3.089:603
3.089:608
3.093:543
3.093:483
3.093:470
3.093:454
3.093:443
3.093:405
3.093:356
3.093:330
3.093:325
3.093:366
3.096:430
3.096:462
3.096:440
3.096:422
3.096:435
3.096:465
3.113:495
3.118:521
3.118:509
3.118:484
3.118:470
3.118:468
3.118:480
3.118:487
3.118:486
3.118:466
3.118:441
3.122:439
3.122:440
3.122:483
3.122:507
3.122:554
3.122:597
3.122:583
3.122:537
3.122:544
3.125:542
3.125:486
3.126:433
3.126:429
3.126:445
3.126:467
3.126:483
3.126:520
3.126:615
3.126:691
3.142:691
3.146:723
3.146:719
3.146:731
3.146:697
3.146:694
3.146:769
3.146:817
3.146:832
3.146:835
3.150:862
3.150:882
3.150:903
3.150:922
3.150:935
3.150:986
3.150:989
3.150:989
3.150:989
3.150:989
3.153:989
3.153:990
3.155:982
3.155:989
3.155:990
3.155:887
3.155:789
3.155:703
3.155:607
3.158:540
3.175:522
3.175:479
3.175:417
3.175:336
3.175:333
3.175:337
3.175:291
3.178:269
3.179:267
3.179:285
3.179:289
3.179:268
3.179:240
3.179:237
3.179:269
3.180:319
3.183:352
3.183:398
3.183:431
3.183:438
3.183:446
3.183:444
3.183:443
3.183:444
3.183:455
3.183:454
3.187:451
3.187:493
3.187:532
3.187:539
3.203:539
3.203:512
3.203:430
3.203:380
3.203:374
3.203:363
3.208:338
3.208:321
3.208:300
3.208:322
3.208:376
3.208:401
3.208:391
3.208:394
3.208:397
3.208:405
3.212:415
3.212:425
3.212:438
3.212:412
3.212:420
3.212:436
3.212:449
3.212:449
3.212:438
3.215:449
3.215:461
3.215:460
3.215:464
3.215:481
3.232:507
3.232:502
3.232:475
3.236:445
3.236:436
3.236:431
3.236:474
3.236:553
3.236:566
3.236:515
3.236:477
3.237:458
3.241:433
3.241:447
3.241:457
3.241:436
3.241:416
3.241:414
3.241:428
3.241:443
3.241:450
3.241:496
3.245:524
3.246:527
3.246:517
3.246:493
3.246:499
3.246:471
3.246:454
3.246:490
3.261:490
3.261:497
3.265:463
3.265:446
3.265:400
3.265:364
3.265:383
3.265:429
3.266:450
3.266:447
3.266:455
3.269:493
3.269:525
3.269:482
3.269:469
3.269:486
3.269:511
3.269:506
3.269:508
3.269:514
3.269:514
3.273:482
3.273:476
3.273:492
3.273:506
3.273:497
3.273:503
3.273:486
3.273:466
3.273:462
3.293:506
3.293:548
3.293:570
3.293:561
3.293:570
3.293:593
3.293:579
3.293:519
3.298:451
3.298:441
3.298:450
3.298:487
3.298:490
3.298:441
3.298:458
3.298:541
3.299:557
3.299:502
3.301:472
3.302:497
3.302:535
3.302:560
3.302:553
3.302:515
3.302:471
3.302:457
3.302:488
3.306:533
3.306:518
3.306:485
3.321:485
3.321:483
3.322:463
3.322:472
3.322:528
3.322:566
3.322:574
3.327:559
3.327:520
3.327:489
3.327:474
3.327:505
3.327:523
3.327:555
3.327:568
3.327:532
3.327:491
3.330:479
3.330:527
3.330:539
3.331:502
3.331:460
3.331:446
3.331:449
3.331:477
3.331:517
3.335:537
3.335:516
3.335:509
3.335:565
3.351:611
3.351:605
3.351:606
3.351:613
3.355:646
3.355:655
3.355:650
3.355:577
3.355:496
3.355:483
3.355:516
3.355:561
3.355:586
3.355:572
3.358:567
3.358:552
3.358:552
3.359:551
3.359:547
3.359:558
3.359:566
3.359:549
3.359:523
3.363:539
3.363:586
3.364:640
3.364:663
3.364:633
3.364:572
3.364:545
3.379:545
3.379:571
3.379:603
3.384:575
3.384:543
3.384:534
3.384:546
3.384:563
3.384:542
3.384:534
3.384:583
3.384:612
3.384:629
3.388:602
3.388:589
3.388:591
3.388:589
3.388:590
3.388:572
3.388:564
3.388:588
3.388:586
3.392:567
3.392:522
3.392:493
3.392:477
3.392:500
3.392:549
3.392:598
3.392:653
3.413:691
3.413:707
3.413:679
3.413:652
3.413:675
3.413:667
3.413:644
3.413:652
3.413:641
3.416:635
3.417:616
3.417:602
3.417:597
3.417:592
3.417:565
3.417:538
3.417:542
3.417:552
3.417:531
3.421:519
3.421:552
3.421:566
3.421:561
3.421:562
3.421:573
3.421:578
3.421:568
3.421:530
3.421:485
3.424:482
3.441:482
3.441:479
3.441:466
3.441:488
3.441:530
3.441:522
3.441:481
3.441:467
3.441:485
3.445:462
3.445:424
3.446:411
3.446:424
3.446:474
3.446:521
3.446:545
3.446:573
3.446:561
3.449:519
3.449:460
3.449:397
3.449:374
3.450:386
3.450:392
3.450:385
3.450:388
3.450:393
3.450:398
3.453:420
3.453:432
3.469:444
3.469:458
3.469:474
3.470:501
3.470:492
3.474:451
3.474:388
3.474:375
3.474:366
3.474:362
3.474:356
3.474:340
3.474:315
3.474:288
3.474:285
3.478:333
3.479:368
3.479:339
3.479:306
3.479:336
3.479:391
3.480:406
3.480:384
3.480:381
3.482:391
3.482:396
3.482:404
3.482:406
3.482:408
3.482:401
3.498:401
3.498:355
3.498:324
3.498:343
3.498:333
3.502:307
3.502:280
3.503:289
3.503:298
3.503:328
3.503:391
3.503:420
3.503:417
3.503:396
3.507:370
3.507:351
3.507:338
3.507:349
3.507:376
3.507:403
3.507:432
3.507:474
3.507:447
3.507:431
3.510:428
3.510:440
3.511:430
3.511:418
3.511:393
3.511:356
3.526:316
3.531:311
3.531:330
3.531:367
3.531:407
3.531:416
3.531:424
3.531:414
3.531:367
3.531:329
3.531:314
3.536:327
3.536:347
3.536:407
3.536:461
3.536:438
3.536:368
3.536:331
3.536:386
3.536:418
3.540:420
3.540:393
3.540:381
3.540:375
3.540:415
3.540:461
3.540:489
3.540:452
3.540:424
3.540:437
3.560:437
3.560:475
3.560:509
3.560:489
3.560:446
3.560:433
3.560:440
3.560:445
3.560:448
3.560:419
3.563:383
3.563:366
3.563:369
3.563:363
3.563:364
3.563:366
3.563:372
3.563:425
3.565:456
3.565:448
3.568:445
3.568:457
3.568:464
3.568:460
3.568:432
3.568:440
3.568:461
3.568:473
3.569:478
3.572:438
3.588:369
3.588:320
3.588:340
3.588:379
3.588:397
3.588:416
3.588:425
3.593:460
3.593:485
3.593:501
3.593:494
3.593:523
3.593:525
3.593:510
3.593:510
3.593:506
3.596:489
3.596:488
3.596:499
3.596:494
3.596:463
3.596:412
3.597:379
3.597:394
3.597:425
3.597:448
3.601:460
3.601:481
3.601:500
3.601:495
3.617:495
3.617:474
3.617:450
3.617:425
3.617:397
3.617:385
3.621:417
3.621:441
3.621:422
3.621:402
3.621:407
3.621:436
3.621:474
3.621:518
3.621:520
3.625:489
3.626:453
3.626:421
3.626:420
3.626:438
3.626:463
3.626:489
3.626:435
3.626:388
3.626:391
3.629:399
3.629:405
3.629:426
3.630:420
3.630:381
3.645:366
3.645:389
3.645:432
3.649:473
3.649:535
3.649:578
3.649:555
3.649:542
3.650:554
3.650:549
3.650:519
3.650:502
3.654:482
3.654:467
3.654:479
3.654:476
3.654:455
3.654:415
3.654:389
3.654:389
3.654:403
3.654:404
3.658:406
3.658:432
3.658:488
3.658:518
3.658:532
3.658:535
3.658:558
3.658:567
3.674:567
3.674:523
3.678:491
3.679:513
3.679:520
3.679:512
3.679:511
3.679:515
3.679:501
3.680:501
3.680:523
3.682:510
3.682:473
3.682:462
3.682:473
3.682:497
3.682:499
3.682:477
3.682:494
3.682:526
3.683:518
3.687:483
3.687:466
3.687:469
3.687:468
3.687:457
3.687:454
3.687:465
3.687:441
3.687:397
3.707:377
3.707:394
3.707:414
3.707:423
3.707:441
3.707:458
3.707:465
3.707:464
3.711:483
3.712:506
3.712:487
3.712:446
3.712:396
3.712:403
3.713:432
3.713:449
3.713:467
3.713:490
3.715:488
3.715:475
3.715:468
3.715:469
3.715:483
3.715:488
3.716:482
3.716:495
3.716:515
3.719:523
3.719:534
3.719:567
3.736:567
3.736:566
3.736:524
3.736:511
3.736:531
3.736:524
3.736:471
3.740:475
3.740:489
3.740:492
3.740:493
3.740:472
3.740:457
3.740:454
3.740:452
3.740:435
3.740:419
3.745:404
3.745:439
3.745:521
3.745:561
3.745:537
3.745:507
3.745:513
3.745:497
3.745:465
3.748:450
3.748:461
3.748:488
3.748:476
3.764:465
3.764:464
3.764:469
3.764:468
3.769:464
3.769:449
3.769:451
3.769:465
3.769:450
3.769:470
3.769:492
3.769:486
3.769:483
3.769:515
3.773:541
3.773:540
3.773:520
3.773:482
3.773:475
3.773:493
3.773:507
3.773:472
3.773:461
3.776:475
3.776:503
3.776:520
3.777:515
3.777:494
3.777:478
3.777:470
3.793:470
3.793:482
3.793:543
3.797:575
3.797:544
3.797:501
3.797:506
3.797:500
3.797:466
3.797:461
3.797:426
3.797:386
3.797:371
3.801:368
3.801:369
3.801:387
3.801:401
3.801:435
3.801:490
3.801:531
3.801:537
3.801:523
3.806:510
3.806:490
3.806:451
3.806:445
3.806:435
3.806:427
3.806:419
3.806:405
3.825:390
3.826:429
3.826:445
3.826:441
3.826:443
3.826:472
3.826:513
3.826:518
3.826:513
3.829:522
3.830:519
3.830:513
3.830:516
3.830:491
3.830:483
3.830:491
3.830:463
3.830:442
3.830:459
3.834:494
3.834:501
3.834:495
3.834:501
3.834:518
3.834:524
3.834:477
3.834:434
3.834:413
3.834:433
3.837:475
3.854:475
3.854:519
3.854:542
3.854:560
3.854:564
3.854:546
3.854:508
3.854:482
3.854:475
3.859:471
3.859:468
3.859:463
3.859:464
3.859:473
3.859:471
3.859:462
3.859:464
3.859:503
3.862:559
3.863:602
3.863:622
3.863:620
3.863:573
3.863:548
3.863:515
3.863:516
3.863:509
3.863:478
3.866:474
3.866:477
3.883:461
3.883:440
3.883:434
3.883:410
3.883:408
3.887:417
3.887:410
3.887:401
3.887:397
3.887:376
3.887:383
3.887:427
3.887:465
3.887:514
3.887:520
3.892:513
3.892:517
3.892:516
3.892:546
3.892:534
3.892:495
3.892:471
3.892:429
3.892:429
3.895:465
3.896:470
3.896:448
3.896:437
3.896:458
3.896:476
3.911:476
3.911:469
3.911:464
3.911:465
3.916:474
3.916:444
3.916:419
3.916:432
3.916:478
3.917:514
3.917:513
3.917:503
3.917:478
3.917:467
3.919:487
3.920:513
3.920:479
3.920:437
3.920:430
3.920:421
3.920:455
3.920:515
3.920:564
3.920:558
3.923:558
3.923:541
3.923:546
3.923:547
3.923:528
3.923:527
3.940:507
3.945:461
3.945:426
3.946:432
3.946:457
3.946:461
3.946:489
3.946:478
3.946:437
3.946:419
3.946:441
3.949:445
3.949:436
3.949:426
3.949:451
3.949:488
3.949:529
3.949:532
3.949:518
3.950:517
3.953:512
3.953:507
3.953:493
3.953:508
3.953:526
3.953:491
3.953:449
3.953:442
3.953:452
3.953:457
3.974:457
3.974:458
3.974:457
3.974:492
3.974:497
3.974:472
3.974:498
3.974:540
3.974:557
3.974:547
3.978:540
3.978:499
3.979:468
3.979:454
3.979:441
3.979:446
3.979:486
3.979:471
3.979:454
3.982:464
3.982:473
3.982:474
3.982:475
3.982:507
3.982:503
3.982:503
3.982:526
3.982:547
3.982:526
3.986:467
4.002:419
4.002:440
4.002:446
4.002:421
4.002:429
4.002:458
4.003:474
4.006:487
4.006:475
4.006:443
4.006:440
4.006:463
4.006:472
4.006:466
4.007:475
4.007:495
4.010:503
4.011:502
4.011:522
4.012:515
4.012:513
4.012:493
4.012:465
4.012:449
4.012:427
4.012:403
4.014:415
4.014:464
4.014:480
4.014:483
4.031:483
4.031:451
4.031:442
4.031:466
4.031:527
4.031:571
4.035:602
4.035:586
4.035:565
4.035:520
4.035:465
4.035:437
4.035:450
4.035:466
4.035:439
4.039:467
4.039:522
4.039:505
4.039:483
4.039:478
4.039:491
4.039:493
4.039:470
4.039:433
4.039:454
4.043:490
4.043:528
4.043:521
4.043:510
4.043:531
4.059:540
4.059:532
4.059:510
4.063:491
4.063:463
4.063:462
4.063:462
4.063:425
4.063:388
4.063:382
4.063:409
4.063:438
4.068:445
4.068:437
4.068:473
4.068:511
4.068:536
4.068:515
4.068:515
4.068:534
4.068:548
4.068:548
4.072:523
4.072:511
4.072:467
4.072:463
4.072:492
4.072:550
4.072:548
4.072:507
4.087:507
4.088:506
4.092:514
4.092:518
4.092:534
4.092:502
4.092:440
4.092:431
4.092:437
4.092:471
4.092:503
4.095:486
4.095:493
4.095:498
4.095:488
4.097:447
4.097:447
4.097:463
4.097:480
4.097:463
4.097:475
4.100:477
4.100:489
4.100:528
4.100:535
4.100:542
4.100:519
4.100:510
4.100:494
4.101:489
4.120:480
4.120:459
4.120:445
4.120:431
4.120:421
4.120:420
4.121:447
4.121:482
4.125:479
4.125:459
4.125:466
4.125:475
4.125:510
4.125:553
4.125:594
4.125:615
4.126:591
4.126:566
4.129:546
4.129:551
4.129:573
4.129:562
4.129:543
4.129:520
4.129:520
4.130:495
4.130:513
4.133:524
4.133:503
4.133:460
4.149:460
4.149:444
4.149:472
4.149:498
4.149:501
4.150:509
4.150:522
4.154:500
4.154:513
4.154:555
4.154:573
4.154:570
4.154:534
4.154:533
4.154:515
4.154:489
4.154:508
4.157:551
4.157:516
4.157:455
4.157:430
4.157:449
4.157:481
4.157:507
4.157:514
4.157:520
4.162:500
4.162:512
4.162:538
4.162:514
4.178:491
4.178:509
4.178:492
4.178:441
4.182:396
4.182:392
4.182:391
4.182:403
4.182:415
4.182:429
4.182:451
4.182:479
4.182:514
4.183:526
4.186:519
4.186:495
4.186:515
4.187:504
4.187:465
4.187:446
4.187:461
4.187:480
4.187:484
4.190:481
4.190:455
4.190:444
4.190:401
4.190:378
4.190:407
4.191:413
4.206:413
4.206:416
4.206:427
4.211:437
4.211:453
4.211:478
4.211:479
4.211:490
4.211:477
4.211:461
4.212:475
4.212:457
4.212:429
4.215:428
4.215:435
4.215:434
4.215:449
4.215:468
4.215:506
4.216:521
4.216:471
4.216:448
4.219:457
4.219:515
4.219:548
4.219:540
4.219:525
4.219:507
4.219:449
4.219:433
4.240:435
4.240:440
4.240:428
4.240:427
4.240:483
4.240:546
4.240:592
4.240:597
4.240:608
4.244:580
4.245:539
4.245:511
4.245:492
4.245:472
4.245:473
4.245:487
4.246:528
4.246:552
4.246:553
4.248:526
4.248:505
4.248:510
4.248:500
4.248:462
4.248:445
4.248:435
4.248:445
4.248:462
4.248:477
4.251:517
4.268:517
4.268:526
4.268:523
4.268:516
4.268:513
4.268:491
4.268:489
4.268:505
4.268:561
4.272:598
4.272:629
4.272:657
4.272:687
4.272:751
4.272:795
4.272:834
4.272:845
4.272:841
4.276:838
4.276:842
4.276:815
4.277:807
4.277:818
4.277:836
4.277:904
4.277:969
4.277:990
4.278:989
4.280:990
4.280:990
4.297:990
4.297:990
4.297:990
4.297:982
4.297:894
4.301:836
4.301:754
4.301:657
4.301:512
4.301:395
4.301:309
4.301:256
4.301:262
4.301:283
4.301:309
4.305:339
4.305:363
4.305:387
4.305:400
4.305:414
4.305:440
4.305:431
4.306:401
4.306:367
4.309:339
4.309:317
4.309:306
4.309:285
4.309:292
4.309:337
4.325:337
4.325:364
4.325:354
4.325:356
4.330:394
4.330:428
4.330:395
4.330:369
4.330:405
4.330:468
4.330:495
4.330:516
4.330:546
4.330:542
4.334:481
4.334:411
4.334:375
4.334:357
4.334:364
4.334:381
4.334:393
4.334:379
4.334:370
4.338:421
4.338:460
4.338:486
4.338:499
4.338:509
4.338:524
4.338:518
4.353:476
4.358:451
4.358:443
4.358:425
4.358:413
4.358:388
4.358:376
4.358:407
4.359:429
4.359:436
4.359:461
4.362:486
4.362:492
4.362:496
4.362:513
4.362:507
4.363:471
4.363:435
4.363:417
4.363:421
4.366:432
4.366:449
4.366:437
4.366:444
4.366:462
4.366:455
4.366:442
4.366:428
4.367:458
4.367:474
4.387:474
4.387:473
4.387:452
4.387:422
4.387:429
4.387:443
4.388:468
4.388:485
4.388:480
4.388:478
4.391:470
4.391:441
4.391:465
4.391:488
4.391:510
4.391:507
4.392:460
4.392:440
4.392:416
4.395:381
4.395:398
4.396:423
4.396:449
4.396:499
4.396:526
4.396:551
4.396:585
4.396:578
4.396:571
4.399:583
4.415:586
4.415:579
4.415:585
4.415:550
4.415:541
4.415:545
4.415:550
4.420:547
4.420:527
4.420:540
4.420:535
4.420:512
4.420:482
4.420:462
4.420:458
4.420:461
4.423:465
4.423:475
4.423:500
4.423:528
4.423:564
4.425:590
4.425:589
4.425:552
4.425:526
4.425:480
4.428:431
4.428:462
4.429:487
4.429:470
4.444:470
4.444:457
4.444:442
4.444:420
4.444:416
4.445:415
4.448:405
4.448:427
4.448:439
4.449:465
4.449:483
4.449:526
4.449:584
4.449:598
4.449:590
4.453:611
4.453:616
4.453:593
4.453:617
4.453:615
4.453:536
4.453:445
4.453:409
4.453:409
4.453:441
4.457:494
4.457:502
4.457:511
4.457:521
4.457:523
4.472:514
4.472:541
4.472:554
4.477:575
4.477:561
4.477:527
4.477:490
4.477:486
4.477:508
4.477:534
4.478:571
4.478:591
4.481:606
4.481:596
4.481:604
4.481:611
4.481:622
4.481:623
4.481:587
4.481:574
4.481:571
4.482:595
4.485:600
4.485:571
4.485:594
4.485:627
4.485:653
4.485:635
4.485:598
4.485:587
4.501:587
4.501:561
4.505:525
4.505:518
4.506:522
4.506:529
4.506:528
4.506:503
4.506:516
4.506:540
4.506:550
4.510:540
4.510:569
4.510:601
4.510:645
4.510:684
4.510:674
4.511:662
4.511:636
4.511:625
4.511:582
4.514:517
4.514:535
4.514:577
4.514:599
4.514:603
4.514:609
4.514:616
4.514:641
4.514:624
4.534:611
4.534:574
4.535:568
4.535:562
4.535:564
4.535:568
4.535:560
4.535:525
4.539:531
4.539:549
4.539:595
4.539:626
4.539:614
4.539:627
4.539:630
4.539:598
4.539:592
4.539:569
4.542:566
4.542:594
4.542:635
4.542:643
4.542:663
4.542:658
4.542:663
4.542:665
4.542:671
4.546:652
4.546:636
4.546:663
4.563:663
4.563:671
4.563:665
4.563:612
4.563:551
4.563:552
4.563:546
4.567:547
4.567:581
4.567:596
4.567:595
4.567:591
4.567:574
4.567:578
4.567:581
4.567:550
4.567:509
4.570:498
4.570:500
4.570:449
4.570:426
4.571:436
4.571:454
4.571:430
4.571:387
4.571:329
4.575:313
4.575:331
4.575:348
4.575:361
4.591:363
4.591:368
4.591:401
4.591:459
4.596:481
4.596:495
4.596:483
4.596:480
4.596:484
4.596:467
4.596:459
4.596:444
4.596:372
4.600:307
4.600:266
4.600:240
4.600:212
4.600:220
4.600:261
4.600:295
4.600:292
4.600:322
4.600:371
4.604:410
4.604:383
4.604:350
4.604:357
4.604:332
4.604:320
4.604:306
4.620:306
4.620:318
4.620:369
4.625:378
4.625:389
4.625:381
4.625:342
4.625:334
4.625:372
4.625:400
4.625:424
4.625:429
4.625:429
4.628:408
4.628:387
4.628:373
4.628:398
4.628:417
4.628:446
4.628:462
4.628:416
4.628:388
4.633:335
4.633:306
4.633:271
4.633:273
4.633:273
4.633:269
4.633:288
4.633:306
4.653:346
4.653:383
4.653:395
4.653:409
4.653:443
4.653:441
4.653:424
4.653:414
4.653:402
4.657:396
4.657:399
4.657:415
4.657:404
4.657:406
4.657:395
4.657:382
4.657:368
4.658:334
4.658:296
4.661:316
4.661:391
4.661:427
4.661:468
4.661:484
4.662:496
4.662:457
4.662:402
4.662:373
4.665:364
4.665:376
4.682:376
4.682:357
4.682:295
4.682:284
4.682:357
4.682:402
4.682:404
4.683:406
4.686:432
4.686:426
4.686:382
4.686:367
4.686:354
4.686:346
4.686:371
4.686:414
4.686:462
4.686:470
4.690:459
4.690:485
4.690:512
4.690:491
4.690:466
4.690:446
4.690:431
4.690:417
4.690:395
4.690:374
4.693:383
4.693:393
4.710:398
4.710:384
4.710:406
4.710:399
4.710:364
4.715:398
4.715:451
4.715:474
4.715:483
4.715:467
4.715:462
4.715:460
4.715:458
4.715:449
4.715:429
4.719:428
4.719:431
4.719:437
4.719:413
4.719:392
4.719:395
4.719:418
4.719:410
4.719:403
4.723:396
4.723:421
4.723:467
4.723:498
4.723:464
4.723:445
4.739:445
4.739:443
4.739:434
4.739:442
4.743:467
4.743:491
4.743:502
4.743:473
4.745:449
4.745:448
4.745:449
4.745:445
4.745:473
4.745:489
4.748:484
4.748:475
4.748:470
4.748:463
4.748:499
4.748:545
4.748:580
4.748:551
4.748:495
4.751:465
4.751:433
4.751:410
4.751:369
4.751:361
4.751:397
4.751:393
4.767:390
4.772:399
4.772:418
4.772:405
4.772:432
4.772:428
4.772:428
4.772:431
4.772:471
4.772:526
4.772:573
4.776:587
4.776:554
4.776:514
4.776:498
4.776:482
4.776:472
4.776:455
4.776:433
4.777:434
4.780:453
4.780:482
4.780:526
4.780:545
4.780:532
4.780:525
4.780:523
4.780:510
4.780:513
4.780:535
4.801:535
4.801:581
4.801:582
4.801:516
4.801:480
4.801:464
4.801:430
4.801:401
4.801:377
4.801:348
4.805:314
4.805:320
4.805:354
4.805:378
4.805:422
4.805:501
4.805:511
4.805:475
4.805:439
4.809:476
4.809:514
4.809:527
4.809:533
4.809:488
4.809:451
4.809:432
4.809:453
4.809:473
4.809:462
4.813:461
4.828:444
4.829:437
4.829:444
4.829:467
4.829:463
4.829:441
4.829:424
4.833:451
4.833:467
4.833:447
4.833:474
4.833:510
4.833:530
4.833:508
4.833:515
4.833:517
4.837:508
4.837:499
4.837:489
4.837:488
4.837:496
4.837:491
4.837:478
4.837:471
4.837:453
4.838:438
4.841:409
4.841:407
4.841:426
4.841:439
4.858:439
4.858:430
4.858:429
4.858:441
4.858:433
4.858:430
4.862:427
4.862:415
4.862:431
4.862:492
4.862:529
4.862:557
4.862:572
4.862:557
4.862:524
4.866:513
4.866:513
4.866:497
4.866:487
4.866:489
4.866:479
4.866:467
4.867:475
4.867:482
4.867:491
4.870:503
4.870:509
4.870:523
4.870:520
4.870:499
4.886:462
4.886:440
4.891:409
4.891:406
4.891:437
4.891:448
4.891:462
4.891:471
4.891:483
4.891:467
4.891:480
4.891:485
4.895:469
4.895:446
4.895:451
4.895:515
4.895:556
4.895:523
4.895:477
4.895:456
4.896:443
4.896:419
4.898:425
4.898:437
4.899:440
4.899:444
4.899:446
4.899:479
4.899:501
4.899:502
4.915:502
4.915:515
4.919:498
4.919:447
4.919:407
4.919:385
4.919:397
4.919:434
4.919:455
4.919:462
4.919:476
4.924:468
4.924:478
4.924:510
4.924:521
4.924:511
4.924:497
4.924:495
4.924:483
4.924:491
4.924:511
4.927:555
4.927:560
4.927:525
4.927:503
4.927:440
4.927:385
4.927:381
4.927:396
4.927:424
4.947:446
4.948:455
4.948:443
4.948:430
4.948:431
4.948:456
4.948:518
4.948:579
4.952:591
4.952:590
4.952:575
4.952:538
4.952:502
4.952:467
4.952:431
4.952:440
4.952:460
4.956:486
4.956:495
4.956:477
4.956:474
4.956:487
4.956:487
4.956:494
4.956:513
4.957:525
4.957:507
4.960:476
4.960:499
4.960:500
4.976:500
4.976:476
4.976:456
4.977:462
4.977:480
4.977:533
4.977:549
4.981:524
4.981:502
4.981:462
4.981:403
4.981:405
4.981:455
4.981:475
4.981:502
4.982:514
4.982:479
4.984:443
4.985:417
4.985:457
4.985:514
4.985:514
4.985:493
4.985:490
4.985:489
4.985:476
4.989:454
4.989:459
4.989:490
4.989:512
5.005:478
5.005:439
5.005:432
5.005:458
5.009:465
5.009:471
5.011:484
5.011:490
5.011:518
5.011:516
5.011:496
5.011:474
5.011:482
5.014:503
5.014:524
5.014:539
5.014:513
5.014:475
5.014:463
5.014:444
5.014:431
5.014:439
5.014:435
5.018:417
5.018:390
5.018:366
5.018:410
5.018:442
5.018:478
5.018:510
5.034:510
5.034:540
5.034:524
5.038:508
5.038:487
5.038:454
5.038:403
5.038:410
5.038:430
5.038:454
5.038:470
5.038:501
5.038:520
5.041:484
5.041:448
5.041:441
5.042:468
5.042:504
5.042:545
5.042:565
5.042:538
5.042:531
5.046:557
5.046:527
5.046:493
5.046:482
5.046:476
5.046:464
5.046:457
5.046:442
5.067:451
5.067:457
5.067:454
5.067:439
5.067:423
5.067:411
5.067:440
5.067:505
5.067:549
5.071:571
5.071:575
5.071:561
5.071:573
5.071:581
5.071:570
5.071:550
5.071:528
5.071:516
5.071:512
5.075:483
5.075:462
5.075:460
5.075:458
5.075:451
5.075:441
5.075:427
5.075:409
5.075:434
5.079:474
5.079:508
5.095:508
5.095:483
5.095:474
5.095:484
5.095:496
5.095:493
5.095:478
5.095:480
5.100:503
5.100:497
5.100:455
5.100:456
5.100:472
5.100:486
5.100:507
5.100:507
5.100:498
5.100:478
5.104:496
5.104:527
5.104:549
5.104:539
5.104:517
5.104:510
5.104:513
5.104:511
5.104:481
5.108:469
5.108:464
5.108:430
5.124:420
5.124:434
5.124:510
5.124:535
5.124:500
5.128:469
5.128:462
5.128:467
5.128:479
5.128:454
5.128:431
5.128:448
5.129:479
5.129:474
5.129:466
5.132:480
5.132:458
5.132:460
5.132:456
5.133:456
5.133:469
5.133:497
5.133:506
5.133:476
5.136:419
5.137:379
5.137:379
5.137:440
5.137:471
5.137:497
5.152:497
5.152:521
5.152:542
5.152:542
5.156:545
5.156:563
5.156:587
5.156:563
5.156:529
5.157:498
5.157:482
5.157:480
5.157:495
5.157:461
5.161:435
5.161:436
5.161:442
5.161:466
5.162:481
5.162:468
5.162:466
5.162:490
5.162:498
5.165:489
5.165:478
5.165:455
5.165:451
5.165:453
5.165:505
5.165:520
5.181:513
5.186:485
5.186:484
5.186:442
5.186:415
5.186:440
5.186:481
5.186:508
5.186:547
5.186:553
5.186:540
5.189:515
5.189:516
5.189:551
5.190:585
5.190:591
5.190:568
5.190:532
5.190:493
5.190:468
5.193:474
5.194:483
5.194:481
5.194:465
5.194:456
5.194:470
5.194:460
5.194:469
5.195:474
5.195:508
5.214:508
5.214:527
5.214:504
5.214:495
5.214:517
5.214:563
5.214:579
5.214:553
5.214:510
5.214:484
5.218:484
5.218:499
5.218:512
5.218:488
5.218:470
5.218:488
5.218:494
5.218:490
5.219:521
5.222:544
5.222:566
5.222:572
5.222:559
5.222:566
5.222:566
5.222:567
5.223:568
5.223:569
5.223:557
5.226:543
5.242:522
5.242:507
5.243:524
5.243:525
5.243:510
5.243:472
5.243:402
5.246:354
5.246:377
5.246:417
5.246:458
5.246:475
5.246:481
5.246:489
5.247:508
5.247:497
5.251:463
5.251:446
5.251:450
5.251:478
5.251:531
5.251:547
5.251:524
5.251:526
5.251:520
5.252:490
5.255:458
5.255:433
5.255:423
5.255:434
5.271:434
5.271:366
5.271:299
5.271:324
5.271:364
5.271:405
5.275:407
5.275:366
5.275:352
5.275:374
5.275:414
5.275:447
5.275:483
5.275:527
5.275:535
5.280:499
5.280:485
5.280:485
5.280:486
5.280:452
5.280:445
5.280:464
5.280:466
5.280:429
5.280:416
5.284:416
5.284:423
5.284:431
5.284:427
5.284:417
5.299:430
5.300:463
5.305:488
5.305:524
5.305:547
5.305:532
5.305:516
5.305:497
5.305:452
5.305:421
5.305:425
5.305:449
5.308:509
5.308:544
5.308:538
5.308:549
5.308:557
5.308:540
5.308:533
5.308:468
5.308:447
5.309:449
5.312:457
5.312:472
5.312:494
5.312:523
5.312:521
5.312:461
5.312:410
5.312:389
5.328:389
5.328:396
5.332:398
5.332:446
5.332:506
5.332:543
5.332:533
5.332:511
5.333:485
5.333:495
5.333:510
5.337:506
5.337:494
5.337:511
5.337:534
5.338:524
5.338:516
5.338:513
5.338:506
5.339:474
5.339:513
5.341:581
5.341:584
5.341:573
5.341:587
5.342:647
5.342:673
5.342:670
5.342:665
5.342:661
5.361:673
5.361:677
5.361:700
5.361:758
5.361:836
5.361:935
5.361:990
5.361:989
5.366:988
5.366:989
5.366:989
5.366:989
5.366:989
5.366:989
5.366:988
5.367:988
5.367:989
5.370:989
5.370:905
5.370:813
5.370:726
5.370:667
5.370:569
5.370:451
5.370:378
5.370:307
5.371:241
5.374:212
5.374:206
5.374:226
5.390:226
5.390:258
5.390:253
5.390:255
5.390:300
5.390:329
5.390:340
5.394:368
5.395:382
5.395:356
5.395:337
5.395:348
5.395:346
5.395:337
5.395:344
5.396:361
5.396:338
5.398:294
5.398:299
5.398:291
5.398:297
5.398:307
5.399:328
5.399:352
5.399:396
5.399:446
5.402:490
5.402:488
5.402:504
5.402:494
5.418:468
5.419:447
5.419:407
5.419:347
5.423:337
5.423:371
5.423:380
5.423:347
5.423:334
5.423:361
5.423:363
5.423:355
5.424:332
5.427:347
5.427:442
5.428:550
5.428:620
5.428:588
5.428:514
5.428:469
5.428:454
5.428:435
5.429:398
5.431:396
5.431:447
5.431:483
5.431:470
5.431:446
5.431:448
5.431:442
5.447:442
5.447:415
5.447:401
5.451:404
5.451:441
5.451:481
5.451:491
5.451:477
5.451:471
5.453:477
5.453:510
5.453:528
5.456:554
5.456:530
5.456:459
5.457:406
5.457:416
5.457:450
5.457:458
5.457:415
5.457:376
5.457:377
5.460:392
5.461:424
5.461:456
5.462:490
5.462:521
5.462:516
5.462:504
5.462:489
5.480:482
5.480:508
5.480:524
5.480:516
5.480:457
5.480:421
5.480:462
5.481:465
5.481:473
5.485:496
5.485:517
5.485:531
5.485:504
5.485:480
5.485:453
5.485:481
5.485:494
5.485:507
5.486:569
5.489:613
5.489:583
5.489:571
5.489:584
5.489:575
5.489:555
5.490:543
5.490:527
5.490:518
5.492:471
5.493:426
5.509:426
5.509:412
5.509:402
5.509:413
5.509:440
5.509:465
5.509:482
5.509:489
5.513:488
5.513:512
5.513:555
5.513:582
5.513:591
5.513:612
5.513:576
5.513:521
5.513:503
5.513:507
5.517:525
5.518:526
5.518:527
5.518:541
5.518:548
5.518:544
5.518:526
5.518:514
5.518:511
5.521:515
5.521:499
5.521:510
5.537:548
5.537:601
5.537:623
5.537:607
5.537:630
5.542:616
5.542:563
5.542:532
5.542:517
5.542:488
5.543:460
5.543:448
5.543:453
5.544:508
5.544:562
5.545:579
5.546:555
5.546:525
5.546:523
5.546:545
5.546:558
5.546:554
5.546:554
5.546:543
5.550:524
5.550:508
5.550:510
5.550:503
5.550:504
5.550:509
5.566:509
5.566:525
5.566:556
5.566:583
5.570:585
5.570:601
5.570:594
5.570:583
5.570:607
5.570:654
5.572:687
5.572:675
5.572:628
5.572:603
5.575:613
5.575:602
5.575:596
5.575:610
5.575:634
5.575:647
5.576:630
5.577:606
5.577:583
5.578:562
5.578:574
5.579:591
5.579:594
5.579:578
5.579:572
5.579:571
5.593:555
5.598:566
5.599:590
5.599:603
5.599:604
5.599:592
5.599:612
5.599:627
5.599:597
5.599:611
5.599:642
5.602:653
5.602:679
5.602:683
5.602:690
5.603:678
5.603:626
5.603:585
5.603:578
5.603:603
5.607:647
5.607:669
5.607:664
5.607:665
5.607:659
5.607:651
5.607:620
5.607:592
5.607:565
5.607:545
5.627:545
5.627:567
5.627:581
5.627:586
5.628:625
5.628:654
5.628:626
5.628:584
5.628:569
5.628:558
5.631:533
5.631:532
5.632:566
5.632:604
5.632:633
5.632:646
5.632:598
5.632:546
5.632:542
5.636:533
5.636:536
5.636:529
5.636:511
5.636:508
5.636:487
5.636:504
5.637:544
5.637:560
5.637:554
5.640:543
5.655:542
5.655:563
5.655:579
5.656:557
5.656:516
5.656:477
5.660:461
5.661:447
5.661:426
5.661:429
5.661:408
5.661:397
5.661:413
5.661:410
5.661:392
5.661:394
5.665:419
5.665:418
5.665:410
5.665:376
5.665:347
5.665:333
5.665:345
5.665:372
5.665:380
5.665:359
5.668:346
5.668:323
5.668:294
5.668:305
5.685:305
5.685:323
5.685:312
5.685:278
5.685:269
5.685:280
5.689:315
5.689:400
5.689:415
5.689:401
5.689:432
5.689:468
5.689:466
5.689:410
5.689:369
5.693:383
5.693:405
5.694:389
5.694:352
5.694:351
5.694:346
5.694:312
5.694:284
5.694:287
5.695:321
5.696:337
5.696:330
5.696:324
5.696:345
5.696:372
5.713:367
5.713:397
5.718:435
5.718:452
5.718:480
5.718:474
5.718:470
5.718:486
5.718:468
5.718:423
5.718:378
5.718:352
5.722:347
5.722:363
5.722:350
5.722:341
5.722:320
5.722:310
5.722:304
5.722:343
5.722:415
5.726:437
5.727:412
5.727:376
5.727:361
5.727:383
5.727:465
5.727:493
5.727:461
5.727:442
5.741:442
5.742:435
5.746:420
5.746:376
5.746:347
5.746:343
5.746:308
5.747:317
5.747:358
5.747:410
5.747:432
5.751:422
5.751:385
5.751:412
5.751:445
5.751:455
5.751:440
5.751:405
5.751:368
5.751:346
5.751:326
5.753:320
5.753:332
5.753:349
5.755:358
5.755:351
5.755:360
5.755:393
5.755:416
5.755:437
5.775:449
5.775:454
5.775:457
5.775:480
5.775:512
5.775:528
5.775:553
5.775:551
5.779:503
5.779:420
5.779:376
5.779:374
5.779:376
5.779:370
5.779:397
5.779:409
5.779:421
5.783:447
5.783:487
5.783:488
5.783:481
5.783:473
5.783:460
5.783:474
5.783:513
5.783:518
5.783:519
5.787:505
5.787:500
5.787:463
5.803:463
5.803:423
5.803:441
5.803:425
5.803:417
5.803:398
5.803:368
5.808:352
5.808:374
5.808:425
5.808:459
5.808:458
5.808:461
5.808:478
5.808:466
5.808:449
5.812:424
5.812:427
5.812:427
5.812:439
5.812:444
5.812:453
5.812:495
5.812:495
5.812:473
5.812:451
5.816:453
5.816:457
5.816:439
5.816:417
5.832:405
5.832:375
5.832:366
5.832:408
5.836:479
5.836:557
5.836:601
5.836:585
5.836:542
5.836:535
5.836:506
5.836:481
5.836:484
5.841:475
5.841:444
5.841:407
5.841:395
5.841:407
5.841:411
5.841:407
5.841:451
5.841:451
5.841:478
5.843:500
5.845:540
5.845:540
5.845:506
5.845:452
5.845:403
5.845:393
5.861:393
5.861:427
5.861:450
5.865:481
5.865:501
5.865:499
5.865:486
5.865:471
5.865:472
5.865:482
5.865:486
5.865:501
5.869:521
5.869:497
5.869:462
5.869:443
5.869:468
5.869:475
5.869:452
5.869:448
5.869:483
5.869:499
5.873:470
5.873:418
5.873:359
5.873:340
5.873:395
5.873:434
5.873:440
5.873:482
5.894:528
5.894:552
5.894:556
5.894:522
5.894:509
5.894:548
5.894:582
5.894:545
5.894:512
5.898:499
5.898:482
5.898:470
5.898:434
5.898:408
5.898:401
5.898:381
5.898:373
5.898:350
5.898:357
5.902:385
5.902:438
5.902:464
5.902:489
5.902:528
5.902:541
5.902:532
5.902:530
5.903:510
5.906:542
5.906:603
5.922:603
5.922:601
5.922:566
5.922:532
5.922:500
5.922:463
5.922:430
5.922:416
5.926:416
5.926:400
5.927:419
5.927:447
5.927:454
5.927:462
5.927:493
5.927:507
5.927:506
5.927:509
5.931:511
5.931:505
5.931:515
5.931:519
5.931:522
5.931:543
5.931:571
5.931:565
5.931:503
5.935:418
5.935:360
5.935:314
5.950:318
5.950:358
5.951:393
5.951:421
5.951:443
5.955:455
5.955:439
5.955:446
5.955:476
5.955:459
5.955:432
5.955:448
5.955:470
5.956:484
5.956:504
5.959:544
5.959:555
5.959:482
5.959:450
5.959:434
5.959:418
5.959:440
5.959:457
5.959:449
5.963:467
5.963:492
5.963:528
5.963:551
5.963:564
5.963:596
5.979:596
5.979:628
5.979:642
5.979:632
5.984:555
5.984:492
5.984:456
5.985:429
5.985:431
5.985:412
5.985:394
5.985:396
5.985:396
5.985:397
5.988:443
5.988:491
5.988:489
5.988:461
5.988:449
5.988:494
5.988:537
5.988:547
5.988:538
5.992:527
5.993:517
5.993:490
5.993:448
5.993:432
5.993:394
5.994:380
6.007:409
6.013:456
6.013:489
6.013:506
6.013:518
6.013:535
6.013:513
6.013:473
6.013:453
6.014:435
6.014:418
6.016:406
6.016:410
6.016:441
6.016:481
6.016:484
6.016:466
6.016:472
6.017:454
6.017:444
6.021:441
6.021:454
6.021:471
6.021:512
6.021:530
6.021:541
6.021:560
6.021:547
6.021:559
6.022:558
6.041:558
6.041:534
6.041:519
6.041:510
6.041:518
6.041:517
6.041:500
6.041:475
6.041:464
6.041:454
6.045:463
6.045:464
6.045:450
6.045:443
6.045:452
6.045:478
6.045:514
6.045:535
6.045:531
6.050:531
6.050:537
6.050:543
6.050:557
6.050:537
6.050:500
6.050:456
6.050:441
6.050:464
6.050:438
6.054:387
6.070:340
6.070:326
6.070:343
6.070:351
6.070:361
6.070:398
6.074:449
6.074:481
6.074:522
6.074:551
6.074:545
6.074:550
6.074:544
6.074:511
6.074:513
6.074:532
6.078:557
6.078:581
6.078:572
6.078:515
6.078:463
6.078:434
6.078:419
6.078:422
6.078:451
6.078:481
6.081:494
6.081:508
6.081:527
6.081:559
6.099:559
6.099:549
6.099:527
6.099:509
6.099:477
6.099:449
6.103:432
6.103:467
6.103:447
6.103:419
6.103:389
6.103:405
6.103:448
6.103:492
6.103:484
6.107:488
6.107:498
6.107:493
6.107:508
6.107:526
6.107:537
6.107:566
6.107:601
6.107:604
6.107:591
6.110:561
6.110:539
6.110:510
6.110:470
6.110:440
6.127:419
6.127:399
6.131:383
6.131:402
6.131:443
6.131:477
6.131:499
6.131:519
6.131:534
6.131:556
6.131:566
6.131:544
6.136:524
6.136:502
6.136:475
6.136:422
6.136:385
6.136:363
6.136:336
6.136:293
6.137:297
6.140:338
6.140:374
6.140:364
6.140:361
6.140:408
6.140:456
6.140:488
6.140:490
6.140:516
6.156:516
6.160:599
6.160:676
6.160:705
6.160:679
6.160:624
6.160:604
6.160:605
6.160:572
6.160:504
6.160:456
6.164:428
6.164:405
6.164:394
6.164:436
6.164:467
6.164:466
6.165:448
6.165:493
6.165:527
6.165:505
6.167:450
6.168:446
6.168:456
6.168:462
6.168:443
6.168:444
6.168:464
6.168:483
6.168:457
6.188:438
6.188:460
6.188:491
6.188:512
6.188:522
6.188:507
6.188:505
6.188:531
6.193:564
6.193:565
6.193:546
6.193:546
6.193:541
6.194:527
6.194:503
6.194:468
6.194:447
6.196:410
6.196:353
6.197:318
6.197:331
6.197:381
6.197:415
6.197:451
6.197:463
6.197:477
6.197:518
6.201:555
6.201:542
6.201:536
6.217:536
6.217:547
6.217:545
6.217:530
6.217:524
6.218:531
6.218:542
6.222:520
6.222:483
6.222:454
6.222:490
6.222:485
6.222:428
6.222:371
6.222:345
6.222:370
6.226:402
6.227:464
6.227:519
6.227:536
6.227:571
6.227:604
6.227:629
6.228:601
6.228:580
6.228:565
6.229:545
6.229:535
6.229:559
6.229:543
6.245:490
6.245:440
6.245:428
6.245:426
6.250:403
6.250:421
6.250:475
6.250:492
6.251:477
6.251:468
6.251:472
6.251:498
6.251:534
6.253:529
6.253:495
6.253:484
6.253:485
6.255:484
6.255:482
6.255:470
6.255:441
6.255:429
6.255:413
6.258:426
6.258:446
6.258:471
6.258:509
6.259:529
6.259:510
6.259:477
6.274:477
6.274:481
6.274:482
6.279:504
6.279:524
6.279:541
6.279:541
6.279:542
6.279:499
6.279:446
6.279:419
6.279:398
6.283:426
6.283:439
6.283:463
6.283:468
6.283:485
6.283:492
6.283:509
6.283:521
6.283:497
6.283:485
6.287:494
6.287:514
6.287:534
6.287:546
6.287:535
6.287:526
6.287:521
6.287:522
6.307:482
6.307:446
6.307:446
6.307:468
6.307:477
6.307:463
6.308:481
6.308:502
6.308:529
6.312:564
6.312:563
6.312:512
6.312:501
6.312:499
6.312:502
6.312:501
6.312:468
6.312:485
6.312:499
6.315:480
6.315:470
6.315:467
6.315:431
6.315:364
6.315:371
6.315:384
6.315:363
6.316:344
6.319:401
6.319:497
6.336:497
6.336:536
6.336:564
6.336:595
6.336:594
6.336:540
6.336:505
6.336:493
6.340:485
6.340:476
6.340:496
6.340:514
6.340:500
6.340:490
6.340:476
6.340:479
6.340:530
6.340:547
6.344:565
6.344:585
6.344:600
6.344:592
6.344:559
6.344:529
6.344:527
6.344:521
6.345:522
6.348:524
6.348:503
6.348:461
6.364:433
6.364:417
6.364:390
6.365:384
6.365:381
6.369:413
6.369:468
6.369:497
6.369:555
6.369:627
6.369:665
6.369:648
6.369:624
6.369:617
6.369:613
6.373:613
6.373:574
6.373:527
6.373:501
6.373:489
6.373:475
6.373:462
6.373:451
6.373:456
6.377:483
6.377:516
6.377:513
6.377:498
6.377:467
6.377:469
6.393:469
6.393:512
6.393:547
6.393:560
6.397:549
6.397:530
6.397:503
6.397:502
6.397:489
6.397:448
6.397:416
6.397:428
6.397:457
6.397:443
6.401:383
6.401:342
6.401:377
6.401:415
6.401:450
6.401:430
6.401:449
6.401:479
6.401:497
6.406:488
6.406:482
6.406:513
6.406:542
6.406:537
6.406:506
6.406:447
6.421:409
6.426:406
6.427:414
6.427:426
6.427:436
6.427:441
6.427:457
6.427:460
6.427:474
6.427:492
6.430:484
6.430:468
6.430:444
6.430:432
6.430:441
6.430:462
6.430:467
6.430:466
6.430:472
6.430:479
6.435:500
6.435:526
6.435:552
6.435:570
6.435:552
6.435:504
6.435:442
6.435:411
6.435:407
6.435:403
6.455:403
6.455:388
6.455:400
6.455:463
6.455:525
6.455:530
6.455:565
6.455:587
6.455:596
6.456:575
6.459:536
6.459:487
6.459:470
6.459:456
6.459:445
6.459:446
6.459:456
6.460:490
6.460:493
6.463:489
6.463:483
6.463:494
6.463:534
6.463:565
6.463:577
6.463:565
6.463:558
6.463:564
6.463:577
6.467:576
6.483:557
6.483:553
6.483:581
6.483:621
6.483:642
6.483:678
6.488:727
6.488:761
6.488:741
6.488:745
6.488:784
6.488:815
6.488:802
6.488:794
6.488:830
6.488:848
6.492:870
6.492:894
6.492:933
6.492:972
6.492:981
6.492:982
6.492:987
6.492:989
6.492:989
6.496:989
6.496:952
6.496:862
6.496:813
6.496:755
6.512:755
6.512:693
6.512:627
6.512:569
6.512:510
6.516:465
6.516:433
6.516:419
6.516:405
6.516:403
6.516:384
6.516:363
6.516:337
6.517:301
6.517:269
6.520:253
6.520:249
6.520:241
6.520:249
6.520:313
6.520:368
6.520:393
6.520:402
6.520:396
6.520:429
6.523:446
6.523:427
6.523:416
6.523:419
6.523:429
6.541:420
6.541:406
6.545:382
6.545:368
6.545:363
6.545:380
6.545:384
6.545:384
6.545:407
6.545:414
6.546:407
6.546:416
6.549:437
6.549:438
6.549:441
6.549:462
6.549:480
6.549:493
6.549:475
6.549:481
6.550:480
6.553:475
6.553:460
6.553:456
6.553:463
6.553:441
6.553:425
6.553:416
6.553:428
6.553:409
6.568:409
6.574:382
6.574:396
6.574:398
6.574:351
6.574:294
6.574:273
6.574:299
6.574:403
6.575:492
6.575:560
6.578:561
6.578:528
6.578:508
6.578:527
6.578:526
6.578:467
6.578:437
6.578:433
6.578:429
6.582:421
6.582:431
6.582:450
6.582:474
6.582:505
6.582:494
6.582:454
6.582:433
6.582:459
6.582:495
6.602:497
6.602:491
6.602:482
6.602:458
6.602:468
6.602:490
6.602:501
6.602:495
6.606:476
6.606:464
6.606:451
6.606:438
6.606:463
6.606:503
6.606:530
6.607:534
6.607:546
6.611:543
6.611:544
6.611:529
6.611:533
6.611:535
6.611:518
6.611:493
6.611:476
6.611:481
6.611:473
6.615:465
6.615:434
6.615:403
6.631:403
6.631:383
6.631:377
6.631:414
6.631:458
6.631:506
6.631:507
6.635:479
6.635:466
6.635:523
6.635:570
6.635:564
6.635:537
6.635:514
6.635:513
6.635:516
6.639:505
6.639:481
6.639:466
6.639:475
6.639:497
6.639:487
6.639:483
6.639:478
6.639:457
6.639:462
6.643:460
6.643:446
6.643:464
6.643:515
6.659:519
6.659:539
6.659:563
6.659:579
6.663:600
6.663:595
6.663:556
6.663:538
6.663:518
6.663:530
6.663:532
6.663:527
6.663:515
6.668:483
6.668:461
6.668:488
6.668:541
6.668:608
6.668:634
6.668:628
6.668:579
6.668:541
6.668:518
6.671:506
6.671:475
6.671:470
6.671:495
6.672:499
6.672:494
6.672:497
6.688:497
6.688:504
6.688:495
6.692:480
6.692:486
6.692:501
6.692:505
6.693:526
6.693:570
6.693:624
6.693:660
6.693:662
6.696:653
6.696:615
6.696:575
6.697:532
6.697:524
6.697:542
6.697:560
6.697:532
6.697:505
6.697:512
6.701:523
6.701:548
6.701:572
6.701:601
6.701:629
6.701:644
6.701:638
6.701:650
6.720:646
6.721:619
6.721:586
6.721:552
6.721:558
6.721:563
6.721:550
6.721:570
6.721:596
6.725:615
6.725:586
6.725:567
6.727:569
6.727:539
6.727:526
6.727:561
6.727:611
6.727:635
6.727:642
6.729:640
6.729:627
6.729:601
6.729:582
6.729:590
6.729:608
6.729:616
6.730:589
6.730:576
6.732:569
6.733:546
6.749:546
6.749:516
6.749:493
6.749:500
6.749:523
6.749:568
6.749:601
6.749:610
6.754:599
6.754:581
6.754:618
6.754:680
6.754:731
6.754:758
6.754:742
6.754:735
6.754:707
6.754:635
6.759:597
6.759:579
6.759:578
6.759:577
6.759:580
6.759:567
6.760:565
6.760:607
6.760:624
6.762:598
6.762:583
6.762:584
6.777:570
6.778:556
6.778:517
6.778:508
6.778:523
6.783:516
6.783:467
6.783:480
6.783:493
6.783:487
6.783:470
6.783:452
6.783:452
6.783:465
6.783:475
6.786:479
6.786:535
6.786:582
6.786:568
6.786:524
6.786:500
6.786:481
6.786:479
6.786:514
6.791:512
6.791:494
6.791:479
6.791:423
6.791:376
6.791:367
6.807:367
6.807:350
6.807:333
6.807:299
6.811:273
6.811:260
6.811:267
6.811:304
6.811:324
6.811:325
6.811:333
6.811:384
6.811:406
6.812:396
6.815:412
6.815:468
6.815:472
6.815:458
6.815:436
6.815:409
6.816:361
6.816:305
6.816:279
6.819:284
6.819:297
6.819:300
6.819:302
6.820:290
6.820:263
6.820:273
6.835:335
6.840:390
6.840:425
6.840:434
6.840:428
6.840:440
6.840:453
6.840:446
6.840:427
6.840:373
6.844:332
6.844:292
6.844:300
6.844:326
6.844:330
6.844:336
6.844:355
6.845:360
6.845:356
6.845:350
6.848:407
6.848:429
6.848:435
6.848:437
6.848:443
6.848:451
6.848:454
6.848:427
6.848:391
6.848:368
6.869:368
6.869:346
6.869:322
6.869:299
6.869:278
6.869:267
6.869:280
6.869:320
6.869:358
6.873:372
6.873:396
6.873:428
6.873:431
6.873:454
6.873:471
6.873:475
6.873:475
6.873:461
6.873:423
6.876:377
6.876:361
6.876:384
6.876:385
6.876:377
6.876:395
6.877:399
6.877:405
6.877:417
6.877:429
6.880:429
6.896:430
6.897:447
6.897:462
6.897:479
6.897:480
6.897:481
6.901:480
6.901:463
6.901:461
6.901:454
6.901:429
6.901:415
6.901:388
6.901:369
6.901:395
6.901:426
6.905:463
6.905:490
6.905:448
6.905:419
6.905:391
6.905:356
6.905:337
6.905:350
6.905:376
6.908:408
6.909:415
6.909:411
6.909:423
6.909:431
6.926:431
6.926:441
6.926:435
6.926:412
6.926:415
6.930:426
6.930:427
6.930:426
6.930:431
6.930:422
6.930:418
6.930:440
6.930:482
6.930:498
6.930:473
6.934:440
6.934:474
6.934:477
6.934:461
6.935:442
6.935:428
6.935:438
6.935:465
6.935:512
6.938:515
6.938:474
6.938:443
6.938:422
6.938:407
6.938:412
6.954:439
6.954:455
6.958:452
6.959:454
6.959:450
6.959:456
6.959:461
6.959:434
6.959:417
6.959:401
6.959:381
6.959:367
6.963:372
6.963:388
6.963:382
6.963:376
6.963:369
6.963:391
6.963:443
6.963:463
6.963:475
6.967:486
6.967:502
6.967:537
6.967:599
6.967:658
6.967:657
6.967:614
6.967:571
6.967:500
6.983:500
6.987:441
6.987:400
6.987:379
6.987:372
6.987:445
6.987:472
6.987:468
6.987:461
6.987:450
6.987:441
6.992:438
6.992:454
6.992:452
6.992:465
6.992:499
6.992:526
6.992:539
6.992:545
6.993:552
6.995:536
6.995:505
6.995:469
6.995:452
6.995:469
6.995:490
6.995:460
6.995:441
6.995:451
6.995:459
7.016:492
7.016:493
7.016:464
7.016:487
7.016:492
7.016:463
7.016:484
7.016:516
7.020:504
7.020:455
7.020:448
7.020:448
7.020:444
7.020:448
7.020:458
7.020:441
7.020:424
7.024:422
7.024:426
7.024:427
7.024:432
7.024:437
7.024:466
7.024:521
7.024:521
7.025:489
7.025:461
7.028:461
7.028:471
7.028:464
7.043:464
7.043:454
7.043:479
7.043:503
7.045:515
7.045:537
7.045:494
7.049:442
7.049:414
7.049:425
7.049:464
7.049:486
7.049:484
7.049:502
7.049:507
7.049:508
7.053:538
7.053:540
7.053:491
7.053:435
7.053:383
7.053:366
7.053:363
7.053:404
7.053:439
7.053:471
7.056:490
7.056:492
7.056:486
7.056:460
7.072:464
7.073:497
7.073:481
7.073:419
7.077:400
7.077:396
7.077:388
7.077:414
7.077:472
7.077:488
7.077:496
7.077:491
7.077:481
7.082:469
7.082:492
7.082:512
7.082:540
7.082:559
7.082:534
7.082:518
7.082:521
7.082:552
7.082:576
7.085:586
7.085:565
7.085:548
7.085:546
7.085:534
7.085:511
7.085:495
7.101:495
7.102:485
7.102:499
7.105:517
7.105:515
7.106:492
7.106:445
7.106:390
7.106:370
7.106:373
7.106:382
7.106:427
7.110:467
7.110:472
7.110:468
7.110:466
7.110:476
7.110:440
7.110:431
7.110:458
7.110:473
7.110:472
7.114:465
7.114:438
7.115:413
7.115:395
7.115:430
7.115:487
7.115:548
7.115:575
7.134:532
7.135:488
7.135:470
7.135:468
7.135:481
7.135:474
7.135:492
7.135:514
7.135:524
7.139:516
7.139:492
7.139:474
7.139:476
7.139:476
7.139:452
7.139:431
7.139:411
7.139:390
7.139:410
7.143:430
7.143:452
7.143:492
7.143:476
7.143:406
7.143:379
7.143:369
7.143:407
7.143:450
7.146:522
7.146:590
7.163:590
7.163:591
7.163:583
7.163:554
7.163:534
7.163:516
7.163:538
7.163:580
7.167:588
7.167:557
7.167:495
7.167:497
7.167:540
7.167:577
7.167:553
7.167:492
7.168:434
7.168:411
7.171:432
7.171:450
7.171:453
7.171:458
7.171:472
7.171:479
7.171:483
7.171:475
7.171:441
7.175:414
7.175:423
7.175:426
7.191:432
7.191:458
7.191:480
7.191:494
7.192:482
7.196:469
7.196:475
7.196:509
7.196:515
7.196:527
7.196:523
7.197:520
7.197:518
7.197:506
7.200:496
7.200:449
7.200:411
7.200:425
7.200:426
7.200:422
7.200:435
7.200:439
7.200:446
7.200:459
7.204:489
7.204:502
7.204:489
7.205:489
7.205:508
7.205:518
7.220:518
7.220:498
7.220:478
7.220:477
7.225:528
7.225:543
7.226:506
7.226:480
7.226:446
7.226:437
7.226:424
7.226:421
7.226:436
7.226:475
7.228:470
7.228:436
7.228:439
7.228:460
7.229:507
7.229:519
7.229:506
7.229:478
7.229:459
7.233:443
7.233:471
7.233:502
7.233:526
7.233:553
7.233:543
7.233:480
7.249:431
7.253:459
7.253:470
7.253:494
7.253:553
7.253:575
7.253:562
7.253:547
7.253:548
7.253:548
7.257:544
7.257:509
7.257:492
7.257:482
7.258:500
7.258:503
7.258:482
7.258:426
7.258:394
7.258:400
7.262:439
7.262:475
7.262:481
7.262:457
7.262:437
7.262:438
7.262:431
7.262:420
7.262:458
7.265:499
7.282:499
7.282:508
7.282:507
7.282:526
7.282:549
7.282:550
7.282:516
7.282:511
7.282:533
7.286:496
7.286:475
7.286:471
7.286:495
7.286:485
7.286:498
7.286:500
7.286:444
7.286:393
7.286:396
7.290:407
7.290:436
7.290:495
7.291:537
7.291:534
7.291:553
7.291:561
7.291:525
7.291:502
7.291:485
7.294:461
7.310:443
7.310:459
7.310:489
7.310:487
7.310:466
7.310:477
7.315:485
7.315:484
7.315:492
7.315:507
7.315:530
7.315:533
7.315:510
7.315:502
7.315:501
7.315:480
7.319:450
7.319:451
7.319:470
7.319:448
7.319:411
7.319:386
7.319:427
7.319:480
7.319:473
7.323:473
7.323:471
7.323:484
7.323:502
7.323:519
7.338:519
7.338:514
7.338:503
7.338:482
7.338:469
7.343:521
7.343:557
7.343:551
7.343:509
7.343:462
7.343:401
7.343:399
7.343:431
7.343:457
7.343:454
7.348:416
7.348:422
7.348:428
7.348:469
7.348:527
7.348:549
7.348:558
7.348:566
7.348:566
7.352:555
7.352:529
7.352:496
7.352:482
7.352:477
7.352:478
7.368:460
7.368:472
7.372:490
7.372:487
7.372:512
7.372:501
7.372:477
7.372:468
7.372:502
7.372:521
7.372:496
7.372:460
7.376:476
7.376:514
7.376:520
7.376:513
7.376:510
7.376:514
7.376:515
7.377:499
7.377:485
7.380:450
7.380:413
7.380:378
7.380:348
7.380:388
7.380:450
7.380:481
7.380:500
7.380:512
7.395:512
7.401:500
7.401:508
7.401:521
7.401:526
7.401:509
7.401:515
7.401:541
7.401:559
7.401:559
7.401:542
7.405:518
7.405:487
7.405:457
7.405:462
7.405:487
7.405:498
7.405:483
7.405:464
7.405:443
7.408:422
7.408:429
7.409:450
7.409:458
7.409:479
7.409:493
7.409:480
7.409:473
7.409:445
7.409:397
7.429:378
7.429:384
7.429:422
7.429:437
7.429:445
7.429:470
7.429:467
7.429:488
7.433:528
7.433:555
7.433:556
7.433:560
7.433:565
7.434:547
7.434:545
7.434:558
7.434:515
7.438:454
7.438:445
7.438:465
7.438:496
7.438:484
7.438:451
7.438:441
7.438:437
7.438:447
7.438:457
7.441:473
7.441:503
7.442:543
7.458:543
7.458:554
7.458:550
7.458:531
7.459:534
7.459:525
7.459:502
7.462:503
7.462:514
7.462:484
7.462:459
7.462:441
7.462:409
7.462:401
7.462:391
7.462:386
7.466:421
7.466:470
7.466:499
7.467:481
7.467:492
7.467:499
7.467:486
7.467:496
7.467:531
7.467:594
7.470:588
7.470:522
7.470:472
7.470:444
7.486:443
7.486:482
7.486:512
7.491:535
7.491:554
7.491:545
7.491:480
7.491:448
7.491:467
7.492:462
7.492:469
7.492:454
7.492:492
7.495:535
7.495:559
7.495:538
7.495:513
7.495:495
7.495:483
7.495:446
7.495:440
7.495:452
7.495:451
7.498:455
7.498:459
7.498:457
7.498:465
7.498:486
7.499:537
7.499:567
7.515:567
7.515:594
7.515:588
7.519:590
7.519:573
7.519:563
7.519:559
7.519:536
7.519:535
7.519:550
7.519:555
7.519:544
7.524:539
7.524:511
7.524:508
7.524:500
7.524:458
7.524:421
7.524:447
7.525:529
7.525:574
7.525:541
7.528:477
7.528:482
7.528:496
7.528:507
7.528:485
7.528:461
7.528:474
7.528:504
7.547:533
7.548:530
7.548:496
7.548:471
7.548:474
7.548:458
7.548:456
7.548:483
7.548:504
7.552:528
7.552:541
7.552:525
7.552:483
7.552:476
7.552:493
7.552:483
7.552:460
7.552:450
7.556:476
7.556:489
7.556:501
7.556:490
7.556:436
7.556:411
7.556:431
7.556:459
7.557:450
7.557:431
7.560:410
7.560:395
7.576:395
7.576:363
7.577:362
7.577:393
7.577:428
7.577:435
7.577:423
7.577:454
7.581:528
7.581:604
7.581:628
7.581:590
7.581:544
7.581:519
7.581:478
7.581:428
7.581:400
7.581:386
7.585:400
7.585:454
7.585:485
7.585:477
7.585:444
7.585:419
7.585:446
7.585:499
7.585:537
7.589:542
7.589:548
7.589:514
7.605:468
7.605:453
7.605:437
7.605:446
7.605:441
7.610:455
7.610:481
7.610:478
7.610:430
7.610:424
7.610:477
7.610:520
7.610:523
7.610:489
7.614:477
7.614:473
7.614:463
7.614:490
7.614:535
7.614:527
7.614:486
7.614:480
7.614:452
7.614:447
7.618:463
7.618:517
7.618:531
7.618:491
7.618:454
7.618:436
7.634:436
7.634:460
7.634:488
7.634:524
7.638:536
7.638:524
7.638:522
7.638:546
7.638:559
7.638:592
7.638:621
7.638:640
7.638:657
7.638:666
7.641:655
7.641:649
7.642:653
7.642:671
7.642:711
7.642:748
7.642:801
7.642:860
7.642:864
7.646:870
7.646:892
7.646:931
7.646:955
7.646:966
7.647:990
7.647:989
7.662:989
7.667:989
7.667:989
7.667:990
7.667:989
7.667:983
7.667:908
7.667:827
7.667:781
7.667:770
7.671:705
7.671:589
7.671:487
7.671:420
7.671:395
7.671:406
7.671:407
7.671:406
7.671:367
7.671:329
7.675:315
7.675:283
7.675:268
7.676:266
7.676:279
7.676:275
7.676:259
7.676:283
7.676:338
7.679:392
7.696:392
7.696:439
7.696:454
7.696:403
7.696:337
7.696:343
7.696:396
7.696:437
7.696:458
7.700:491
7.700:486
7.700:457
7.700:410
7.700:392
7.700:348
7.700:319
7.700:335
7.700:333
7.700:345
7.704:362
7.704:370
7.704:413
7.704:473
7.704:491
7.704:491
7.704:476
7.704:462
7.704:441
7.704:438
7.708:466
7.724:503
7.725:514
7.725:496
7.725:452
7.725:410
7.725:386
7.728:359
7.728:372
7.728:418
7.728:438
7.728:447
7.729:435
7.729:445
7.729:482
7.729:481
7.729:476
7.731:471
7.732:465
7.732:477
7.732:489
7.732:456
7.732:432
7.732:428
7.732:410
7.732:371
7.736:373
7.736:394
7.736:424
7.736:448
7.736:459
7.752:459
7.753:473
7.753:478
7.753:488
7.753:498
7.757:502
7.757:479
7.757:468
7.757:491
7.757:511
7.757:519
7.757:521
7.758:508
7.758:491
7.758:489
7.761:497
7.761:490
7.761:471
7.761:455
7.761:447
7.761:467
7.761:486
7.761:513
7.761:526
7.765:516
7.765:520
7.765:522
7.765:524
7.765:499
7.765:494
7.781:498
7.781:525
7.786:547
7.786:530
7.786:526
7.786:516
7.786:522
7.786:496
7.786:440
7.786:368
7.786:343
7.787:365
7.790:385
7.790:433
7.790:489
7.790:527
7.790:561
7.790:569
7.790:555
7.790:554
7.790:538
7.794:543
7.794:531
7.794:503
7.794:500
7.794:492
7.794:498
7.794:505
7.794:488
7.794:478
7.809:478
7.815:485
7.815:463
7.815:485
7.815:499
7.815:464
7.815:464
7.815:466
7.815:497
7.815:538
7.815:558
7.818:548
7.818:484
7.818:463
7.818:435
7.818:443
7.818:465
7.818:471
7.818:492
7.818:545
7.823:567
7.823:538
7.823:523
7.823:538
7.823:574
7.823:621
7.823:659
7.823:676
7.823:674
7.823:625
7.843:600
7.843:578
7.843:534
7.843:501
7.843:488
7.843:481
7.843:493
7.843:519
7.846:501
7.846:502
7.846:530
7.846:545
7.846:530
7.846:512
7.846:524
7.847:522
7.847:530
7.851:525
7.851:500
7.851:524
7.851:562
7.851:594
7.851:610
7.851:624
7.851:611
7.851:604
7.851:616
7.855:618
7.855:579
7.855:561
7.871:561
7.871:572
7.871:587
7.871:582
7.871:550
7.871:539
7.871:534
7.875:553
7.875:597
7.876:623
7.876:653
7.876:633
7.876:615
7.876:593
7.876:576
7.876:552
7.880:537
7.880:491
7.880:486
7.880:490
7.880:475
7.880:495
7.880:564
7.880:610
7.880:626
7.880:669
7.884:707
7.884:722
7.884:684
7.884:672
7.899:662
7.899:626
7.900:601
7.905:604
7.905:625
7.905:616
7.905:597
7.905:586
7.905:582
7.905:570
7.905:582
7.905:590
7.905:590
7.909:585
7.909:573
7.909:601
7.909:630
7.909:639
7.909:627
7.909:629
7.909:646
7.909:663
7.909:640
7.912:628
7.912:646
7.912:661
7.913:640
7.913:618
7.913:593
7.913:553
7.929:553
7.929:535
7.929:514
7.932:509
7.932:520
7.932:562
7.932:604
7.933:610
7.933:621
7.933:616
7.933:595
7.933:603
7.937:608
7.937:577
7.937:560
7.937:550
7.937:539
7.937:527
7.937:527
7.937:533
7.937:514
7.937:492
7.940:475
7.941:456
7.941:427
7.941:395
7.941:412
7.941:470
7.941:517
7.941:525
7.961:492
7.961:455
7.961:477
7.961:473
7.961:432
7.961:404
7.961:376
7.961:362
7.961:341
7.966:326
7.966:337
7.966:334
7.966:314
7.966:308
7.966:307
7.966:307
7.967:325
7.967:354
7.970:393
7.970:409
7.970:432
7.970:470
7.970:501
7.970:479
7.970:439
7.970:395
7.970:335
7.970:314
7.973:310
7.973:323
7.989:323
7.989:324
7.989:321
7.990:319
7.990:303
7.990:272
7.990:270
7.990:295
7.995:303
7.995:295
7.995:288
7.995:334
7.995:371
7.995:403
7.995:417
7.995:391
7.995:367
7.995:363
7.998:377
7.999:377
7.999:401
7.999:450
7.999:476
7.999:452
7.999:449
7.999:415
7.999:374
8.003:380
8.003:403
8.003:426
8.019:432
8.019:400
8.019:372
8.019:354
8.019:365
8.023:359
8.023:346
8.023:338
8.023:343
8.024:327
8.025:322
8.025:285
8.025:284
8.025:276
8.027:285
8.027:324
8.027:367
8.027:403
8.027:426
8.027:383
8.027:363
8.027:383
8.027:390
8.027:400
8.031:408
8.031:406
8.031:396
8.031:388
8.031:410
8.031:427
8.047:427
8.047:440
8.047:447
8.047:463
8.052:440
8.052:394
8.052:357
8.052:361
8.052:380
8.052:407
8.052:427
8.053:402
8.053:392
8.056:392
8.056:405
8.056:388
8.056:380
8.056:387
8.056:375
8.057:386
8.057:394
8.057:394
8.058:374
8.060:390
8.060:407
8.060:419
8.060:425
8.060:424
8.060:427
8.060:440
8.076:426
8.081:422
8.081:448
8.081:444
8.081:425
8.081:408
8.081:425
8.081:463
8.081:482
8.081:515
8.083:505
8.085:473
8.085:434
8.085:437
8.085:451
8.085:482
8.085:482
8.085:431
8.085:403
8.085:406
8.089:392
8.089:399
8.089:431
8.089:442
8.089:448
8.089:436
8.089:448
8.089:454
8.089:436
8.092:448
8.109:448
8.109:480
8.109:494
8.109:469
8.109:454
8.109:454
8.109:451
8.109:443
8.109:416
8.113:405
8.113:415
8.113:428
8.113:430
8.113:451
8.113:457
8.113:444
8.113:414
8.113:423
8.113:436
8.117:452
8.117:482
8.117:467
8.117:454
8.117:485
8.117:522
8.117:537
8.117:520
8.117:472
8.121:455
8.121:461
8.137:454
8.137:416
8.137:391
8.137:415
8.137:455
8.137:468
8.141:502
8.141:506
8.141:521
8.141:516
8.141:489
8.141:446
8.141:443
8.142:411
8.142:408
8.142:412
8.145:434
8.146:440
8.146:435
8.146:460
8.146:508
8.146:513
8.146:488
8.146:483
8.146:491
8.150:497
8.150:505
8.150:502
8.150:480
8.150:451
8.166:451
8.166:439
8.166:450
8.166:467
8.166:428
8.171:405
8.171:368
8.171:323
8.171:355
8.171:407
8.171:489
8.171:512
8.171:464
8.171:456
8.171:495
8.175:515
8.175:540
8.175:555
8.175:557
8.175:547
8.176:498
8.176:472
8.176:507
8.176:532
8.178:522
8.178:502
8.178:463
8.178:436
8.178:410
8.178:414
8.193:409
8.193:402
8.199:386
8.199:395
8.199:439
8.199:478
8.199:499
8.199:530
8.199:530
8.199:500
8.199:490
8.199:483
8.202:486
8.202:481
8.202:468
8.203:449
8.203:417
8.203:452
8.203:493
8.203:515
8.203:510
8.207:485
8.207:440
8.207:431
8.208:471
8.208:535
8.208:579
8.208:576
8.208:545
8.208:517
8.223:517
8.228:482
8.228:497
8.228:502
8.228:454
8.228:410
8.228:421
8.228:443
8.228:445
8.228:443
8.228:462
8.231:466
8.231:486
8.231:503
8.231:499
8.231:483
8.231:491
8.231:491
8.231:457
8.232:444
8.236:438
8.236:437
8.236:407
8.236:399
8.236:445
8.236:491
8.236:508
8.237:463
8.237:440
8.237:449
8.256:480
8.256:465
8.256:447
8.256:446
8.256:436
8.256:440
8.256:450
8.256:476
8.260:475
8.260:487
8.260:503
8.260:492
8.260:475
8.260:469
8.260:496
8.260:488
8.260:458
8.265:424
8.265:408
8.265:404
8.265:409
8.265:446
8.265:482
8.265:495
8.265:501
8.265:529
8.266:551
8.268:563
8.269:551
8.269:569
8.285:569
8.285:570
8.285:538
8.285:506
8.285:485
8.285:461
8.285:418
8.289:408
8.289:412
8.289:455
8.289:479
8.289:497
8.289:510
8.289:506
8.289:513
8.289:523
8.293:514
8.293:509
8.293:488
8.293:471
8.293:459
8.293:464
8.293:439
8.293:403
8.293:369
8.293:387
8.297:414
8.297:434
8.297:441
8.297:435
8.313:420
8.313:404
8.313:415
8.318:451
8.318:501
8.318:560
8.318:616
8.318:641
8.318:645
8.318:616
8.318:566
8.318:507
8.318:437
8.322:400
8.322:408
8.322:424
8.322:419
8.322:449
8.322:507
8.322:526
8.322:512
8.322:499
8.326:482
8.326:500
8.326:537
8.326:555
8.326:578
8.326:591
8.326:557
8.327:536
8.342:536
8.342:529
8.346:512
8.346:492
8.346:456
8.346:428
8.346:439
8.346:480
8.346:479
8.346:454
8.346:450
8.346:444
8.351:439
8.351:424
8.351:427
8.351:422
8.351:439
8.351:470
8.351:487
8.351:482
8.351:501
8.351:462
8.354:423
8.354:414
8.354:412
8.355:439
8.355:477
8.355:500
8.355:527
8.355:505
8.375:472
8.375:455
8.375:463
8.375:502
8.375:514
8.375:496
8.375:465
8.375:468
8.375:490
8.379:536
8.379:577
8.379:563
8.379:526
8.379:501
8.379:492
8.379:472
8.379:458
8.379:460
8.383:425
8.383:382
8.383:382
8.383:400
8.383:419
8.383:463
8.383:503
8.383:548
8.383:550
8.383:559
8.387:544
8.387:530
8.404:530
8.404:527
8.404:535
8.404:548
8.404:530
8.404:500
8.404:497
8.404:503
8.408:478
8.408:462
8.408:465
8.408:467
8.408:428
8.408:392
8.408:401
8.408:438
8.408:483
8.412:530
8.412:565
8.412:551
8.412:502
8.412:509
8.412:537
8.412:532
8.412:508
8.412:483
8.412:446
8.416:424
8.416:404
8.416:415
8.432:441
8.432:477
8.432:470
8.432:462
8.432:438
8.436:463
8.436:521
8.436:536
8.436:518
8.437:503
8.437:517
8.437:529
8.437:524
8.437:507
8.440:502
8.441:484
8.441:465
8.441:447
8.441:403
8.441:383
8.441:402
8.441:418
8.441:426
8.441:440
8.445:454
8.445:500
8.445:534
8.445:514
8.445:503
8.445:503
8.460:503
8.460:462
8.460:449
8.461:451
8.465:423
8.465:384
8.465:368
8.465:425
8.465:504
8.465:564
8.465:575
8.465:559
8.465:564
8.470:550
8.470:501
8.470:477
8.470:471
8.470:451
8.470:438
8.470:445
8.470:487
8.470:522
8.470:530
8.473:537
8.473:565
8.473:584
8.475:536
8.475:499
8.475:506
8.475:517
8.489:497
8.493:480
8.493:444
8.493:414
8.493:435
8.493:464
8.493:481
8.493:473
8.493:452
8.493:455
8.498:486
8.498:520
8.498:528
8.498:522
8.498:520
8.498:507
8.498:473
8.498:493
8.498:532
8.498:531
8.502:519
8.502:463
8.502:420
8.502:413
8.502:400
8.502:423
8.502:430
8.502:444
8.502:456
8.506:474
8.523:474
8.523:468
8.524:457
8.524:448
8.524:452
8.524:457
8.525:465
8.525:515
8.525:542
8.527:562
8.527:565
8.527:565
8.527:542
8.527:500
8.527:463
8.527:446
8.527:471
8.527:502
8.527:523
8.531:496
8.531:482
8.531:496
8.531:551
8.531:577
8.531:559
8.531:514
8.531:453
8.531:415
8.535:418
8.535:422
8.550:408
8.550:406
8.550:400
8.551:397
8.551:388
8.551:415
8.556:496
8.556:551
8.556:564
8.556:553
8.556:529
8.556:509
8.556:529
8.556:541
8.556:554
8.556:540
8.559:501
8.559:472
8.559:467
8.559:468
8.559:455
8.559:466
8.559:463
8.560:462
8.560:453
8.563:430
8.563:430
8.563:468
8.563:507
8.563:523
8.579:523
8.579:543
8.580:549
8.580:575
8.580:572
8.584:548
8.585:532
8.585:494
8.585:430
8.585:402
8.585:422
8.585:457
8.585:459
8.585:422
8.585:429
8.588:488
8.588:513
8.588:517
8.588:527
8.588:552
8.588:566
8.588:553
8.588:525
8.588:486
8.592:462
8.592:461
8.592:452
8.592:445
8.592:460
8.592:460
8.608:438
8.608:412
8.613:370
8.613:341
8.613:332
8.613:339
8.613:367
8.613:410
8.613:425
8.613:417
8.613:426
8.613:463
8.617:516
8.617:567
8.617:601
8.617:607
8.617:565
8.617:557
8.617:548
8.617:547
8.617:520
8.621:503
8.621:519
8.621:505
8.621:491
8.621:476
8.621:478
8.621:477
8.621:473
8.621:463
8.637:463
8.641:489
8.641:516
8.641:538
8.641:559
8.641:522
8.642:491
8.642:487
8.642:520
8.642:528
8.642:538
8.645:563
8.645:583
8.645:571
8.646:527
8.646:500
8.646:505
8.646:517
8.646:519
8.646:506
8.650:488
8.650:481
8.650:501
8.650:529
8.650:527
8.650:521
8.650:510
8.650:498
8.650:496
8.650:484
8.670:484
8.670:510
8.670:543
8.670:533
8.670:506
8.670:514
8.670:524
8.673:514
8.673:514
8.675:513
8.675:516
8.675:516
8.675:533
8.675:577
8.675:598
8.675:562
8.675:515
8.678:476
8.678:448
8.678:433
8.678:418
8.678:414
8.678:436
8.678:444
8.678:459
8.678:472
8.679:466
8.681:422
8.681:433
8.681:483
8.698:483
8.698:493
8.698:499
8.698:520
8.698:538
8.698:552
8.698:550
8.702:549
8.702:530
8.702:517
8.702:512
8.702:513
8.702:503
8.702:480
8.702:448
8.702:477
8.706:504
8.707:492
8.707:474
8.707:455
8.707:445
8.707:433
8.707:466
8.707:474
8.707:452
8.707:440
8.710:440
8.710:448
8.710:481
8.710:495
8.727:488
8.727:463
8.727:468
8.731:484
8.731:463
8.731:445
8.731:429
8.731:428
8.731:454
8.731:480
8.732:450
8.732:433
8.732:452
8.736:462
8.736:487
8.736:476
8.736:441
8.736:437
8.736:476
8.736:514
8.736:499
8.737:475
8.740:446
8.741:458
8.741:489
8.741:514
8.741:495
8.741:493
8.741:505
8.741:509
8.756:509
8.756:475
8.760:445
8.760:450
8.760:460
8.760:470
8.760:476
8.760:482
8.760:499
8.760:501
8.760:477
8.760:468
8.764:470
8.765:513
8.765:523
8.765:480
8.765:426
8.765:402
8.765:377
8.765:393
8.765:426
8.765:469
8.768:488
8.768:483
8.768:493
8.768:518
8.768:507
8.768:507
8.768:509
8.769:530
8.789:542
8.789:529
8.789:523
8.789:529
8.789:545
8.789:549
8.789:563
8.789:569
8.789:549
8.793:545
8.793:563
8.793:598
8.793:634
8.793:691
8.793:703
8.793:692
8.793:689
8.793:693
8.797:715
8.797:731
8.797:727
8.797:706
8.797:699
8.797:728
8.797:768
8.797:799
8.797:850
8.797:884
8.801:891
8.801:920
8.817:920
8.817:968
8.817:990
8.817:989
8.817:989
8.817:989
8.817:989
8.817:989
8.822:973
8.822:919
8.822:887
8.822:850
8.822:741
8.822:605
8.822:518
8.822:495
8.822:450
8.826:387
8.826:361
8.826:382
8.826:358
8.826:342
8.826:334
8.826:342
8.826:334
8.826:298
8.826:264
8.830:254
8.830:287
8.830:349
8.845:375
8.846:408
8.846:386
8.846:383
8.846:368
8.850:358
8.850:379
8.850:393
8.850:419
8.850:458
8.850:466
8.850:473
8.850:452
8.850:428
8.855:445
8.855:465
8.855:462
8.855:448
8.855:455
8.855:468
8.855:430
8.855:393
8.855:382
8.855:407
8.858:432
8.858:432
8.858:400
8.858:384
8.858:389
8.858:383
8.874:383
8.874:378
8.875:400
8.875:427
8.879:473
8.879:488
8.879:480
8.879:506
8.879:524
8.879:547
8.879:562
8.879:533
8.879:485
8.883:451
8.883:430
8.883:383
8.883:374
8.883:364
8.883:397
8.883:415
8.883:413
8.883:417
8.883:414
8.887:397
8.887:389
8.887:411
8.887:425
8.887:415
8.887:388
8.887:391
8.903:419
8.907:447
8.907:445
8.907:386
8.908:361
8.908:362
8.908:406
8.908:417
8.908:451
8.908:497
8.912:528
8.912:532
8.912:534
8.912:561
8.912:562
8.912:561
8.912:553
8.912:564
8.912:545
8.912:521
8.915:506
8.915:485
8.915:489
8.916:508
8.916:519
8.916:498
8.916:464
8.916:425
8.916:399
8.920:409
8.936:409
8.936:405
8.936:442
8.936:484
8.937:514
8.937:526
8.937:520
8.937:510
8.937:466
8.940:434
8.941:445
8.941:486
8.941:491
8.941:459
8.942:412
8.942:439
8.942:486
8.942:543
8.942:572
8.945:571
8.945:557
8.945:557
8.945:515
8.945:482
8.945:478
8.945:484
8.946:506
8.946:505
8.948:489
8.948:480
8.965:511
8.965:546
8.965:536
8.965:536
8.965:545
8.965:540
8.969:503
8.969:470
8.969:508
8.969:554
8.969:544
8.969:503
8.969:463
8.970:449
8.970:448
8.970:472
8.973:512
8.973:544
8.973:550
8.973:550
8.973:560
8.973:560
8.973:545
8.975:530
8.975:496
8.977:466
8.977:456
8.977:458
8.977:450
8.977:456
8.992:456
8.993:467
8.993:471
8.993:503
8.993:509
8.998:528
8.998:543
8.998:570
8.998:607
8.998:663
8.998:667
8.998:651
8.998:611
8.998:595
8.998:557
9.001:514
9.002:483
9.002:473
9.002:476
9.002:470
9.002:491
9.002:538
9.002:588
9.002:617
9.006:623
9.006:590
9.006:598
9.006:584
9.007:559
9.007:569
9.022:578
9.022:577
9.026:552
9.026:547
9.026:535
9.027:523
9.027:533
9.027:564
9.027:573
9.027:554
9.027:537
9.030:512
9.030:503
9.030:513
9.030:513
9.030:512
9.030:528
9.030:540
9.030:544
9.030:579
9.031:618
9.035:699
9.035:737
9.035:690
9.035:619
9.035:583
9.035:579
9.035:587
9.035:597
9.036:597
9.050:597
9.055:601
9.055:588
9.055:570
9.055:586
9.056:595
9.057:623
9.057:606
9.058:609
9.058:629
9.058:692
9.059:734
9.059:731
9.059:719
9.059:710
9.059:721
9.059:689
9.060:633
9.060:565
9.060:531
9.063:550
9.064:552
9.064:530
9.064:544
9.064:535
9.064:527
9.064:551
9.064:615
9.065:672
9.065:676
9.084:671
9.084:651
9.084:615
9.084:574
9.084:570
9.084:576
9.084:581
9.088:585
9.088:562
9.088:537
9.088:528
9.088:536
9.088:516
9.089:506
9.089:535
9.089:524
9.089:511
9.092:516
9.092:528
9.092:518
9.092:529
9.092:520
9.092:491
9.093:497
9.093:481
9.093:455
9.096:414
9.096:407
9.096:449
9.096:480
9.111:480
9.111:463
9.111:452
9.112:429
9.112:398
9.112:390
9.112:405
9.116:429
9.116:448
9.116:466
9.116:489
9.116:475
9.116:471
9.116:482
9.116:479
9.116:470
9.121:443
9.121:428
9.121:440
9.121:436
9.121:409
9.121:368
9.122:346
9.122:338
9.122:331
9.122:322
9.124:320
9.124:347
9.124:372
9.125:408
9.140:419
9.140:390
9.140:367
9.145:352
9.145:337
9.145:307
9.145:320
9.145:338
9.145:336
9.145:319
9.145:305
9.145:287
9.145:287
9.149:260
9.149:257
9.149:266
9.149:304
9.149:350
9.149:385
9.149:408
9.149:413
9.149:425
9.153:456
9.153:492
9.153:480
9.153:455
9.153:409
9.153:362
9.153:389
9.153:408
9.169:408
9.170:412
9.174:408
9.174:384
9.175:341
9.175:326
9.175:343
9.175:354
9.175:370
9.175:385
9.175:382
9.176:382
9.178:376
9.178:360
9.178:366
9.178:382
9.178:396
9.178:381
9.179:345
9.179:362
9.179:362
9.182:334
9.182:301
9.182:299
9.182:306
9.182:313
9.182:324
9.183:365
9.183:419
9.183:460
9.202:468
9.202:473
9.202:480
9.202:494
9.202:526
9.202:533
9.202:489
9.203:451
9.203:444
9.206:418
9.207:361
9.207:315
9.207:309
9.207:318
9.207:341
9.207:351
9.207:358
9.207:400
9.211:442
9.211:453
9.211:431
9.211:387
9.211:408
9.211:431
9.211:436
9.211:444
9.211:474
9.212:469
9.215:435
9.215:425
9.230:425
9.230:428
9.230:433
9.230:437
9.230:438
9.230:414
9.231:406
9.231:406
9.235:396
9.235:395
9.235:405
9.235:424
9.236:412
9.236:416
9.236:426
9.236:454
9.236:457
9.240:464
9.240:459
9.241:433
9.241:407
9.241:420
9.241:432
9.241:415
9.241:415
9.241:424
9.241:433
9.243:445
9.243:430
9.243:456
9.259:490
9.259:473
9.259:455
9.259:451
9.260:465
9.264:473
9.264:479
9.264:495
9.264:489
9.264:461
9.264:445
9.264:441
9.264:433
9.264:419
9.268:422
9.268:420
9.268:400
9.268:385
9.268:401
9.268:420
9.268:462
9.268:494
9.268:514
9.268:503
9.271:500
9.271:493
9.271:462
9.271:418
9.272:402
9.272:387
9.288:387
9.288:390
9.288:395
9.288:438
9.293:476
9.293:510
9.293:488
9.293:455
9.293:426
9.293:402
9.293:413
9.293:425
9.293:443
9.296:465
9.296:511
9.296:548
9.296:570
9.296:573
9.297:550
9.297:510
9.297:501
9.297:513
9.297:523
9.300:533
9.300:505
9.300:445
9.301:406
9.301:397
9.301:398
9.301:419
9.316:454
9.321:487
9.321:476
9.321:443
9.321:459
9.321:485
9.321:504
9.321:504
9.321:517
9.321:515
9.325:489
9.325:445
9.325:444
9.325:421
9.325:382
9.325:400
9.325:453
9.325:494
9.325:485
9.325:460
9.329:480
9.329:502
9.329:499
9.329:466
9.329:472
9.329:477
9.329:473
9.329:473
9.329:513
9.333:543
9.349:543
9.349:531
9.349:479
9.349:470
9.349:515
9.349:508
9.349:476
9.349:420
9.349:386
9.354:370
9.354:354
9.354:365
9.354:387
9.354:400
9.354:411
9.354:461
9.354:487
9.355:488
9.355:469
9.358:449
9.358:452
9.358:412
9.358:416
9.358:444
9.358:479
9.358:482
9.358:495
9.358:519
9.362:548
9.362:567
9.378:588
9.378:617
9.378:623
9.378:600
9.378:548
9.378:530
9.383:514
9.383:495
9.383:477
9.383:484
9.383:467
9.383:432
9.383:416
9.383:423
9.383:437
9.383:440
9.386:447
9.386:456
9.386:461
9.386:446
9.386:405
9.386:411
9.386:474
9.386:486
9.386:461
9.390:446
9.390:469
9.390:508
9.390:494
9.390:523
9.406:523
9.406:559
9.406:565
9.406:552
9.406:550
9.411:537
9.411:503
9.411:440
9.411:380
9.411:373
9.411:384
9.411:408
9.411:461
9.411:492
9.411:504
