0.000:488
0.000:505
0.001:513
0.001:548
0.001:551
0.001:515
0.001:488
0.001:480
0.001:486
0.001:498
0.002:515
0.002:512
0.002:509
0.003:495
0.003:483
0.003:457
0.003:458
0.003:449
0.003:446
0.003:448
0.004:435
0.004:447
0.004:464
0.004:488
0.004:491
0.004:495
0.005:485
0.005:481
0.005:487
0.005:503
0.005:503
0.006:522
0.006:515
0.006:503
0.006:495
0.007:471
0.007:442
0.007:451
0.007:448
0.007:455
0.007:475
0.007:499
0.007:532
0.007:530
0.007:527
0.007:531
0.008:550
0.008:560
0.008:569
0.008:556
0.008:536
0.008:524
0.008:502
0.008:467
0.008:453
0.008:449
0.008:450
0.009:458
0.009:474
0.009:494
0.009:509
0.009:521
0.009:524
0.009:507
0.009:520
0.009:531
0.009:532
0.010:537
0.010:522
0.010:524
0.010:533
0.010:517
0.010:496
0.010:490
0.010:512
0.010:535
0.010:532
0.010:494
0.011:452
0.011:440
0.011:451
0.011:474
0.011:510
0.011:520
0.011:526
0.011:534
0.011:548
0.011:551
0.011:526
0.012:499
0.012:499
0.012:502
0.012:551
0.012:580
0.012:565
0.012:532
0.012:520
0.012:511
0.012:513
0.012:536
0.013:538
0.013:538
0.013:522
0.015:522
0.015:537
0.015:552
0.015:560
0.015:575
0.015:591
0.015:584
0.015:579
0.015:581
0.015:574
0.015:548
0.016:534
0.016:526
0.016:518
0.016:519
0.016:509
0.016:505
0.016:501
0.016:501
0.016:527
0.016:550
0.017:565
0.017:595
0.017:617
0.017:596
0.017:577
0.017:576
0.017:603
0.017:610
0.017:603
0.017:575
0.017:560
0.018:579
0.018:582
0.019:554
0.019:524
0.019:510
0.019:508
0.019:524
0.019:537
0.019:546
0.019:556
0.019:563
0.020:568
0.020:595
0.020:611
0.020:604
0.020:604
0.020:594
0.020:580
0.020:558
0.020:554
0.020:559
0.020:548
0.020:508
0.021:525
0.021:537
0.021:556
0.021:546
0.021:512
0.021:521
0.021:540
0.021:528
0.021:498
0.021:468
0.022:496
0.022:545
0.022:556
0.022:526
0.022:513
0.022:502
0.023:477
0.023:464
0.023:454
0.023:439
0.023:447
0.023:461
0.023:477
0.023:495
0.023:505
0.023:511
0.024:514
0.024:522
0.024:518
0.024:518
0.024:516
0.024:534
0.024:535
0.024:509
0.024:484
0.024:455
0.024:434
0.025:426
0.025:427
0.025:420
0.025:419
0.025:403
0.025:390
0.025:387
0.025:384
0.025:400
0.025:434
0.025:468
0.026:449
0.026:462
0.026:473
0.026:465
0.026:465
0.026:456
0.026:459
0.026:441
0.026:417
0.026:426
0.027:419
0.027:391
0.027:374
0.027:390
0.027:389
0.027:378
0.027:370
0.027:362
0.027:372
0.027:385
0.028:416
0.028:430
0.028:431
0.028:406
0.028:399
0.028:394
0.028:388
0.028:390
0.028:415
0.028:415
0.028:395
0.029:401
0.029:401
0.029:379
0.029:357
0.029:340
0.029:356
0.029:372
0.029:404
0.029:426
0.030:457
0.030:443
0.030:431
0.030:411
0.030:401
0.030:376
0.030:372
0.030:400
0.030:419
0.030:434
0.030:426
0.030:384
0.030:358
0.030:347
0.031:347
0.031:381
0.031:415
0.031:421
0.031:435
0.031:413
0.031:387
0.031:382
0.031:410
0.031:440
0.031:440
0.031:473
0.031:483
0.031:466
0.031:431
0.032:419
0.032:428
0.032:433
0.032:440
0.032:431
0.032:408
0.032:378
0.032:362
0.032:388
0.032:414
0.032:444
0.032:454
0.032:444
0.032:417
0.032:432
0.033:457
0.033:443
0.033:427
0.033:424
0.033:430
0.033:440
0.033:430
0.033:425
0.033:422
0.033:408
0.033:410
0.033:428
0.033:441
0.033:437
0.033:442
0.034:485
0.034:508
0.034:487
0.034:463
0.034:487
0.034:484
0.034:483
0.034:484
0.034:461
0.034:437
0.034:420
0.035:405
0.035:392
0.035:397
0.035:407
0.035:431
0.035:448
0.035:432
0.035:423
0.037:432
0.037:430
0.037:417
0.037:426
0.037:443
0.037:478
0.037:478
0.037:500
0.037:496
0.037:483
0.037:507
0.038:504
0.038:478
0.038:443
0.038:410
0.038:405
0.038:408
0.038:421
0.038:457
0.038:492
0.038:499
0.038:498
0.038:508
0.038:503
0.038:509
0.039:499
0.039:497
0.039:508
0.039:497
0.039:492
0.039:488
0.039:476
0.039:484
0.039:485
0.039:456
0.039:428
0.039:422
0.039:425
0.039:424
0.040:420
0.040:401
0.040:401
0.040:421
0.040:430
0.040:428
0.040:432
0.040:466
0.040:502
0.040:495
0.040:472
0.040:468
0.040:462
0.040:456
0.040:464
0.040:440
0.040:428
0.040:420
0.040:434
0.040:449
0.040:446
0.041:448
0.041:456
0.041:459
0.041:485
0.041:494
0.041:490
0.041:490
0.041:498
0.041:509
0.041:509
0.041:509
0.041:513
0.041:499
0.041:481
0.041:502
0.041:511
0.041:487
0.041:438
0.041:426
0.041:446
0.041:456
0.041:463
0.042:472
0.042:488
0.042:504
0.042:517
0.042:523
0.042:516
0.042:512
0.042:488
0.042:492
0.042:489
0.042:482
0.042:472
0.042:458
0.042:443
0.042:427
0.042:449
0.042:460
0.042:451
0.042:434
0.042:441
0.042:464
0.042:477
0.043:480
0.043:473
0.043:472
0.043:483
0.043:506
0.043:492
0.043:492
0.043:498
0.043:464
0.043:460
0.043:469
0.043:460
0.043:452
0.043:465
0.043:459
0.043:444
0.043:428
0.043:423
0.043:447
0.043:468
0.043:496
0.043:503
0.044:503
0.044:500
0.044:508
0.044:502
0.044:483
0.044:467
0.044:462
0.044:461
0.044:467
0.044:469
0.044:452
0.044:454
0.044:483
0.044:482
0.044:496
0.044:506
0.044:493
0.044:494
0.044:509
0.044:515
0.044:512
0.044:517
0.045:505
0.045:507
0.045:493
0.045:467
0.045:480
0.045:476
0.045:480
0.045:481
0.045:470
0.045:466
0.045:467
0.045:469
0.045:468
0.045:437
0.045:423
0.045:456
0.045:495
0.045:512
0.045:507
0.045:504
0.045:486
0.045:491
0.046:483
0.046:481
0.046:487
0.046:474
0.046:478
0.046:468
0.046:453
0.046:425
0.046:433
0.046:447
0.047:453
0.047:467
0.047:471
0.047:480
0.047:480
0.047:485
0.047:485
0.047:488
0.047:500
0.047:515
0.047:551
0.047:557
0.047:521
0.047:492
0.047:473
0.047:473
0.048:479
0.048:473
0.048:457
0.048:469
0.048:475
0.048:472
0.048:468
0.048:471
0.048:478
0.048:476
0.048:484
0.048:492
0.048:497
0.048:498
0.048:502
0.049:501
0.049:495
0.049:490
0.049:491
0.049:481
0.049:456
0.049:449
0.049:437
0.049:445
0.049:450
0.049:456
0.049:475
0.049:489
0.049:500
0.049:504
0.050:506
0.050:500
0.050:528
0.050:535
0.050:532
0.050:518
0.050:495
0.050:478
0.050:475
0.050:474
0.050:465
0.050:446
0.050:432
0.050:435
0.050:453
0.051:462
0.051:467
0.051:486
0.051:506
0.051:505
0.051:505
0.051:516
0.051:524
0.051:546
0.051:549
0.051:533
0.051:511
0.051:515
0.051:514
0.051:502
0.052:493
0.052:505
0.052:502
0.053:468
0.053:483
0.053:523
0.053:518
0.053:498
0.053:501
0.053:521
0.053:515
0.053:506
0.053:476
0.054:471
0.054:471
0.054:479
0.054:479
0.054:474
0.054:455
0.054:432
0.054:441
0.054:446
0.054:439
0.054:431
0.054:440
0.054:451
0.054:460
0.055:469
0.055:481
0.055:494
0.055:501
0.055:506
0.055:501
0.055:502
0.055:499
0.055:499
0.055:495
0.055:482
0.055:470
0.055:463
0.055:462
0.055:457
0.055:460
0.056:460
0.056:471
0.056:475
0.056:478
0.056:477
0.056:471
0.056:477
0.056:477
0.056:492
0.056:508
0.056:499
0.056:508
0.056:523
0.056:533
0.056:521
0.056:519
0.056:503
0.056:486
0.056:485
0.056:477
0.056:465
0.056:451
0.057:435
0.057:448
0.057:473
0.057:490
0.057:493
0.057:492
0.057:496
0.057:495
0.057:487
0.057:491
0.057:494
0.057:504
0.057:509
0.057:509
0.057:491
0.057:466
0.057:458
0.057:454
0.057:453
0.057:454
0.057:450
0.058:480
0.058:488
0.058:482
0.058:484
0.058:492
0.058:495
0.058:482
0.058:486
0.058:512
0.058:530
0.058:524
0.058:515
0.058:480
0.058:468
0.058:461
0.058:462
0.058:465
0.058:469
0.058:470
0.058:466
0.058:477
0.059:499
0.059:546
0.059:574
0.059:574
0.059:551
0.059:508
0.059:484
0.059:483
0.059:488
0.059:498
0.059:524
0.059:535
0.059:524
0.059:499
0.059:470
0.059:474
0.059:473
0.059:477
0.059:498
0.059:500
0.059:488
0.060:487
0.060:480
0.060:449
0.060:464
0.060:486
0.060:497
0.060:512
0.060:490
0.060:505
0.060:526
0.060:525
0.060:508
0.060:472
0.060:454
0.060:447
0.060:422
0.060:402
0.060:404
0.060:424
0.060:469
0.060:488
0.060:479
0.061:478
0.061:478
0.061:494
0.061:493
0.061:514
0.061:526
0.061:516
0.061:508
0.061:490
0.061:481
0.061:475
0.061:468
0.061:456
0.061:461
0.061:453
0.061:473
0.061:481
0.061:480
0.061:479
0.061:470
0.061:470
0.062:489
0.062:501
0.062:498
0.062:492
0.062:508
0.062:529
0.062:515
0.062:495
0.062:485
0.062:488
0.062:484
0.062:473
0.063:466
0.063:472
0.063:462
0.063:463
0.063:462
0.063:456
0.063:469
0.063:482
0.063:482
0.063:488
0.063:503
0.063:502
0.063:506
0.063:508
0.063:513
0.064:536
0.064:530
0.064:508
0.064:503
0.064:499
0.064:481
0.064:470
0.064:444
0.064:454
0.064:465
0.064:471
0.064:469
0.064:437
0.064:468
0.064:481
0.065:514
0.065:550
0.065:576
0.065:576
0.065:565
0.065:511
0.065:489
0.065:490
0.065:482
0.065:477
0.065:449
0.065:433
0.065:410
0.065:423
0.065:435
0.066:450
0.066:464
0.066:464
0.066:457
0.066:481
0.066:490
0.066:493
0.066:483
0.066:489
0.066:499
0.066:518
0.066:537
0.066:525
0.066:527
0.067:503
0.067:491
0.067:485
0.067:480
0.067:453
0.067:424
0.067:413
0.067:413
0.067:437
0.067:481
0.067:537
0.067:543
0.067:528
0.067:522
0.067:557
0.068:555
0.068:525
0.068:517
0.068:509
0.068:479
0.068:456
0.068:462
0.068:474
0.068:488
0.068:484
0.068:484
0.068:464
0.068:450
0.069:446
0.069:458
0.069:498
0.069:511
0.069:530
0.069:521
0.069:523
0.069:518
0.070:515
0.070:499
0.070:471
0.070:459
0.070:464
0.070:470
0.070:464
0.070:433
0.070:409
0.070:430
0.070:466
0.070:495
0.070:495
0.070:497
0.070:481
0.071:508
0.071:543
0.071:571
0.071:586
0.071:592
0.071:571
0.071:537
0.071:497
0.071:494
0.071:516
0.071:528
0.071:506
0.071:466
0.071:439
0.071:426
0.072:434
0.072:477
0.072:499
0.072:494
0.072:498
0.072:505
0.072:485
0.072:503
0.072:544
0.072:593
0.072:595
0.072:575
0.072:544
0.072:506
0.072:491
0.072:475
0.072:482
0.072:495
0.072:496
0.072:480
0.072:487
0.073:513
0.073:518
0.073:534
0.073:539
0.073:537
0.073:511
0.073:501
0.073:510
0.073:543
0.073:544
0.073:524
0.073:506
0.073:486
0.073:467
0.073:454
0.073:457
0.073:462
0.073:446
0.073:452
0.073:439
0.073:418
0.073:418
0.074:434
0.074:474
0.074:507
0.074:513
0.074:479
0.074:469
0.074:484
0.074:483
0.074:484
0.074:480
0.074:492
0.074:496
0.074:486
0.074:474
0.074:459
0.074:431
0.074:419
0.074:440
0.074:464
0.074:476
0.074:484
0.074:509
0.075:510
0.075:500
0.075:508
0.075:509
0.075:496
0.075:499
0.075:520
0.075:524
0.075:491
0.075:475
0.075:467
0.075:463
0.075:452
0.075:439
0.075:430
0.075:441
0.075:460
0.075:472
0.075:474
0.075:472
0.076:473
0.076:459
0.076:461
0.076:469
0.076:462
0.076:449
0.076:458
0.076:476
0.076:500
0.076:500
0.076:491
0.076:484
0.076:463
0.076:455
0.076:439
0.076:443
0.076:465
0.076:465
0.076:485
0.076:499
0.076:502
0.076:514
0.077:528
0.077:550
0.077:544
0.077:534
0.077:526
0.077:523
0.077:507
0.077:512
0.077:526
0.077:517
0.077:506
0.077:494
0.077:494
0.077:497
0.077:517
0.077:515
0.077:502
0.077:496
0.077:502
0.077:520
0.078:525
0.078:529
0.078:530
0.078:581
0.078:634
0.078:653
0.078:658
0.078:665
0.078:662
0.078:664
0.078:678
0.078:693
0.078:718
0.078:746
0.078:770
0.078:793
0.078:810
0.078:841
0.078:898
0.078:975
0.078:990
0.078:990
0.079:990
0.079:990
0.079:990
0.079:990
0.079:968
0.079:918
0.079:870
0.079:782
0.079:686
0.079:616
0.079:554
0.079:478
0.079:425
0.079:425
0.079:373
0.079:346
0.079:320
0.079:309
0.079:317
0.079:326
0.079:327
0.080:330
0.080:360
0.080:373
0.080:384
0.080:395
0.080:384
0.080:374
0.080:377
0.080:389
0.080:409
0.080:424
0.080:435
0.080:432
0.080:431
0.080:452
0.080:476
0.080:474
0.080:477
0.080:459
0.080:438
0.080:424
0.080:444
0.081:465
0.081:479
0.081:468
0.081:451
0.081:442
0.081:421
0.081:427
0.081:421
0.081:428
0.081:402
0.081:385
0.081:396
0.081:410
0.081:408
0.081:417
0.081:423
0.081:410
0.081:422
0.081:433
0.081:451
0.081:455
0.081:467
0.082:472
0.082:452
0.082:461
0.082:451
0.082:434
0.082:433
0.082:446
0.082:438
0.082:438
0.082:435
0.082:428
0.082:402
0.082:427
0.082:466
0.082:505
0.082:515
0.082:509
0.082:523
0.082:534
0.082:530
0.082:525
0.083:519
0.083:501
0.083:489
0.083:472
0.083:463
0.083:455
0.083:446
0.083:450
0.083:448
0.083:430
0.083:433
0.083:452
0.083:469
0.083:498
0.083:483
0.083:477
0.083:464
0.083:493
0.083:503
0.083:512
0.083:510
0.083:508
0.084:492
0.084:471
0.084:470
0.084:474
0.084:459
0.084:443
0.084:438
0.084:454
0.084:442
0.084:447
0.084:478
0.084:505
0.084:511
0.084:521
0.084:518
0.084:508
0.084:496
0.084:497
0.084:520
0.084:514
0.085:495
0.085:483
0.085:498
0.085:488
0.086:472
0.086:472
0.086:477
0.086:467
0.086:444
0.086:434
0.086:449
0.086:472
0.086:490
0.086:506
0.086:526
0.086:535
0.086:549
0.087:555
0.087:559
0.087:539
0.087:522
0.087:492
0.087:459
0.087:461
0.087:459
0.087:456
0.087:469
0.088:501
0.088:517
0.088:508
0.088:516
0.088:517
0.088:524
0.088:525
0.088:531
0.089:543
0.089:557
0.089:557
0.089:550
0.089:544
0.089:535
0.089:525
0.089:512
0.089:515
0.089:513
0.089:506
0.089:508
0.089:497
0.089:494
0.089:490
0.089:506
0.089:527
0.089:543
0.089:546
0.089:541
0.090:532
0.090:556
0.090:576
0.090:571
0.090:576
0.090:572
0.090:543
0.090:530
0.090:529
0.090:549
0.090:549
0.090:548
0.090:553
0.090:565
0.090:572
0.090:532
0.090:518
0.090:537
0.090:543
0.090:543
0.090:526
0.091:541
0.091:543
0.091:557
0.091:566
0.091:574
0.091:554
0.091:532
0.091:505
0.091:495
0.091:526
0.091:545
0.091:546
0.091:543
0.091:546
0.091:529
0.091:502
0.091:492
0.091:508
0.091:545
0.091:572
0.091:608
0.091:631
0.092:626
0.092:621
0.092:630
0.092:622
0.092:593
0.092:590
0.092:600
0.092:599
0.092:567
0.092:567
0.092:568
0.092:575
0.092:586
0.092:607
0.092:626
0.092:627
0.092:626
0.092:621
0.092:616
0.092:601
0.092:611
0.092:608
0.093:597
0.093:576
0.093:557
0.093:560
0.093:570
0.093:570
0.093:576
0.093:556
0.093:548
0.093:551
0.093:555
0.093:552
0.093:559
0.093:576
0.093:557
0.093:537
0.093:515
0.093:546
0.093:566
0.094:590
0.094:573
0.094:537
0.094:530
0.094:511
0.094:526
0.094:525
0.094:512
0.094:505
0.094:502
0.094:509
0.094:519
0.094:512
0.094:493
0.094:528
0.094:597
0.094:626
0.094:590
0.094:536
0.094:535
0.094:565
0.094:539
0.095:509
0.095:494
0.095:478
0.095:467
0.095:458
0.095:448
0.095:442
0.095:434
0.095:411
0.095:404
0.095:416
0.095:429
0.095:442
0.095:437
0.095:447
0.095:445
0.095:473
0.095:476
0.095:481
0.095:465
0.095:442
0.095:428
0.096:423
0.096:404
0.096:404
0.096:380
0.096:379
0.096:382
0.096:396
0.096:394
0.096:383
0.096:394
0.096:400
0.096:410
0.096:397
0.096:386
0.096:408
0.096:429
0.096:430
0.096:450
0.096:454
0.096:430
0.096:414
0.097:391
0.097:376
0.097:347
0.097:341
0.097:337
0.097:347
0.097:358
0.097:353
0.097:354
0.097:376
0.097:398
0.097:401
0.097:405
0.097:396
0.097:410
0.097:403
0.097:384
0.097:382
0.097:361
0.097:346
0.097:366
0.097:393
0.098:397
0.098:423
0.098:417
0.098:403
0.098:404
0.098:400
0.098:408
0.098:433
0.098:470
0.098:452
0.098:436
0.098:423
0.098:420
0.098:422
0.098:427
0.098:424
0.098:425
0.098:414
0.098:393
0.098:393
0.098:388
0.098:398
0.099:394
0.099:386
0.099:395
0.099:392
0.099:381
0.099:385
0.099:402
0.099:439
0.099:451
0.099:455
0.099:449
0.099:440
0.099:435
0.099:449
0.099:445
0.099:418
0.099:408
0.099:388
0.099:386
0.099:388
0.099:382
0.099:400
0.100:417
0.100:414
0.100:407
0.100:446
0.100:487
0.100:488
0.100:473
0.100:470
0.100:465
0.100:462
0.100:465
0.100:463
0.100:480
0.100:498
0.100:513
0.100:485
0.100:460
0.100:454
0.100:442
0.100:427
0.100:423
0.100:395
0.101:375
0.101:385
0.101:394
0.101:412
0.101:405
0.101:436
0.101:482
0.101:489
0.101:480
0.101:464
0.101:463
0.101:450
0.101:429
0.102:429
0.102:410
0.102:412
0.102:419
0.102:410
0.102:404
0.102:418
0.103:458
0.103:463
0.103:460
0.103:469
0.103:488
0.103:528
0.104:545
0.104:515
0.104:494
0.104:462
0.104:450
0.104:460
0.104:468
0.104:460
0.104:447
0.104:448
0.104:441
0.104:432
0.104:426
0.104:441
0.104:473
0.104:461
0.104:437
0.105:453
0.105:471
0.105:468
0.105:466
0.105:473
0.105:488
0.105:493
0.105:485
0.105:494
0.105:480
0.105:442
0.105:409
0.105:412
0.105:440
0.105:466
0.105:489
0.105:508
0.106:507
0.106:497
0.106:481
0.106:467
0.106:467
0.106:477
0.106:466
0.106:463
0.106:478
0.106:491
0.106:490
0.106:490
0.106:484
0.106:484
0.106:482
0.106:462
0.106:456
0.106:473
0.106:479
0.106:472
0.106:465
0.107:462
0.107:467
0.107:471
0.107:466
0.107:477
0.107:483
0.107:467
0.107:462
0.107:458
0.107:468
0.107:464
0.107:453
0.107:448
0.107:454
0.107:451
0.107:448
0.107:453
0.107:445
0.107:467
0.107:471
0.107:475
0.107:470
0.108:492
0.108:520
0.108:509
0.108:485
0.108:481
0.108:500
0.108:496
0.108:491
0.108:490
0.108:498
0.108:490
0.108:476
0.108:461
0.108:452
0.108:437
0.108:438
0.108:442
0.108:443
0.108:452
0.108:441
0.108:456
0.108:474
0.109:478
0.109:479
0.109:483
0.109:509
0.109:523
0.109:527
0.109:532
0.109:525
0.109:525
0.109:510
0.109:492
0.109:474
0.110:481
0.110:508
0.110:499
0.110:477
0.110:470
0.110:475
0.110:486
0.110:484
0.110:490
0.110:493
0.110:506
0.110:497
0.110:510
0.110:499
0.110:486
0.111:493
0.111:508
0.111:493
0.111:470
0.111:452
0.111:438
0.111:427
0.111:421
0.111:435
0.111:434
0.111:456
0.111:470
0.111:456
0.111:444
0.111:440
0.112:456
0.112:465
0.112:486
0.112:483
0.112:514
0.112:528
0.112:522
0.112:505
0.112:490
0.112:496
0.112:497
0.112:480
0.112:452
0.112:460
0.113:472
0.113:484
0.113:499
0.113:481
0.113:469
0.113:460
0.113:469
0.113:466
0.113:471
0.113:499
0.113:524
0.113:513
0.113:513
0.113:508
0.113:501
0.113:472
0.114:452
0.114:454
0.114:468
0.114:455
0.114:441
0.114:436
0.114:444
0.114:465
0.114:491
0.114:521
0.114:525
0.114:527
0.114:527
0.114:520
0.114:518
0.115:520
0.115:512
0.115:493
0.115:478
0.115:475
0.115:468
0.115:444
0.115:434
0.115:417
0.115:423
0.115:433
0.115:446
0.115:458
0.115:467
0.115:491
0.116:503
0.116:521
0.116:514
0.116:500
0.116:484
0.116:491
0.116:515
0.116:538
0.116:543
0.116:512
0.116:478
0.116:455
0.116:457
0.116:450
0.117:456
0.117:482
0.117:482
0.117:486
0.117:486
0.117:500
0.117:497
0.117:471
0.117:459
0.117:478
0.117:501
0.117:513
0.117:513
0.117:499
0.118:489
0.118:508
0.118:502
0.118:480
0.118:447
0.119:450
0.119:462
0.119:490
0.119:509
0.119:486
0.119:485
0.119:497
0.119:511
0.119:500
0.119:471
0.120:466
0.120:483
0.120:493
0.120:485
0.120:490
0.120:488
0.120:476
0.120:461
0.120:472
0.120:467
0.120:469
0.120:472
0.120:449
0.120:440
0.121:448
0.121:471
0.121:505
0.121:536
0.121:528
0.121:498
0.121:477
0.121:488
0.121:498
0.121:506
0.121:514
0.121:511
0.121:482
0.121:444
0.122:452
0.122:468
0.122:464
0.122:448
0.122:466
0.122:480
0.122:475
0.122:477
0.122:471
0.122:493
0.122:515
0.122:506
0.122:483
0.122:491
0.122:506
0.122:506
0.122:507
0.122:506
0.122:482
0.122:460
0.122:448
0.122:467
0.123:469
0.123:452
0.123:444
0.123:423
0.123:439
0.123:453
0.123:489
0.123:510
0.123:517
0.123:507
0.123:506
0.123:512
0.123:524
0.123:542
0.123:539
0.123:536
0.123:527
0.123:502
0.123:477
0.123:482
0.123:489
0.124:465
0.124:463
0.124:459
0.124:419
0.124:424
0.124:462
0.124:490
0.124:506
0.124:516
0.124:513
0.124:511
0.124:504
0.124:516
0.124:518
0.124:520
0.124:517
0.124:513
0.124:480
0.124:450
0.124:435
0.124:450
0.124:478
0.125:482
0.125:472
0.125:468
0.125:466
0.125:481
0.125:500
0.125:501
0.125:478
0.125:477
0.125:488
0.125:488
0.125:502
0.125:509
0.125:514
0.125:504
0.125:484
0.125:464
0.126:462
0.126:468
0.126:456
0.126:473
0.126:480
0.126:485
0.126:467
0.126:482
0.126:518
0.126:510
0.126:489
0.126:486
0.126:517
0.126:519
0.126:531
0.126:537
0.126:532
0.126:528
0.126:510
0.126:505
0.126:494
0.126:484
0.127:454
0.127:447
0.127:454
0.127:472
0.127:490
0.127:499
0.127:497
0.127:481
0.127:471
0.127:474
0.127:491
0.127:504
0.127:501
0.127:488
0.127:484
0.127:496
0.127:484
0.127:467
0.127:459
0.127:472
0.127:472
0.128:469
0.128:457
0.128:461
0.128:461
0.128:458
0.128:479
0.128:499
0.128:517
0.128:522
0.128:530
0.128:530
0.128:522
0.128:533
0.128:533
0.128:520
0.128:501
0.128:486
0.128:496
0.128:500
0.128:497
0.128:476
0.128:465
0.129:448
0.129:465
0.129:494
0.129:495
0.129:515
0.129:522
0.129:515
0.129:500
0.129:502
0.129:497
0.129:513
0.129:528
0.129:518
0.129:512
0.129:477
0.129:458
0.129:457
0.129:478
0.129:491
0.129:487
0.129:491
0.129:502
0.130:495
0.130:455
0.130:439
0.130:451
0.130:477
0.130:525
0.130:563
0.130:560
0.130:552
0.130:514
0.130:502
0.130:504
0.130:481
0.130:448
0.130:439
0.130:444
0.130:416
0.130:404
0.130:413
0.130:451
0.130:480
0.130:501
0.131:528
0.131:551
0.131:570
0.131:576
0.131:576
0.131:579
0.131:594
0.131:607
0.131:588
0.131:536
0.131:513
0.131:502
0.131:492
0.131:485
0.131:505
0.131:511
0.131:501
0.131:480
0.131:472
0.131:458
0.131:462
0.131:488
0.132:503
0.132:516
0.132:523
0.132:541
0.132:549
0.132:547
0.132:547
0.132:550
0.132:541
0.132:520
0.132:525
0.132:523
0.132:525
0.132:511
0.132:503
0.132:492
0.132:478
0.132:487
0.132:499
0.132:518
0.132:533
0.133:532
0.133:516
0.133:513
0.133:513
0.133:519
0.133:514
0.133:525
0.133:515
0.133:483
0.133:477
0.133:478
0.133:464
0.133:464
0.133:486
0.133:482
0.133:463
0.133:445
0.133:444
0.133:467
0.133:477
0.133:489
0.133:489
0.134:471
0.134:449
0.134:464
0.134:476
0.134:473
0.134:470
0.134:470
0.134:461
0.134:457
0.134:457
0.134:441
0.134:410
0.134:416
0.134:447
0.134:460
0.134:466
0.134:465
0.134:450
0.134:441
0.134:449
0.135:470
0.135:486
0.135:487
0.135:483
0.135:492
0.136:504
0.136:508
0.136:506
0.136:499
0.136:496
0.136:484
0.136:480
0.136:495
0.136:504
0.136:502
0.136:493
0.136:504
0.136:497
0.136:471
0.136:474
0.136:489
0.136:512
0.138:531
0.138:530
0.138:515
0.138:466
0.138:435
0.138:421
0.138:423
0.138:424
0.138:434
0.138:448
0.139:452
0.139:455
0.139:456
0.139:470
0.139:485
0.139:509
0.139:516
0.139:516
0.139:521
0.139:524
0.139:532
0.139:532
0.139:534
0.139:540
0.139:547
0.140:539
0.140:517
0.140:519
0.140:533
0.140:551
0.140:563
0.140:569
0.140:587
0.140:606
0.140:633
0.140:668
0.140:701
0.140:731
0.140:747
0.140:759
0.141:768
0.141:779
0.141:786
0.141:812
0.141:851
0.141:869
0.141:890
0.141:914
0.141:960
0.142:970
0.142:966
0.142:978
0.142:990
0.142:990
0.142:990
0.142:990
0.142:961
0.142:902
0.142:861
0.142:811
0.142:708
0.142:629
0.142:551
0.142:480
0.142:419
0.142:372
0.142:337
0.142:303
0.142:274
0.142:257
0.143:265
0.143:276
0.143:281
0.143:293
0.143:308
0.143:324
0.143:341
0.143:341
0.143:371
0.143:391
0.143:407
0.143:390
0.143:387
0.143:402
0.143:426
0.143:451
0.143:456
0.143:449
0.143:452
0.143:446
0.143:387
0.143:367
0.144:360
0.144:374
0.144:391
0.144:418
0.144:443
0.144:451
0.144:465
0.144:476
0.144:490
0.144:492
0.144:492
0.144:466
0.144:452
0.144:437
0.144:410
0.144:398
0.144:412
0.144:430
0.144:409
0.144:404
0.144:425
0.144:436
0.145:438
0.145:437
0.145:439
0.145:433
0.145:435
0.145:453
0.145:485
0.145:495
0.145:506
0.145:501
0.145:484
0.145:469
0.145:446
0.145:435
0.145:428
0.145:431
0.145:417
0.145:425
0.145:432
0.145:431
0.145:429
0.146:440
0.146:463
0.146:463
0.146:458
0.146:453
0.146:454
0.146:484
0.146:496
0.146:502
0.146:495
0.146:478
0.146:465
0.146:456
0.146:451
0.146:450
0.146:467
0.146:475
0.146:481
0.146:461
0.146:440
0.146:447
0.146:462
0.147:480
0.147:481
0.147:485
0.147:482
0.147:506
0.147:513
0.147:511
0.147:510
0.147:508
0.147:508
0.147:496
0.147:507
0.147:514
0.147:515
0.147:503
0.147:504
0.147:473
0.147:447
0.147:434
0.147:457
0.147:490
0.147:509
0.148:519
0.148:521
0.148:530
0.148:534
0.148:525
0.148:509
0.148:481
0.148:477
0.148:469
0.148:483
0.148:490
0.148:494
0.148:477
0.148:463
0.148:440
0.148:422
0.148:425
0.148:441
0.148:441
0.148:476
0.148:510
0.149:538
0.149:529
0.149:534
0.149:542
0.149:552
0.149:521
0.149:495
0.149:484
0.149:491
0.149:518
0.149:519
0.149:519
0.149:500
0.149:478
0.149:476
0.149:488
0.149:502
0.149:505
0.149:508
0.149:495
0.149:488
0.150:510
0.150:528
0.150:547
0.150:561
0.150:570
0.150:564
0.150:556
0.150:540
0.150:540
0.150:536
0.150:545
0.150:530
0.150:509
0.150:492
0.150:490
0.150:493
0.150:504
0.150:527
0.150:540
0.150:544
0.150:530
0.150:524
0.151:535
0.151:565
0.151:579
0.151:566
0.151:566
0.151:551
0.151:539
0.151:515
0.151:504
0.151:529
0.151:533
0.151:525
0.151:529
0.151:553
0.151:553
0.151:583
0.151:597
0.151:576
0.151:559
0.151:542
0.151:548
0.151:550
0.152:541
0.152:550
0.152:575
0.153:582
0.153:565
0.153:545
0.153:509
0.153:508
0.153:532
0.153:577
0.153:606
0.153:609
0.154:602
0.154:580
0.154:590
0.154:605
0.154:610
0.154:615
0.154:644
0.154:652
0.154:631
0.154:603
0.154:601
0.154:607
0.154:601
0.154:601
0.154:594
0.155:584
0.155:559
0.155:531
0.155:533
0.155:550
0.155:567
0.155:584
0.155:594
0.155:591
0.155:601
0.155:622
0.155:649
0.155:679
0.155:692
0.155:700
0.156:658
0.156:599
0.156:574
0.156:589
0.156:582
0.156:552
0.156:538
0.156:525
0.156:538
0.156:554
0.156:554
0.156:566
0.156:564
0.156:574
0.156:572
0.156:564
0.156:574
0.156:584
0.156:586
0.156:575
0.156:553
0.157:541
0.157:539
0.157:503
0.157:465
0.157:462
0.157:468
0.157:471
0.157:472
0.157:466
0.157:454
0.157:448
0.158:448
0.158:455
0.158:476
0.158:507
0.158:511
0.158:496
0.158:503
0.158:485
0.158:480
0.158:481
0.158:464
0.158:447
0.158:449
0.158:447
0.158:414
0.158:408
0.158:396
0.158:387
0.158:376
0.158:366
0.158:367
0.158:380
0.159:398
0.159:402
0.159:418
0.159:427
0.159:434
0.159:422
0.159:394
0.159:376
0.159:374
0.159:383
0.159:386
0.159:375
0.159:335
0.159:342
0.159:357
0.159:371
0.159:371
0.159:366
0.159:355
0.159:367
0.159:391
0.159:395
0.160:387
0.160:403
0.160:407
0.160:409
0.160:390
0.160:374
0.160:380
0.160:375
0.160:379
0.160:367
0.160:377
0.160:375
0.160:360
0.160:325
0.160:310
0.160:314
0.160:326
0.160:350
0.160:375
0.160:398
0.160:412
0.160:420
0.161:417
0.161:416
0.161:6
0.161:518
0.161:471
0.161:467
0.161:481
0.161:484
0.161:479
0.161:432
0.161:420
0.161:440
0.161:442
0.161:433
0.161:410
0.161:400
0.161:429
0.161:478
0.161:8
0.161:446
0.161:430
0.161:432
0.162:432
0.162:428
0.162:457
0.162:477
0.162:511
0.162:547
0.162:566
0.162:518
0.162:471
0.162:467
0.162:481
0.162:484
0.162:479
0.162:432
0.162:420
0.162:440
0.162:442
0.162:433
0.162:410
0.162:400
0.162:429
0.162:478
0.163:8
0.163:446
0.163:430
0.163:432
0.163:432
0.163:428
0.163:457
0.163:477
0.163:511
0.163:547
0.163:566
0.163:518
0.163:471
0.163:467
0.163:481
0.163:484
0.163:479
0.163:432
0.163:420
0.163:440
0.163:442
0.163:433
0.164:410
0.164:400
0.164:429
0.164:478
0.164:482
0.164:487
0.164:491
0.164:502
0.164:514
0.164:506
0.164:510
0.164:497
0.164:481
0.164:472
0.164:456
0.164:412
0.164:408
0.164:430
0.164:457
0.164:429
0.164:415
0.164:441
0.165:465
0.165:464
0.165:483
0.165:489
0.165:476
0.165:472
0.165:482
0.165:505
0.165:497
0.165:463
0.165:456
0.165:455
0.165:455
0.165:467
0.165:429
0.165:389
0.165:385
0.165:404
0.165:430
0.165:452
0.165:467
0.166:469
0.166:461
0.166:466
0.166:498
0.166:528
0.166:525
0.166:525
0.166:523
0.166:541
0.166:529
0.166:487
0.166:467
0.166:465
0.166:480
0.166:479
0.166:481
0.166:505
0.166:532
0.166:535
0.166:545
0.166:562
0.166:608
0.167:638
0.167:673
0.167:702
0.167:728
0.167:739
0.167:729
0.167:729
0.167:745
0.167:775
0.167:785
0.167:780
0.167:804
0.167:816
0.167:822
0.167:826
0.167:837
0.167:866
0.167:916
0.167:935
0.167:918
0.167:879
0.167:828
0.168:776
0.168:715
0.168:684
0.168:648
0.168:585
0.168:496
0.168:420
0.168:420
0.168:374
0.168:344
0.170:322
0.170:299
0.170:301
0.171:308
0.171:307
0.171:317
0.171:320
0.172:329
0.172:344
0.172:385
0.172:403
0.172:414
0.172:405
0.172:427
0.172:455
0.175:458
0.175:419
0.175:395
0.175:373
0.175:355
0.175:359
0.175:389
0.175:414
0.175:437
0.178:445
0.178:418
0.178:405
0.195:413
0.195:418
0.195:439
0.195:470
0.195:498
0.199:541
0.199:546
0.199:500
0.199:439
0.199:409
0.199:423
0.199:414
0.199:400
0.199:430
0.199:419
0.202:414
0.203:430
0.203:415
0.203:414
0.203:434
0.203:418
0.203:416
0.203:436
0.203:449
0.207:457
0.207:460
0.207:462
0.207:470
0.207:470
0.207:450
0.223:450
0.223:442
0.223:444
0.223:433
0.227:428
0.227:437
0.227:453
0.227:457
0.227:439
0.227:421
0.227:435
0.227:486
0.227:506
0.227:505
0.231:512
0.231:493
0.231:467
0.231:477
0.231:510
0.231:508
0.231:464
0.231:429
0.231:447
0.235:460
0.235:446
0.236:424
0.236:424
0.236:453
0.236:458
0.236:442
0.251:434
0.256:477
0.256:501
0.256:487
0.256:503
0.256:537
0.256:534
0.256:514
0.256:508
0.256:505
0.261:494
0.261:510
0.261:526
0.261:495
0.261:447
0.261:450
0.261:450
0.261:438
0.261:434
0.261:449
0.265:492
0.265:512
0.265:516
0.265:520
0.265:522
0.265:525
0.265:523
0.265:511
0.265:509
0.265:509
0.285:509
0.286:481
0.286:465
0.286:447
0.286:424
0.286:422
0.286:446
0.286:472
0.287:474
0.287:480
0.289:497
0.289:514
0.289:511
0.289:501
0.289:507
0.289:530
0.289:534
0.289:510
0.289:506
0.293:508
0.293:516
0.293:524
0.293:506
0.293:481
0.293:470
0.293:457
0.293:438
0.293:464
0.293:515
0.297:509
0.313:501
0.313:503
0.313:493
0.313:501
0.313:531
0.313:547
0.318:574
0.318:574
0.318:561
0.318:563
0.318:547
0.318:508
0.318:462
0.319:422
0.319:423
0.319:434
0.322:451
0.322:460
0.322:485
0.322:493
0.322:513
0.322:540
0.322:562
0.322:580
0.322:580
0.326:569
0.326:555
0.326:533
0.326:523
0.326:524
0.342:524
0.342:535
0.342:558
0.342:590
0.342:591
0.342:560
0.346:527
0.346:530
0.346:552
0.346:560
0.346:527
0.347:521
0.347:543
0.347:567
0.347:562
0.350:579
0.350:570
0.350:575
0.350:578
0.350:598
0.350:592
0.350:571
0.351:534
0.351:520
0.351:545
0.354:547
0.355:538
0.355:525
0.355:519
0.355:516
0.371:513
0.371:539
0.375:550
0.375:571
0.375:582
0.375:608
0.375:633
0.375:643
0.375:639
0.375:622
0.376:605
0.376:579
0.379:560
0.379:574
0.379:605
0.379:623
0.379:599
0.379:568
0.379:572
0.379:545
0.379:537
0.383:566
0.383:597
0.383:613
0.383:622
0.383:635
0.383:598
0.383:585
0.383:600
0.383:629
0.399:629
0.404:645
0.404:637
0.404:628
0.404:614
0.404:553
0.404:527
0.404:534
0.404:548
0.404:541
0.404:526
0.408:517
0.408:540
0.408:552
0.408:540
0.408:535
0.408:571
0.408:594
0.408:592
0.408:577
0.408:570
0.412:570
0.412:561
0.412:552
0.412:556
0.412:530
0.412:492
0.412:485
0.412:471
0.412:471
0.432:461
0.432:468
0.432:500
0.432:504
0.432:478
0.432:501
0.432:551
0.432:577
0.436:512
0.436:450
0.436:445
0.436:451
0.436:440
0.436:403
0.436:387
0.437:405
0.437:388
0.440:364
0.440:361
0.440:361
0.440:341
0.440:331
0.440:353
0.440:377
0.440:399
0.442:399
0.442:398
0.445:388
0.445:415
0.445:427
0.460:427
0.460:424
0.460:407
0.461:376
0.461:352
0.461:343
0.461:339
0.465:330
0.465:335
0.465:325
0.465:312
0.465:312
0.465:345
0.465:362
0.465:362
0.465:371
0.468:391
0.469:401
0.469:392
0.469:378
0.469:376
0.469:381
0.469:382
0.469:388
0.469:382
0.469:360
0.473:332
0.473:308
0.473:297
0.473:301
0.489:327
0.490:349
0.490:328
0.490:314
0.494:344
0.494:386
0.494:387
0.494:378
0.494:399
0.494:425
0.494:432
0.494:418
0.494:405
0.498:361
0.498:356
0.498:362
0.498:373
0.498:371
0.498:349
0.498:337
0.498:305
0.498:292
0.498:317
0.502:367
0.502:432
0.502:444
0.503:447
0.503:425
0.503:388
0.503:382
0.519:382
0.519:352
0.519:333
0.523:373
0.523:412
0.523:428
0.523:418
0.523:399
0.523:368
0.523:341
0.523:328
0.523:363
0.527:398
0.527:404
0.527:421
0.527:391
0.527:374
0.527:385
0.527:406
0.527:434
0.527:455
0.527:467
0.531:430
0.531:404
0.531:381
0.531:371
0.531:375
0.531:377
0.531:357
0.531:346
0.550:358
0.550:354
0.550:358
0.550:379
0.551:400
0.551:399
0.551:415
0.551:449
0.551:475
0.555:473
0.555:472
0.555:476
0.555:483
0.555:471
0.555:432
0.555:397
0.555:386
0.555:410
0.555:404
0.558:404
0.558:396
0.558:379
0.558:363
0.558:381
0.560:417
0.560:403
0.560:377
0.560:391
0.563:433
0.563:469
0.579:469
0.579:504
0.579:503
0.580:489
0.580:476
0.580:466
0.580:449
0.580:436
0.584:436
0.584:433
0.584:430
0.584:426
0.584:419
0.584:408
0.584:406
0.584:395
0.585:392
0.585:438
0.588:479
0.588:518
0.588:517
0.588:496
0.588:477
0.588:496
0.588:510
0.588:494
0.588:468
0.592:446
0.592:443
0.592:423
0.608:404
0.608:415
0.608:425
0.608:421
0.608:412
0.613:427
0.613:442
0.613:461
0.613:446
0.613:442
0.613:469
0.613:495
0.613:505
0.613:493
0.613:492
0.616:470
0.617:442
0.617:434
0.617:429
0.617:423
0.617:417
0.617:419
0.617:434
0.617:454
0.621:444
0.621:443
0.621:433
0.621:436
0.621:431
0.621:459
0.636:459
0.637:475
0.637:497
0.637:502
0.641:504
0.641:505
0.641:467
0.641:438
0.641:432
0.642:444
0.642:438
0.642:434
0.642:435
0.642:426
0.644:417
0.645:431
0.645:465
0.645:505
0.645:516
0.645:501
0.645:497
0.645:514
0.645:519
0.649:533
0.649:533
0.649:461
0.649:410
0.649:439
0.649:454
0.649:453
0.665:414
0.670:392
0.670:396
0.670:410
0.670:390
0.670:382
0.670:414
0.670:433
0.670:442
0.670:449
0.674:472
0.674:504
0.674:524
0.674:533
0.674:526
0.674:499
0.674:477
0.674:452
0.674:435
0.674:446
0.678:445
0.678:417
0.678:410
0.678:402
0.678:394
0.678:400
0.678:429
0.678:459
0.678:459
0.678:465
0.698:465
0.699:498
0.699:508
0.699:521
0.699:532
0.699:522
0.699:510
0.699:495
0.699:477
0.699:461
0.703:450
0.703:423
0.703:420
0.703:427
0.703:441
0.703:462
0.703:472
0.703:452
0.703:449
0.707:463
0.707:485
0.707:500
0.707:526
0.707:520
0.707:503
0.707:471
0.707:459
0.707:461
0.707:470
0.710:428
0.726:393
0.727:393
0.727:432
0.727:472
0.727:434
0.727:389
0.731:405
0.731:460
0.731:487
0.731:491
0.731:495
0.731:489
0.731:507
0.731:547
0.731:549
0.731:530
0.735:503
0.735:471
0.735:441
0.735:427
0.735:411
0.735:411
0.735:412
0.736:423
0.736:415
0.738:423
0.738:424
0.738:425
0.738:434
0.738:464
0.755:464
0.755:496
0.755:523
0.755:522
0.756:486
0.759:453
0.759:450
0.759:458
0.759:474
0.759:465
0.759:445
0.759:453
0.760:438
0.760:432
0.760:426
0.763:413
0.763:411
0.763:429
0.764:451
0.764:465
0.764:492
0.764:510
0.764:507
0.764:506
0.764:518
0.768:540
0.768:547
0.768:518
0.768:505
0.768:499
0.784:498
0.784:486
0.788:454
0.788:412
0.788:381
0.788:375
0.788:389
0.788:419
0.788:462
0.788:517
0.788:512
0.788:473
0.792:466
0.792:504
0.792:520
0.792:508
0.792:472
0.793:470
0.793:481
0.793:471
0.793:432
0.796:398
0.796:394
0.796:425
0.796:443
0.796:410
0.796:373
0.797:395
0.797:452
0.797:471
0.812:471
0.816:473
0.816:489
0.816:527
0.817:560
0.817:537
0.817:505
0.817:494
0.817:489
0.817:476
0.817:456
0.821:439
0.821:411
0.821:393
0.821:393
0.821:412
0.821:410
0.821:431
0.822:464
0.822:474
0.825:492
0.825:509
0.825:514
0.825:520
0.825:543
0.825:555
0.825:535
0.825:506
0.825:476
0.825:422
0.845:403
0.845:406
0.845:398
0.845:373
0.845:385
0.845:435
0.845:454
0.845:431
0.850:435
0.850:460
0.850:477
0.850:490
0.850:493
0.850:470
0.850:478
0.850:497
0.850:522
0.854:540
0.854:509
0.854:476
0.854:464
0.854:470
0.854:450
0.854:440
0.854:444
0.855:463
0.855:479
0.858:465
0.858:449
0.858:463
0.874:463
0.874:482
0.874:473
0.874:486
0.874:502
0.874:511
0.874:506
0.878:499
0.878:488
0.878:457
0.878:413
0.878:393
0.878:406
0.878:409
0.878:432
0.878:453
0.882:466
0.882:450
0.882:421
0.882:412
0.882:424
0.882:458
0.883:482
0.883:520
0.883:539
0.883:527
0.886:488
0.886:479
0.887:480
0.887:478
0.903:477
0.903:466
0.903:452
0.903:454
0.907:443
0.907:423
0.907:435
0.907:441
0.907:428
0.907:453
0.907:494
0.907:531
0.907:536
0.911:572
0.911:560
0.911:504
0.911:453
0.911:447
0.911:464
0.911:459
0.912:448
0.912:443
0.912:444
0.915:451
0.915:434
0.915:429
0.915:446
0.915:474
0.915:466
0.915:445
0.931:445
0.931:463
0.931:487
0.936:490
0.936:511
0.936:518
0.936:528
0.936:533
0.936:530
0.936:535
0.937:533
0.937:530
0.940:498
0.940:473
0.940:445
0.940:436
0.940:426
0.940:420
0.940:442
0.940:466
0.941:472
0.941:469
0.944:490
0.944:498
0.944:508
0.944:503
0.944:512
0.944:530
0.944:543
0.945:547
0.964:543
0.964:534
0.964:514
0.964:501
0.964:468
0.964:475
0.964:467
0.964:441
0.964:438
0.969:454
0.969:483
0.969:486
0.969:491
0.969:491
0.969:505
0.969:509
0.969:510
0.970:505
0.970:501
0.972:491
0.972:482
0.972:491
0.972:513
0.972:523
0.972:500
0.972:479
0.972:465
0.972:451
0.976:450
0.976:465
0.993:465
0.993:514
0.993:522
0.993:468
0.993:394
0.993:400
0.993:440
0.993:488
0.997:508
0.997:477
0.997:437
0.997:427
0.997:447
0.997:447
0.997:439
0.997:430
0.998:426
0.998:408
1.001:397
1.001:428
1.001:456
1.001:461
1.001:445
1.002:453
1.002:462
1.002:478
1.002:491
1.005:508
1.005:501
1.005:492
1.022:486
1.022:460
1.022:452
1.022:475
1.022:499
1.026:476
1.026:439
1.026:404
1.026:401
1.026:414
1.026:423
1.026:454
1.026:448
1.027:443
1.027:433
1.030:466
1.030:516
1.030:535
1.030:513
1.030:511
1.030:524
1.030:507
1.030:497
1.030:496
1.033:507
1.033:450
1.033:405
1.033:402
1.034:401
1.034:409
1.050:409
1.050:429
1.050:429
1.050:434
1.054:462
1.054:473
1.054:496
1.054:498
1.054:502
1.054:516
1.054:516
1.054:498
1.054:473
1.054:452
1.058:445
1.058:465
1.058:463
1.058:443
1.058:423
1.058:429
1.058:432
1.058:438
1.058:486
1.062:520
1.062:494
1.062:460
1.062:509
1.063:552
1.063:566
1.063:560
1.078:554
1.083:545
1.083:531
1.083:521
1.083:545
1.083:581
1.083:603
1.083:602
1.083:606
1.083:625
1.087:629
1.087:635
1.087:682
1.087:733
1.087:755
1.087:763
1.087:803
1.087:828
1.087:856
1.087:898
1.091:925
1.091:970
1.091:960
1.091:954
1.091:936
1.092:926
1.092:882
1.092:800
1.092:733
1.092:661
1.112:661
1.112:630
1.112:594
1.112:544
1.112:490
1.112:449
1.112:435
1.112:410
1.112:384
1.112:383
1.116:413
1.116:446
1.116:450
1.116:368
1.116:291
1.116:290
1.116:326
1.116:331
1.116:326
1.120:330
1.120:318
1.120:300
1.120:320
1.120:361
1.120:389
1.120:440
1.120:440
1.120:445
1.121:448
1.123:446
1.141:450
1.141:444
1.141:422
1.141:393
1.141:396
1.141:398
1.145:410
1.145:403
1.145:390
1.145:389
1.145:404
1.145:402
1.145:410
1.145:439
1.145:473
1.145:478
1.149:470
1.149:475
1.149:490
1.149:484
1.149:476
1.149:468
1.149:448
1.149:449
1.149:445
1.153:416
1.153:393
1.153:402
1.153:414
1.153:420
1.169:420
1.169:410
1.169:377
1.169:379
1.170:406
1.174:418
1.174:428
1.174:436
1.174:481
1.174:504
1.174:504
1.174:504
1.174:489
1.174:472
1.174:472
1.178:482
1.178:486
1.178:485
1.178:453
1.178:438
1.178:432
1.178:431
1.178:455
1.178:483
1.181:514
1.181:505
1.181:480
1.181:477
1.181:475
1.181:466
1.197:496
1.197:536
1.201:581
1.201:548
1.201:487
1.201:457
1.201:432
1.201:407
1.201:420
1.203:425
1.203:433
1.203:439
1.206:425
1.206:420
1.206:451
1.206:471
1.206:491
1.206:476
1.206:481
1.206:487
1.206:501
1.210:525
1.210:529
1.210:516
1.210:483
1.210:475
1.210:471
1.210:443
1.210:437
1.210:446
1.226:446
1.231:450
1.231:430
1.231:404
1.231:427
1.231:477
1.231:480
1.231:466
1.231:471
1.231:493
1.232:519
1.235:541
1.235:530
1.235:504
1.235:490
1.235:493
1.235:502
1.235:505
1.236:508
1.236:494
1.238:449
1.238:410
1.238:400
1.238:427
1.239:447
1.239:469
1.239:502
1.239:511
1.239:515
1.239:534
1.258:564
1.258:555
1.258:544
1.258:537
1.258:524
1.258:505
1.260:509
1.260:517
1.263:518
1.263:495
1.263:492
1.263:496
1.263:518
1.263:495
1.263:473
1.263:477
1.263:489
1.268:505
1.268:516
1.268:520
1.269:538
1.269:544
1.269:534
1.269:524
1.269:533
1.269:539
1.269:556
1.271:559
1.271:555
1.271:527
1.288:527
1.288:496
1.288:479
1.288:482
1.288:519
1.288:534
1.288:513
1.292:508
1.292:505
1.292:506
1.292:510
1.292:524
1.292:571
1.292:585
1.292:573
1.292:573
1.296:561
1.296:551
1.296:507
1.296:499
1.296:482
1.296:471
1.296:498
1.296:501
1.296:512
1.296:536
1.300:559
1.301:572
1.301:569
1.301:573
1.317:577
1.317:561
1.317:564
1.317:559
1.321:559
1.321:577
1.321:577
1.321:565
1.321:561
1.321:551
1.321:547
1.321:533
1.321:522
1.325:513
1.325:542
1.325:582
1.325:605
1.325:603
1.325:604
1.325:603
1.325:601
1.326:596
1.326:599
1.328:606
1.328:596
1.328:597
1.328:590
1.328:558
1.328:541
1.328:552
1.344:552
1.345:536
1.345:509
1.349:530
1.349:545
1.349:554
1.349:552
1.349:570
1.349:578
1.349:584
1.349:589
1.349:607
1.354:628
1.354:615
1.354:612
1.354:621
1.354:621
1.354:590
1.354:572
1.355:568
1.355:526
1.355:495
1.358:474
1.358:468
1.358:483
1.358:500
1.358:533
1.358:540
1.358:538
1.358:525
1.378:502
1.378:487
1.378:487
1.378:481
1.378:492
1.378:505
1.378:496
1.378:499
1.378:503
1.382:485
1.382:457
1.382:446
1.382:426
1.382:413
1.382:413
1.382:399
1.382:414
1.382:434
1.382:416
1.386:413
1.386:454
1.386:478
1.386:487
1.386:478
1.386:471
1.386:445
1.386:418
1.386:409
1.390:405
1.390:379
1.406:379
1.406:348
1.406:337
1.407:325
1.407:340
1.407:354
1.407:351
1.407:384
1.411:407
1.411:404
1.411:409
1.411:411
1.411:401
1.411:399
1.411:378
1.411:359
1.411:337
1.411:333
1.415:376
1.415:384
1.415:373
1.415:350
1.415:352
1.415:331
1.415:314
1.415:317
1.415:334
1.419:340
1.419:341
1.419:354
1.435:370
1.435:398
1.435:416
1.435:436
1.435:450
1.440:411
1.440:397
1.440:388
1.440:370
1.440:363
1.440:381
1.440:377
1.440:364
1.440:343
1.444:324
1.444:319
1.444:332
1.444:351
1.444:381
1.444:391
1.444:367
1.444:322
1.444:372
1.444:417
1.448:442
1.448:439
1.448:433
1.448:427
1.448:427
1.448:426
1.464:426
1.464:402
1.464:333
1.464:323
1.468:344
1.468:363
1.468:374
1.468:363
1.468:351
1.469:342
1.469:352
1.469:380
1.469:400
1.469:408
1.472:423
1.472:444
1.472:462
1.472:453
1.472:419
1.472:422
1.473:457
1.473:453
1.473:433
1.476:381
1.476:347
1.476:340
1.476:348
1.476:363
1.476:404
1.477:420
1.493:426
1.497:431
1.497:446
1.497:450
1.497:457
1.497:463
1.497:468
1.497:470
1.497:462
1.497:435
1.501:407
1.502:400
1.502:381
1.502:378
1.502:385
1.502:388
1.502:394
1.503:384
1.503:369
1.503:382
1.505:406
1.505:425
1.505:449
1.505:470
1.505:496
1.505:501
1.505:496
1.506:486
1.506:434
1.509:393
1.526:393
1.526:384
1.526:375
1.526:376
1.526:398
1.526:391
1.526:385
1.526:400
1.526:396
1.530:426
1.530:452
1.530:459
1.530:447
1.530:435
1.530:442
1.530:475
1.530:495
1.530:502
1.530:496
1.534:464
1.535:433
1.535:434
1.535:453
1.535:429
1.535:398
1.535:377
1.535:361
1.535:406
1.536:452
1.537:495
1.554:507
1.554:487
1.554:468
1.554:456
1.554:456
1.555:484
1.558:507
1.558:522
1.558:509
1.558:442
1.558:428
1.558:443
1.559:459
1.559:460
1.559:460
1.559:431
1.563:409
1.563:398
1.563:400
1.563:403
1.563:411
1.563:440
1.563:457
1.564:488
1.564:531
1.567:545
1.567:530
1.567:505
1.567:479
1.568:438
1.582:438
1.583:419
1.583:441
1.583:443
1.583:441
1.587:429
1.587:414
1.587:416
1.587:426
1.587:414
1.587:411
1.587:409
1.588:423
1.588:460
1.588:475
1.590:462
1.590:457
1.591:500
1.591:551
1.591:554
1.591:516
1.591:488
1.591:467
1.592:469
1.595:467
1.595:475
1.595:470
1.595:440
1.595:400
1.595:384
1.611:387
1.611:402
1.616:415
1.616:446
1.616:494
1.616:502
1.616:503
1.616:521
1.617:555
1.617:563
1.618:540
1.618:505
1.620:481
1.620:461
1.620:437
1.620:439
1.620:425
1.620:432
1.620:421
1.620:389
1.620:397
1.624:401
1.624:414
1.624:439
1.624:472
1.624:480
1.624:481
1.624:479
1.625:492
1.625:499
1.639:499
1.645:490
1.645:495
1.645:502
1.645:503
1.645:468
1.645:437
1.645:416
1.645:422
1.645:438
1.645:423
1.649:427
1.649:436
1.649:449
1.649:461
1.649:493
1.649:530
1.649:546
1.649:539
1.649:517
1.652:484
1.652:484
1.652:486
1.652:449
1.652:410
1.652:402
1.652:423
1.652:437
1.652:441
1.652:439
1.672:452
1.672:481
1.672:483
1.672:508
1.672:501
1.672:491
1.672:467
1.673:464
1.676:472
1.676:489
1.676:520
1.676:494
1.676:486
1.677:469
1.677:443
1.677:417
1.677:420
1.681:420
1.681:410
1.681:420
1.681:434
1.681:464
1.681:470
1.681:471
1.681:473
1.681:474
1.681:490
1.685:528
1.685:572
1.685:554
1.701:554
1.701:508
1.701:466
1.701:450
1.701:438
1.701:453
1.701:452
1.706:441
1.706:423
1.706:422
1.706:444
1.706:455
1.706:449
1.706:438
1.706:450
1.706:464
1.710:489
1.710:496
1.710:498
1.710:517
1.710:540
1.710:532
1.710:490
1.711:462
1.711:440
1.711:425
1.714:403
1.714:406
1.714:410
1.714:420
1.730:413
1.730:448
1.730:514
1.734:519
1.734:530
1.734:540
1.734:538
1.735:505
1.735:477
1.735:465
1.735:470
1.735:484
1.735:464
1.739:482
1.739:516
1.739:493
1.739:454
1.739:409
1.739:427
1.739:444
1.739:428
1.739:402
1.739:402
1.742:408
1.742:420
1.742:475
1.742:521
1.742:522
1.742:513
1.742:500
1.758:500
1.758:499
1.758:529
1.763:517
1.763:476
1.763:455
1.763:452
1.763:439
1.763:449
1.764:466
1.764:464
1.764:431
1.767:417
1.767:447
1.767:470
1.768:482
1.768:464
1.768:475
1.768:483
1.768:496
1.768:502
1.768:516
1.770:513
1.770:490
1.770:491
1.770:480
1.770:460
1.770:422
1.771:404
1.771:412
1.791:406
1.791:406
1.791:419
1.792:445
1.792:462
1.792:453
1.792:461
1.792:496
1.792:500
1.796:502
1.796:511
1.796:517
1.796:515
1.796:494
1.796:481
1.796:472
1.796:472
1.796:462
1.800:434
1.800:441
1.800:454
1.801:481
1.801:480
1.801:484
1.801:484
1.801:479
1.801:477
1.802:477
1.804:477
1.804:493
1.819:493
1.819:495
1.820:493
1.820:500
1.820:481
1.820:451
1.820:423
1.820:424
1.825:440
1.825:446
1.825:436
1.825:417
1.825:404
1.825:417
1.825:455
1.825:457
1.825:465
1.825:467
1.828:486
1.829:500
1.829:505
1.829:497
1.829:519
1.829:552
1.829:534
1.829:497
1.829:466
1.833:455
1.833:433
1.833:425
1.848:452
1.848:465
1.848:443
1.848:432
1.848:462
1.853:465
1.853:470
1.853:489
1.853:499
1.853:494
1.853:496
1.854:537
1.854:552
1.854:484
1.857:449
1.857:454
1.857:469
1.857:473
1.857:459
1.857:442
1.857:451
1.858:454
1.858:428
1.858:429
1.860:456
1.860:481
1.860:484
1.862:496
1.862:518
1.862:504
1.877:504
1.878:498
1.878:508
1.878:523
1.882:520
1.882:509
1.882:490
1.882:469
1.882:460
1.882:442
1.882:409
1.882:415
1.883:407
1.883:377
1.886:378
1.886:416
1.886:448
1.886:478
1.886:494
1.886:500
1.886:499
1.886:516
1.886:522
1.890:521
1.890:526
1.891:490
1.891:465
1.891:464
1.891:470
1.891:462
1.906:432
1.911:409
1.911:408
1.911:438
1.912:464
1.912:476
1.912:482
1.912:494
1.912:505
1.912:513
1.915:502
1.915:521
1.915:554
1.915:563
1.915:546
1.915:502
1.915:491
1.915:488
1.915:453
1.915:408
1.919:433
1.919:435
1.919:413
1.919:415
1.919:480
1.919:501
1.919:491
1.920:463
1.920:460
1.922:479
1.939:479
1.939:507
1.939:511
1.939:531
1.939:529
1.939:520
1.939:470
1.939:449
1.939:450
1.943:457
1.943:439
1.943:420
1.943:436
1.943:453
1.943:462
1.943:468
1.943:478
1.943:482
1.943:497
1.947:510
1.947:538
1.947:559
1.947:547
1.947:534
1.947:515
1.947:498
1.947:505
1.947:520
1.947:483
1.951:464
1.967:476
1.967:474
1.967:451
1.967:440
1.967:454
1.967:492
1.972:494
1.972:504
1.972:532
1.972:581
1.972:584
1.972:544
1.972:523
1.972:518
1.972:524
1.972:512
1.976:492
1.976:492
1.976:493
1.976:488
1.976:489
1.976:494
1.976:492
1.976:474
1.977:484
1.980:491
1.980:504
1.980:494
1.980:481
1.980:489
1.996:489
1.996:488
1.996:490
1.996:481
1.996:484
2.000:482
2.000:466
2.000:441
2.000:441
2.002:448
2.002:439
2.002:417
2.002:416
2.002:419
2.002:409
2.005:402
2.005:417
2.005:442
2.005:443
2.005:453
2.005:495
2.005:527
2.005:530
2.005:505
2.009:480
2.009:461
2.009:493
2.009:499
2.009:490
2.009:485
2.025:497
2.025:484
2.029:455
2.029:397
2.029:352
2.030:371
2.030:415
2.030:436
2.030:465
2.030:482
2.030:494
2.030:493
2.033:476
2.033:495
2.033:514
2.033:495
2.033:455
2.034:421
2.034:425
2.034:429
2.034:452
2.037:478
2.037:463
2.037:441
2.037:437
2.037:430
2.037:428
2.037:448
2.037:475
2.037:463
2.053:463
2.058:488
2.058:523
2.058:547
2.058:528
2.058:489
2.058:464
2.058:453
2.058:458
2.058:470
2.058:492
2.062:497
2.062:458
2.062:418
2.062:421
2.062:432
2.063:438
2.063:440
2.063:452
2.063:478
2.066:504
2.066:509
2.066:527
2.066:532
2.067:513
2.067:503
2.067:506
2.067:507
2.068:496
2.068:476
2.087:446
2.087:400
2.087:385
2.087:426
2.087:477
2.088:496
2.088:489
2.088:496
2.090:539
2.090:584
2.091:579
2.091:615
2.091:654
2.091:668
2.091:657
2.092:653
2.092:675
2.094:674
2.095:691
2.095:704
2.095:726
2.095:752
2.095:764
2.096:788
2.096:785
2.096:767
2.096:784
2.098:872
2.098:914
2.098:938
2.115:938
2.115:931
2.115:921
2.115:950
2.115:986
2.116:965
2.116:883
2.118:773
2.120:701
2.120:659
2.120:580
2.121:492
2.121:439
2.121:402
2.122:381
2.122:364
2.123:350
2.124:347
2.124:341
2.124:341
2.124:345
2.124:323
2.124:339
2.125:356
2.125:376
2.125:393
2.127:407
2.127:390
2.128:340
2.128:323
2.143:343
2.144:367
2.144:387
2.148:392
2.148:376
2.148:369
2.148:382
2.148:400
2.148:391
2.148:410
2.148:442
2.149:453
2.149:492
2.152:493
2.152:483
2.153:452
2.153:450
2.153:450
2.153:462
2.153:460
2.154:476
2.154:471
2.154:428
2.156:419
2.156:404
2.156:385
2.156:365
2.157:368
2.157:395
2.157:423
2.172:423
2.172:454
2.172:457
2.176:485
2.177:480
2.177:455
2.177:453
2.177:493
2.177:520
2.177:480
2.178:432
2.178:417
2.180:431
2.180:425
2.181:409
2.181:391
2.181:392
2.181:400
2.182:403
2.182:426
2.182:443
2.182:431
2.185:438
2.185:477
2.185:520
2.185:512
2.185:480
2.186:450
2.186:447
2.186:446
2.205:483
2.205:502
2.206:502
2.206:469
2.206:446
2.206:440
2.206:432
2.207:419
2.207:390
2.209:393
2.209:458
2.209:512
2.209:538
2.209:545
2.210:539
2.210:521
2.210:510
2.210:492
2.213:487
2.214:486
2.214:477
2.214:467
2.214:453
2.214:428
2.215:431
2.215:448
2.215:452
2.215:444
2.217:453
2.217:469
2.233:469
2.233:458
2.233:427
2.234:433
2.234:476
2.234:514
2.234:518
2.234:551
2.237:572
2.238:541
2.238:515
2.238:481
2.238:469
2.238:473
2.239:454
2.239:449
2.239:447
2.240:438
2.242:433
2.242:449
2.242:486
2.242:507
2.243:501
2.243:489
2.243:505
2.243:511
2.243:537
2.246:564
2.246:532
2.246:486
2.262:481
2.262:492
2.262:501
2.262:514
2.262:516
2.266:492
2.266:463
2.267:459
2.267:449
2.267:431
2.267:443
2.267:455
2.268:481
2.268:504
2.270:525
2.271:550
2.271:574
2.271:575
2.271:563
2.272:524
2.272:494
2.272:489
2.273:486
2.273:484
2.274:471
2.274:472
2.275:472
2.275:473
2.275:499
2.275:503
2.291:503
2.291:517
2.291:528
2.291:531
2.295:526
2.295:537
2.296:549
2.296:568
2.296:590
2.296:590
2.296:600
2.296:584
2.297:552
2.300:536
2.300:520
2.300:499
2.300:511
2.300:499
2.300:500
2.301:509
2.301:502
2.301:510
2.301:515
2.303:542
2.303:533
2.303:521
2.303:557
2.304:595
2.304:597
2.304:590
2.320:586
2.324:581
2.324:579
2.324:566
2.324:558
2.325:531
2.325:515
2.325:529
2.325:538
2.325:549
2.328:546
2.328:533
2.328:516
2.328:538
2.328:560
2.328:596
2.328:600
2.330:610
2.330:608
2.330:592
2.332:584
2.332:557
2.332:548
2.333:569
2.333:581
2.333:580
2.334:598
2.334:597
2.334:563
2.335:518
2.352:518
2.353:542
2.353:584
2.353:561
2.353:546
2.354:564
2.354:607
2.354:639
2.354:628
2.356:602
2.357:603
2.357:615
2.357:609
2.357:604
2.357:607
2.357:606
2.358:578
2.358:566
2.358:551
2.361:523
2.361:507
2.361:516
2.361:544
2.361:558
2.361:567
2.361:580
2.361:610
2.362:625
2.364:624
2.364:661
2.381:661
2.381:613
2.381:558
2.381:549
2.382:547
2.382:546
2.385:507
2.385:453
2.385:435
2.385:428
2.385:429
2.386:427
2.386:467
2.386:492
2.386:506
2.386:488
2.389:493
2.390:500
2.390:490
2.390:490
2.390:494
2.390:480
2.390:471
2.390:477
2.390:460
2.393:448
2.393:417
2.394:383
2.394:363
2.394:368
2.410:368
2.410:369
2.411:375
2.411:394
2.411:392
2.414:396
2.414:399
2.414:429
2.415:451
2.415:460
2.415:456
2.416:423
2.417:399
2.417:399
2.417:394
2.418:384
2.418:384
2.418:387
2.419:417
2.419:401
2.419:321
2.419:266
2.419:291
2.419:339
2.421:336
2.422:335
2.422:344
2.422:343
2.422:355
2.422:361
2.438:368
2.438:389
2.443:383
2.443:358
2.443:358
2.443:349
2.444:348
2.444:327
2.444:325
2.444:338
2.444:349
2.445:361
2.447:389
2.447:409
2.447:396
2.447:390
2.448:367
2.448:362
2.448:398
2.448:448
2.448:463
2.450:465
2.451:453
2.451:431
2.451:412
2.452:371
2.452:334
2.453:312
2.453:334
2.453:345
2.466:345
2.471:331
2.471:313
2.471:336
2.471:355
2.471:364
2.472:380
2.472:393
2.472:430
2.472:433
2.472:417
2.475:409
2.475:391
2.475:360
2.475:345
2.475:380
2.476:380
2.476:366
2.476:353
2.476:358
2.480:362
2.480:364
2.480:382
2.480:387
2.481:405
2.481:419
2.481:420
2.481:424
2.481:462
2.481:480
2.500:463
2.500:447
2.500:479
2.500:487
2.500:443
2.500:402
2.501:396
2.501:398
2.504:378
2.504:348
2.504:350
2.505:367
2.505:384
2.505:400
2.505:411
2.505:404
2.506:414
2.508:444
2.508:486
2.508:497
2.508:486
2.508:484
2.508:477
2.510:460
2.510:449
2.510:435
2.510:397
2.512:373
2.512:374
2.512:387
2.528:387
2.528:374
2.528:375
2.529:386
2.529:408
2.529:407
2.529:420
2.533:422
2.533:409
2.533:433
2.533:458
2.533:456
2.533:491
2.533:513
2.533:495
2.533:491
2.537:419
2.537:364
2.538:373
2.538:393
2.538:393
2.538:381
2.538:374
2.538:389
2.538:417
2.538:420
2.541:412
2.541:428
2.541:452
2.542:474
2.557:478
2.557:482
2.558:500
2.561:508
2.561:502
2.561:478
2.562:463
2.562:445
2.563:430
2.563:420
2.563:433
2.564:427
2.564:410
2.565:421
2.566:420
2.566:428
2.566:461
2.567:486
2.567:520
2.567:519
2.567:508
2.568:477
2.569:475
2.569:496
2.569:507
2.569:484
2.569:444
2.569:444
2.569:448
2.570:434
2.585:434
2.586:419
2.590:418
2.590:414
2.590:407
2.590:418
2.591:433
2.591:439
2.591:457
2.591:478
2.591:501
2.591:516
2.594:512
2.594:523
2.595:509
2.595:490
2.595:470
2.595:466
2.595:446
2.596:440
2.596:444
2.596:431
2.598:417
2.598:403
2.598:412
2.598:452
2.598:480
2.598:490
2.599:472
2.599:444
2.618:442
2.618:473
2.618:493
2.620:498
2.620:497
2.621:464
2.621:432
2.621:438
2.621:461
2.623:487
2.623:500
2.623:472
2.623:461
2.623:449
2.624:416
2.624:379
2.624:436
2.624:469
2.627:488
2.627:489
2.627:475
2.627:475
2.627:472
2.628:453
2.628:443
2.628:455
2.628:473
2.628:463
2.630:458
2.630:453
2.647:453
2.647:429
2.647:418
2.648:424
2.648:411
2.648:403
2.648:426
2.648:454
2.651:491
2.652:505
2.652:527
2.653:510
2.653:535
2.654:540
2.654:513
2.654:495
2.654:474
2.656:462
2.656:476
2.656:480
2.656:464
2.656:444
2.657:435
2.657:427
2.657:411
2.657:410
2.657:432
2.660:469
2.660:498
2.660:498
2.676:485
2.676:474
2.676:467
2.677:461
2.677:462
2.680:474
2.680:491
2.680:478
2.682:467
2.682:439
2.682:399
2.682:384
2.683:418
2.683:450
2.684:458
2.685:453
2.685:451
2.686:465
2.686:482
2.686:493
2.687:518
2.687:530
2.688:529
2.688:514
2.688:507
2.688:504
2.688:480
2.688:472
2.688:470
2.689:458
2.703:458
2.703:435
2.703:436
2.703:462
2.709:473
2.709:446
2.709:413
2.709:406
2.710:420
2.710:432
2.710:445
2.710:480
2.710:482
2.713:480
2.713:474
2.713:486
2.713:479
2.713:443
2.714:428
2.714:457
2.714:467
2.714:432
2.714:444
2.716:443
2.717:428
2.717:424
2.717:455
2.717:461
2.717:454
2.718:451
2.732:469
2.737:485
2.738:489
2.738:496
2.738:493
2.738:514
2.738:518
2.739:517
2.739:510
2.739:496
2.742:466
2.742:433
2.742:423
2.742:386
2.742:384
2.743:417
2.743:458
2.743:474
2.743:457
2.743:479
2.746:490
2.746:496
2.746:488
2.747:484
2.747:518
2.747:552
2.747:561
2.747:520
2.747:466
2.750:416
2.766:416
2.766:415
2.768:401
2.768:402
2.768:409
2.768:404
2.768:392
2.769:405
2.769:447
2.770:473
2.770:497
2.771:511
2.771:531
2.771:540
2.771:549
2.771:545
2.772:522
2.772:511
2.772:503
2.774:487
2.774:461
2.774:433
2.774:419
2.774:435
2.774:427
2.774:424
2.776:415
2.776:420
2.778:441
2.778:444
2.794:462
2.794:482
2.794:496
2.795:487
2.795:500
2.795:504
2.799:516
2.800:511
2.800:527
2.800:516
2.800:491
2.800:489
2.800:476
2.800:452
2.801:440
2.801:442
2.803:416
2.803:400
2.803:419
2.803:438
2.803:439
2.804:432
2.804:462
2.804:472
2.804:476
2.807:501
2.807:522
2.807:513
2.807:496
2.807:483
2.823:483
2.823:453
2.823:428
2.823:413
2.823:423
2.828:437
2.828:448
2.828:455
2.828:478
2.829:513
2.829:532
2.829:560
2.829:526
2.829:494
2.830:455
2.832:465
2.832:486
2.832:491
2.833:497
2.833:487
2.834:479
2.834:476
2.834:453
2.834:425
2.836:421
2.836:417
2.836:427
2.836:423
2.837:417
2.837:415
2.852:421
2.852:438
2.856:480
2.856:505
2.856:503
2.856:523
2.857:526
2.857:516
2.857:510
2.857:510
2.857:499
2.858:477
2.860:460
2.860:439
2.861:429
2.861:439
2.861:436
2.861:418
2.861:411
2.861:428
2.862:454
2.864:475
2.864:475
2.864:494
2.864:503
2.865:513
2.865:516
2.865:491
2.865:484
2.865:475
2.880:475
2.885:480
2.886:481
2.886:485
2.886:467
2.887:467
2.887:452
2.888:439
2.888:426
2.888:430
2.889:451
2.889:474
2.889:493
2.889:485
2.890:497
2.890:515
2.890:535
2.890:514
2.890:520
2.890:532
2.893:494
2.893:495
2.893:464
2.893:428
2.894:419
2.894:437
2.894:422
2.894:394
2.894:406
2.894:440
2.913:468
2.913:474
2.913:480
2.914:493
2.914:505
2.914:526
2.914:545
2.917:550
2.917:543
2.917:517
2.917:491
2.917:479
2.918:479
2.918:475
2.918:462
2.918:445
2.919:443
2.922:425
2.922:424
2.922:442
2.922:449
2.923:441
2.923:448
2.923:455
2.923:496
2.923:525
2.923:541
2.926:534
2.926:533
2.926:525
2.942:525
2.942:498
2.942:518
2.943:517
2.943:484
2.943:443
2.943:445
2.946:447
2.946:472
2.946:475
2.947:458
2.947:465
2.947:470
2.947:488
2.947:511
2.947:534
2.951:534
2.951:527
2.951:493
2.951:474
2.952:502
2.952:477
2.952:475
2.953:474
2.953:463
2.953:449
2.954:454
2.954:462
2.954:440
2.955:433
2.970:453
2.970:529
2.971:579
2.975:580
2.975:553
2.975:550
2.975:554
2.975:537
2.976:522
2.976:517
2.976:550
2.976:535
2.976:505
2.979:477
2.980:456
2.980:433
2.980:420
2.980:408
2.981:421
2.981:439
2.981:459
2.981:494
2.983:514
2.983:509
2.984:470
2.984:465
2.984:481
2.984:491
2.984:495
2.984:497
3.000:497
3.000:501
3.004:492
3.004:474
3.004:446
3.004:424
3.005:404
3.005:400
3.005:383
3.005:371
3.005:383
3.005:396
3.008:429
3.008:452
3.008:475
3.008:494
3.008:484
3.009:518
3.009:534
3.009:521
3.009:490
3.009:482
3.011:475
3.011:482
3.012:474
3.012:461
3.012:425
3.012:426
3.012:433
3.013:427
3.033:444
3.033:469
3.033:453
3.033:439
3.033:463
3.033:511
3.034:528
3.034:537
3.034:534
3.036:499
3.036:431
3.036:422
3.036:453
3.037:466
3.037:456
3.037:456
3.037:424
3.037:403
3.041:391
3.041:386
3.041:391
3.041:426
3.041:475
3.041:474
3.041:464
3.041:485
3.042:528
3.042:544
3.045:520
3.045:506
3.060:506
3.061:491
3.061:478
3.061:495
3.061:491
3.061:451
3.061:471
3.062:468
3.066:438
3.066:434
3.066:460
3.067:457
3.067:429
3.067:435
3.067:464
3.068:471
3.068:458
3.068:467
3.068:502
3.068:571
3.068:597
3.070:571
3.070:551
3.071:515
3.071:479
3.071:458
3.071:466
3.073:477
3.073:503
3.073:529
3.090:540
3.090:574
3.090:559
3.090:544
3.090:569
3.094:615
3.094:651
3.094:690
3.094:714
3.094:726
3.095:734
3.095:781
3.095:835
3.095:827
3.098:822
3.098:834
3.098:850
3.098:866
3.100:891
3.100:903
3.100:911
3.100:915
3.100:917
3.100:895
3.102:857
3.102:813
3.102:770
3.102:746
3.103:709
3.103:640
3.118:640
3.119:565
3.119:510
3.119:466
3.122:415
3.122:388
3.122:377
3.122:378
3.123:335
3.123:293
3.123:250
3.123:233
3.123:265
3.127:299
3.127:341
3.127:361
3.127:359
3.128:370
3.128:423
3.128:473
3.128:484
3.128:479
3.129:458
3.130:427
3.130:411
3.130:425
3.130:405
3.130:393
3.130:360
3.130:381
3.147:396
3.150:405
3.151:403
3.151:372
3.151:383
3.152:429
3.152:440
3.152:450
3.153:451
3.153:439
3.155:461
3.155:482
3.155:480
3.155:467
3.155:434
3.156:432
3.156:430
3.156:425
3.156:419
3.156:418
3.158:417
3.158:408
3.160:406
3.160:425
3.160:448
3.160:452
3.160:448
3.160:431
3.160:444
3.163:452
3.180:452
3.180:458
3.180:473
3.180:489
3.181:498
3.181:484
3.181:466
3.181:461
3.181:455
3.183:421
3.183:401
3.183:384
3.183:394
3.185:430
3.185:476
3.185:502
3.185:478
3.186:443
3.186:409
3.188:434
3.188:471
3.188:494
3.188:502
3.188:485
3.188:485
3.189:470
3.189:466
3.189:467
3.192:464
3.192:460
3.208:436
3.208:438
3.208:458
3.208:470
3.208:469
3.208:460
3.213:457
3.213:456
3.213:464
3.213:489
3.213:513
3.214:516
3.214:502
3.214:481
3.214:469
3.214:452
3.217:470
3.217:473
3.217:480
3.218:463
3.218:452
3.218:445
3.218:436
3.218:426
3.218:452
3.220:483
3.220:477
3.220:469
3.220:481
3.220:514
3.236:514
3.237:545
3.237:560
3.237:551
3.237:555
3.241:554
3.241:521
3.241:492
3.241:473
3.242:472
3.242:473
3.242:452
3.242:424
3.242:422
3.243:447
3.245:486
3.245:493
3.245:486
3.246:502
3.246:522
3.246:521
3.246:541
3.246:542
3.246:547
3.249:530
3.249:518
3.249:523
3.251:548
3.251:548
3.251:509
3.265:467
3.266:443
3.269:435
3.270:412
3.270:411
3.270:430
3.270:464
3.270:481
3.270:496
3.270:530
3.271:557
3.274:567
3.274:598
3.274:585
3.274:526
3.274:483
3.274:468
3.275:485
3.275:483
3.275:476
3.275:482
3.278:481
3.278:506
3.278:504
3.278:496
3.278:497
3.279:506
3.279:523
3.279:540
3.279:551
3.294:551
3.299:547
3.299:539
3.301:545
3.301:572
3.301:589
3.302:574
3.302:536
3.302:521
3.302:508
3.302:505
3.303:487
3.303:483
3.303:488
3.304:474
3.304:470
3.304:513
3.304:555
3.304:563
3.304:550
3.307:545
3.307:582
3.307:607
3.307:577
3.307:572
3.307:618
3.308:626
3.308:588
3.308:536
3.308:523
3.327:519
3.327:510
3.327:518
3.327:527
3.328:542
3.328:556
3.328:552
3.331:564
3.331:576
3.331:588
3.332:622
3.332:644
3.333:640
3.333:634
3.333:620
3.333:595
3.333:562
3.335:572
3.336:584
3.336:591
3.336:577
3.336:591
3.336:596
3.336:559
3.336:534
3.336:521
3.339:551
3.339:580
3.339:573
3.339:568
3.356:568
3.356:578
3.356:578
3.356:586
3.356:611
3.357:642
3.357:648
3.359:608
3.359:556
3.360:536
3.360:537
3.360:533
3.360:536
3.360:528
3.360:533
3.362:537
3.364:545
3.364:561
3.364:582
3.364:591
3.365:561
3.366:539
3.366:544
3.366:573
3.366:583
3.367:588
3.368:568
3.368:533
3.368:498
3.368:471
3.384:451
3.384:456
3.384:466
3.388:446
3.388:428
3.389:429
3.389:416
3.390:431
3.390:447
3.390:452
3.390:470
3.390:501
3.391:491
3.393:499
3.393:495
3.393:521
3.393:497
3.394:456
3.394:441
3.394:416
3.394:398
3.394:376
3.397:384
3.397:377
3.397:370
3.397:356
3.398:363
3.398:373
3.398:362
3.398:362
3.413:362
3.413:387
3.417:407
3.418:421
3.418:423
3.418:417
3.419:408
3.419:391
3.419:379
3.419:379
3.419:396
3.420:389
3.420:362
3.422:383
3.422:376
3.422:336
3.422:323
3.422:342
3.422:357
3.423:352
3.423:354
3.423:368
3.425:382
3.425:386
3.426:385
3.426:393
3.426:405
3.426:384
3.426:364
3.427:356
3.446:347
3.446:351
3.446:341
3.446:332
3.446:339
3.447:357
3.447:362
3.447:365
3.447:373
3.450:377
3.451:373
3.451:372
3.451:419
3.451:433
3.451:428
3.452:443
3.452:445
3.452:455
3.454:412
3.454:367
3.454:357
3.454:365
3.454:351
3.455:336
3.455:335
3.455:340
3.455:347
3.455:343
3.458:337
3.458:342
3.475:342
3.475:362
3.475:375
3.475:405
3.475:442
3.476:458
3.476:462
3.476:466
3.479:459
3.479:415
3.479:389
3.479:389
3.479:374
3.479:355
3.480:359
3.480:356
3.480:367
3.482:365
3.483:380
3.483:403
3.483:441
3.483:427
3.483:409
3.483:416
3.484:423
3.484:440
3.484:453
3.486:476
3.486:473
3.487:448
3.503:438
3.503:417
3.503:397
3.504:394
3.504:400
3.507:407
3.507:446
3.508:429
3.508:371
3.508:366
3.508:403
3.509:427
3.509:447
3.509:481
3.511:490
3.511:476
3.511:457
3.511:458
3.512:453
3.512:440
3.512:425
3.512:429
3.512:441
3.512:396
3.515:369
3.516:381
3.516:400
3.516:381
3.516:369
3.516:387
3.532:387
3.532:414
3.532:447
3.533:466
3.536:474
3.536:473
3.536:490
3.536:502
3.536:511
3.537:504
3.537:473
3.537:430
3.537:422
3.540:411
3.540:410
3.540:410
3.540:417
3.540:419
3.540:392
3.540:385
3.540:402
3.541:438
3.541:452
3.544:475
3.545:494
3.545:513
3.545:500
3.545:466
3.545:456
3.546:494
3.560:474
3.564:487
3.564:449
3.565:416
3.566:409
3.566:393
3.566:389
3.566:415
3.566:434
3.566:436
3.569:443
3.569:452
3.569:473
3.569:475
3.569:467
3.569:457
3.569:460
3.569:464
3.570:452
3.570:445
3.573:446
3.573:463
3.573:473
3.574:474
3.574:448
3.574:433
3.574:424
3.574:439
3.574:440
3.577:435
3.593:435
3.593:467
3.594:473
3.594:475
3.594:487
3.594:501
3.594:459
3.594:470
3.595:484
3.597:493
3.598:509
3.598:495
3.598:457
3.599:428
3.599:437
3.599:451
3.601:453
3.601:432
3.601:424
3.601:428
3.601:420
3.602:430
3.602:447
3.602:486
3.602:472
3.602:466
3.603:464
3.603:476
3.605:495
3.605:509
3.621:508
3.622:504
3.622:481
3.622:473
3.622:474
3.622:443
3.626:437
3.626:439
3.626:437
3.626:421
3.627:422
3.627:450
3.627:468
3.627:452
3.627:440
3.627:456
3.629:486
3.631:500
3.631:518
3.631:560
3.631:548
3.631:488
3.631:439
3.631:432
3.632:434
3.634:406
3.634:398
3.634:398
3.634:433
3.634:445
3.650:445
3.650:448
3.650:457
3.650:462
3.651:481
3.655:477
3.655:472
3.655:478
3.655:485
3.655:475
3.656:463
3.656:464
3.656:466
3.656:496
3.656:499
3.659:468
3.659:430
3.659:431
3.659:442
3.660:444
3.660:433
3.660:435
3.660:457
3.660:465
3.663:480
3.663:475
3.664:506
3.664:512
3.664:508
3.664:495
3.678:500
3.679:503
3.683:475
3.683:468
3.684:476
3.684:488
3.684:483
3.684:440
3.684:420
3.685:426
3.685:437
3.688:430
3.688:451
3.688:460
3.688:455
3.688:461
3.689:492
3.689:486
3.689:504
3.689:525
3.689:514
3.692:489
3.692:476
3.692:466
3.692:455
3.693:454
3.693:448
3.693:462
3.693:469
3.693:469
3.707:469
3.712:460
3.712:426
3.712:427
3.712:448
3.712:459
3.712:464
3.712:475
3.712:488
3.712:496
3.712:495
3.716:499
3.716:501
3.716:479
3.716:451
3.716:469
3.718:509
3.718:471
3.718:453
3.718:449
3.720:454
3.720:459
3.720:403
3.720:380
3.720:396
3.720:411
3.720:440
3.720:466
3.721:498
3.721:544
3.741:560
3.741:531
3.741:493
3.741:483
3.741:465
3.741:429
3.741:436
3.745:433
3.745:431
3.745:427
3.745:427
3.745:421
3.746:408
3.746:444
3.746:477
3.746:483
3.746:480
3.749:490
3.749:487
3.749:501
3.750:515
3.750:519
3.750:539
3.750:512
3.750:495
3.750:472
3.753:461
3.753:455
3.753:451
3.753:438
3.769:438
3.769:427
3.769:453
3.769:462
3.769:487
3.769:479
3.774:482
3.774:512
3.774:546
3.774:527
3.774:477
3.774:476
3.774:493
3.774:503
3.774:479
3.774:450
3.778:423
3.778:419
3.778:416
3.778:429
3.779:436
3.779:437
3.779:441
3.779:445
3.779:448
3.779:466
3.781:472
3.781:460
3.783:469
3.783:476
3.797:500
3.797:514
3.799:527
3.802:522
3.802:492
3.802:480
3.802:495
3.803:494
3.803:469
3.803:441
3.803:413
3.803:407
3.804:439
3.806:452
3.806:470
3.806:488
3.806:497
3.807:473
3.807:465
3.807:466
3.807:497
3.807:519
3.810:504
3.810:499
3.810:477
3.810:471
3.810:472
3.810:473
3.810:452
3.810:433
3.826:433
3.826:431
3.831:405
3.831:401
3.831:412
3.831:447
3.833:434
3.833:429
3.833:461
3.833:484
3.834:513
3.834:529
3.835:551
3.835:561
3.835:558
3.835:543
3.836:525
3.836:488
3.836:477
3.836:450
3.837:411
3.839:398
3.839:391
3.839:386
3.839:408
3.839:446
3.840:471
3.840:503
3.840:530
3.840:533
3.860:533
3.860:549
3.860:531
3.860:497
3.860:477
3.860:459
3.860:443
3.860:440
3.860:453
3.864:453
3.864:448
3.864:421
3.864:418
3.864:430
3.864:441
3.865:471
3.865:483
3.866:486
3.867:479
3.867:505
3.868:517
3.868:511
3.868:522
3.868:515
3.868:485
3.868:458
3.868:452
3.870:450
3.871:451
3.872:457
3.887:457
3.888:442
3.888:413
3.888:407
3.888:424
3.888:428
3.889:431
3.889:440
3.892:486
3.892:516
3.893:533
3.893:538
3.893:521
3.893:500
3.894:487
3.894:468
3.894:454
3.897:476
3.897:497
3.897:472
3.897:439
3.898:420
3.898:405
3.899:408
3.899:435
3.900:468
3.900:495
3.900:477
3.900:443
3.900:427
3.916:450
3.916:485
3.917:507
3.917:517
3.917:504
3.921:502
3.921:509
3.921:505
3.921:483
3.921:456
3.921:419
3.922:403
3.922:406
3.922:408
3.925:428
3.925:471
3.925:503
3.925:520
3.926:517
3.926:497
3.926:486
3.926:485
3.926:505
3.927:522
3.928:520
3.928:510
3.928:485
3.928:470
3.930:455
3.930:442
3.945:442
3.945:435
3.945:446
3.946:458
3.948:461
3.948:457
3.950:452
3.950:478
3.950:490
3.950:490
3.950:494
3.950:500
3.950:492
3.954:500
3.954:509
3.954:502
3.954:504
3.955:510
3.955:495
3.955:465
3.955:460
3.955:463
3.956:457
3.958:461
3.958:463
3.958:462
3.958:459
3.958:468
3.958:469
3.959:448
3.973:462
3.978:487
3.978:492
3.978:512
3.978:538
3.978:555
3.978:540
3.978:492
3.979:449
3.979:455
3.982:439
3.983:427
3.983:444
3.983:440
3.983:430
3.984:413
3.984:417
3.984:454
3.984:524
3.984:562
3.986:526
3.986:501
3.986:503
3.987:508
3.987:513
3.987:511
3.987:512
3.987:513
3.988:499
3.990:454
4.006:454
4.007:434
4.007:462
4.007:467
4.007:427
4.007:390
4.008:406
4.008:447
4.008:474
4.010:497
4.010:505
4.010:489
4.011:492
4.011:516
4.011:505
4.011:488
4.011:457
4.011:449
4.012:469
4.015:480
4.015:471
4.015:466
4.015:459
4.015:466
4.017:454
4.017:435
4.017:414
4.017:424
4.019:448
4.019:474
4.035:495
4.036:515
4.036:540
4.036:540
4.036:515
4.036:519
4.040:532
4.040:507
4.040:489
4.040:492
4.040:495
4.041:479
4.041:463
4.041:428
4.041:411
4.044:409
4.044:418
4.044:415
4.044:414
4.045:440
4.045:485
4.045:503
4.045:506
4.045:509
4.046:508
4.048:517
4.049:519
4.049:509
4.049:502
4.049:493
4.064:493
4.064:508
4.064:506
4.064:464
4.065:411
4.069:409
4.069:416
4.069:437
4.069:446
4.069:468
4.069:489
4.069:503
4.069:507
4.070:522
4.070:529
4.072:519
4.072:516
4.072:510
4.072:499
4.072:499
4.073:513
4.073:513
4.073:477
4.073:438
4.077:418
4.077:434
4.077:464
4.077:489
4.078:490
4.078:505
4.092:482
4.093:455
4.097:493
4.097:511
4.097:487
4.098:489
4.098:506
4.098:511
4.098:512
4.098:506
4.100:504
4.101:503
4.101:490
4.101:470
4.102:440
4.102:436
4.102:460
4.102:474
4.102:485
4.102:508
4.103:529
4.105:536
4.105:554
4.105:568
4.105:568
4.106:563
4.106:567
4.106:579
4.106:570
4.106:552
4.121:552
4.126:501
4.126:452
4.126:451
4.126:449
4.127:437
4.127:429
4.127:420
4.127:421
4.127:441
4.130:474
4.130:524
4.130:567
4.130:562
4.130:525
4.131:514
4.131:525
4.131:539
4.131:525
4.131:475
4.134:457
4.134:446
4.134:425
4.134:383
4.135:384
4.135:403
4.135:434
4.135:448
4.135:430
4.136:441
4.154:464
4.154:466
4.154:452
4.155:463
4.155:469
4.155:505
4.155:508
4.159:505
4.159:514
4.159:504
4.159:505
4.159:509
4.159:486
4.159:438
4.159:415
4.160:400
4.160:393
4.162:388
4.162:401
4.162:414
4.162:435
4.162:449
4.162:466
4.162:515
4.164:530
4.164:542
4.166:534
4.166:522
4.166:509
4.166:489
4.183:489
4.183:475
4.183:458
4.183:460
4.183:445
4.184:417
4.187:390
4.187:395
4.187:404
4.187:416
4.188:439
4.188:464
4.188:485
4.188:482
4.188:463
4.188:497
4.190:516
4.191:514
4.191:538
4.191:559
4.191:497
4.191:435
4.191:421
4.192:437
4.192:432
4.195:428
4.195:436
4.195:453
4.195:446
4.196:445
4.211:460
4.211:471
4.211:481
4.215:487
4.216:517
4.216:531
4.216:529
4.216:505
4.216:490
4.216:499
4.216:517
4.217:504
4.217:485
4.220:483
4.220:477
4.220:457
4.220:446
4.220:447
4.220:419
4.221:413
4.221:438
4.221:484
4.224:533
4.224:547
4.224:549
4.224:531
4.224:551
4.224:562
4.224:567
4.226:598
4.240:598
4.240:616
4.245:624
4.245:617
4.245:593
4.245:576
4.246:580
4.246:586
4.246:602
4.246:630
4.246:654
4.247:683
4.248:742
4.248:811
4.249:865
4.249:907
4.249:930
4.249:960
4.250:990
4.250:990
4.250:989
4.253:989
4.253:967
4.253:943
4.253:916
4.254:862
4.254:802
4.254:713
4.254:638
4.255:583
4.273:529
4.273:486
4.273:431
4.273:400
4.273:390
4.274:394
4.274:381
4.274:368
4.274:365
4.277:368
4.277:371
4.277:369
4.277:361
4.277:356
4.278:362
4.278:341
4.278:321
4.278:307
4.281:329
4.281:353
4.281:366
4.281:385
4.281:409
4.281:451
4.283:476
4.283:493
4.283:481
4.283:472
4.285:459
4.285:462
4.302:462
4.302:467
4.302:446
4.302:420
4.303:448
4.303:464
4.303:420
4.303:392
4.305:380
4.305:357
4.306:344
4.306:369
4.306:391
4.307:413
4.307:418
4.307:440
4.307:464
4.310:480
4.310:485
4.310:472
4.310:475
4.310:485
4.310:467
4.310:438
4.311:411
4.311:401
4.311:413
4.314:433
4.315:430
4.315:435
4.330:434
4.331:415
4.331:425
4.331:438
4.331:454
4.335:460
4.335:482
4.335:475
4.335:481
4.335:458
4.335:458
4.336:473
4.336:474
4.336:489
4.339:489
4.339:450
4.339:412
4.339:406
4.339:398
4.339:401
4.339:408
4.340:414
4.340:420
4.340:439
4.342:465
4.342:483
4.342:505
4.342:507
4.343:493
4.343:486
4.358:486
4.358:501
4.358:508
4.358:492
4.363:460
4.363:474
4.363:500
4.363:466
4.363:466
4.363:469
4.363:466
4.364:466
4.364:463
4.368:474
4.368:486
4.368:492
4.368:530
4.368:551
4.369:493
4.369:440
4.369:430
4.369:467
4.369:511
4.371:521
4.371:512
4.371:485
4.371:467
4.371:426
4.372:397
4.372:403
4.392:434
4.392:457
4.392:475
4.392:499
4.393:522
4.393:538
4.393:530
4.393:507
4.393:472
4.394:452
4.396:464
4.396:492
4.396:516
4.396:517
4.397:491
4.397:479
4.397:484
4.397:473
4.397:438
4.398:433
4.399:453
4.399:443
4.400:426
4.400:450
4.400:461
4.400:467
4.400:480
4.401:514
4.401:534
4.404:553
4.421:553
4.421:540
4.421:544
4.421:540
4.421:529
4.421:496
4.421:489
4.421:482
4.422:470
4.425:476
4.425:449
4.425:441
4.426:447
4.426:462
4.426:504
4.426:536
4.426:537
4.426:519
4.427:512
4.429:549
4.429:578
4.429:600
4.429:609
4.429:590
4.429:531
4.430:509
4.430:504
4.430:518
4.431:492
4.433:470
4.448:483
4.448:493
4.448:498
4.448:492
4.448:494
4.448:515
4.453:572
4.453:600
4.453:608
4.453:589
4.454:579
4.454:579
4.454:569
4.454:543
4.454:524
4.457:534
4.457:537
4.457:530
4.457:507
4.458:480
4.458:484
4.458:489
4.458:496
4.458:515
4.458:541
4.460:552
4.462:567
4.462:579
4.462:572
4.462:564
4.478:564
4.478:584
4.478:594
4.478:596
4.479:590
4.482:569
4.482:580
4.482:578
4.482:559
4.482:535
4.482:528
4.483:536
4.483:544
4.483:571
4.483:564
4.485:577
4.485:589
4.486:593
4.486:582
4.486:576
4.486:578
4.487:592
4.487:600
4.487:587
4.490:575
4.490:545
4.490:542
4.490:570
4.491:619
4.491:628
4.506:604
4.506:599
4.511:602
4.511:584
4.511:540
4.511:534
4.511:543
4.511:558
4.511:557
4.511:551
4.511:543
4.514:547
4.514:574
4.515:598
4.515:596
4.515:594
4.515:596
4.515:582
4.515:550
4.517:512
4.517:487
4.519:499
4.519:513
4.519:512
4.519:491
4.519:505
4.519:518
4.519:535
4.520:524
4.520:530
4.534:530
4.540:539
4.540:549
4.540:543
4.540:525
4.541:522
4.541:502
4.541:475
4.541:460
4.541:464
4.543:458
4.543:448
4.543:438
4.543:439
4.544:416
4.544:394
4.544:414
4.544:430
4.544:413
4.544:407
4.548:433
4.549:446
4.549:456
4.549:470
4.549:473
4.549:453
4.549:428
4.550:410
4.550:392
4.550:371
4.568:351
4.568:351
4.568:345
4.568:332
4.569:315
4.569:321
4.569:349
4.572:373
4.572:379
4.572:397
4.572:404
4.572:400
4.572:414
4.572:423
4.573:431
4.573:423
4.573:404
4.576:381
4.576:352
4.576:340
4.576:357
4.577:358
4.577:347
4.577:348
4.577:340
4.577:350
4.580:365
4.581:366
4.581:380
4.583:392
4.596:392
4.597:419
4.597:427
4.597:433
4.597:432
4.597:407
4.601:389
4.601:398
4.601:412
4.601:403
4.601:378
4.602:356
4.602:365
4.602:342
4.602:314
4.602:304
4.605:364
4.605:382
4.605:348
4.605:342
4.606:384
4.606:414
4.606:427
4.606:427
4.606:429
4.609:415
4.609:413
4.609:399
4.609:396
4.609:411
4.625:407
4.625:372
4.626:364
4.630:388
4.630:389
4.630:365
4.630:350
4.630:370
4.631:378
4.631:390
4.631:410
4.631:440
4.633:459
4.633:454
4.633:424
4.634:409
4.634:418
4.634:416
4.634:417
4.634:428
4.635:443
4.635:420
4.638:391
4.638:364
4.638:349
4.638:345
4.639:377
4.639:411
4.639:416
4.639:441
4.653:441
4.653:456
4.658:484
4.658:509
4.658:520
4.658:485
4.658:443
4.658:442
4.660:458
4.660:433
4.660:427
4.660:413
4.662:389
4.662:389
4.662:393
4.662:387
4.663:395
4.663:390
4.663:421
4.663:446
4.663:410
4.666:369
4.666:422
4.666:470
4.666:479
4.667:473
4.667:451
4.667:428
4.667:441
4.667:428
4.686:435
4.686:435
4.686:423
4.686:409
4.687:395
4.687:392
4.687:388
4.687:403
4.687:449
4.690:461
4.690:450
4.691:457
4.691:481
4.691:501
4.691:512
4.691:490
4.691:496
4.691:493
4.695:456
4.695:425
4.696:408
4.696:402
4.696:407
4.696:403
4.696:417
4.697:403
4.697:389
4.697:391
4.699:399
4.699:409
4.715:409
4.715:435
4.715:464
4.715:502
4.716:522
4.716:517
4.716:513
4.716:512
4.719:488
4.719:460
4.719:443
4.719:427
4.719:436
4.719:447
4.721:443
4.721:445
4.721:435
4.724:420
4.724:418
4.724:428
4.724:443
4.725:491
4.725:524
4.725:501
4.725:492
4.725:479
4.725:479
4.727:468
4.727:472
4.727:469
4.743:468
4.744:461
4.744:427
4.744:401
4.748:406
4.748:410
4.748:399
4.749:422
4.749:448
4.749:464
4.750:459
4.750:459
4.750:475
4.750:487
4.752:469
4.753:462
4.753:484
4.754:493
4.754:473
4.754:467
4.755:452
4.755:427
4.755:409
4.756:393
4.756:362
4.756:390
4.757:410
4.757:416
4.757:428
4.758:428
4.772:428
4.772:452
4.773:498
4.773:530
4.776:554
4.777:572
4.777:580
4.777:575
4.777:552
4.777:524
4.777:497
4.778:478
4.778:454
4.781:406
4.781:368
4.783:398
4.783:433
4.783:439
4.783:431
4.783:425
4.783:462
4.783:485
4.783:480
4.784:481
4.784:485
4.784:500
4.785:514
4.785:502
4.785:483
4.785:470
4.806:463
4.806:447
4.806:432
4.806:412
4.807:388
4.807:397
4.807:430
4.807:448
4.807:453
4.807:477
4.810:483
4.810:480
4.810:472
4.811:463
4.811:483
4.811:501
4.811:511
4.811:525
4.811:516
4.814:497
4.815:484
4.815:468
4.815:449
4.816:464
4.816:447
4.816:395
4.816:393
4.816:375
4.816:405
4.817:439
4.833:439
4.833:465
4.834:480
4.834:477
4.834:474
4.834:479
4.834:498
4.835:514
4.835:537
4.838:539
4.838:517
4.838:480
4.838:471
4.839:461
4.839:448
4.839:445
4.839:437
4.839:433
4.839:425
4.841:430
4.842:451
4.842:471
4.842:469
4.842:426
4.842:413
4.843:455
4.843:512
4.843:541
4.846:535
4.846:517
4.862:499
4.862:489
4.863:475
4.863:469
4.863:465
4.863:451
4.867:455
4.867:453
4.867:427
4.867:391
4.868:412
4.868:473
4.868:521
4.868:534
4.868:529
4.870:524
4.870:509
4.870:486
4.871:494
4.871:503
4.871:503
4.871:481
4.871:466
4.871:453
4.872:442
4.875:419
4.875:401
4.876:405
4.876:408
4.876:428
4.891:428
4.891:462
4.891:478
4.891:478
4.891:464
4.896:477
4.896:508
4.896:527
4.896:516
4.896:522
4.896:527
4.897:506
4.897:507
4.898:475
4.900:455
4.900:456
4.900:451
4.900:459
4.901:451
4.901:439
4.901:435
4.901:432
4.901:434
4.901:452
4.903:447
4.903:463
4.903:495
4.903:533
4.904:501
4.904:482
4.920:510
4.920:512
4.924:485
4.924:475
4.924:475
4.924:493
4.925:485
4.925:464
4.925:455
4.925:419
4.925:415
4.928:441
4.928:478
4.928:519
4.928:494
4.929:465
4.929:464
4.929:493
4.929:494
4.929:477
4.930:455
4.931:453
4.932:484
4.932:487
4.932:493
4.932:482
4.932:461
4.932:438
4.932:439
4.933:434
4.948:434
4.953:428
4.953:434
4.953:458
4.953:494
4.954:513
4.954:532
4.954:529
4.954:522
4.954:535
4.957:538
4.957:500
4.957:467
4.957:466
4.958:451
4.958:438
4.958:443
4.958:451
4.958:437
4.958:417
4.960:424
4.960:452
4.961:466
4.961:480
4.961:500
4.961:491
4.961:509
4.962:526
4.962:522
4.964:496
4.981:483
4.981:485
4.981:493
4.981:499
4.981:477
4.983:458
4.983:460
4.986:458
4.986:453
4.986:435
4.986:433
4.987:452
4.987:448
4.987:443
4.987:453
4.987:464
4.988:454
4.990:465
4.990:501
4.990:523
4.990:532
4.990:528
4.990:527
4.990:489
4.991:452
4.991:455
4.994:455
4.994:451
4.994:415
4.994:402
5.009:402
5.009:417
5.011:437
5.011:461
5.011:489
5.011:505
5.014:502
5.014:513
5.014:523
5.015:518
5.015:508
5.015:537
5.015:537
5.016:488
5.016:478
5.016:481
5.018:469
5.018:457
5.018:414
5.019:397
5.019:392
5.019:389
5.019:418
5.019:466
5.020:476
5.022:490
5.022:489
5.022:501
5.022:521
5.023:522
5.038:513
5.038:515
5.038:514
5.043:502
5.043:488
5.043:488
5.043:497
5.044:468
5.044:443
5.044:412
5.044:410
5.044:420
5.045:441
5.047:453
5.047:465
5.047:481
5.047:483
5.047:485
5.048:498
5.048:516
5.048:539
5.048:540
5.051:531
5.051:514
5.051:508
5.051:487
5.051:478
5.051:457
5.051:435
5.052:430
5.067:430
5.067:436
5.072:437
5.072:437
5.072:452
5.072:476
5.073:503
5.073:531
5.073:517
5.073:488
5.073:490
5.073:486
5.076:476
5.076:464
5.076:469
5.077:476
5.077:484
5.077:496
5.077:457
5.078:411
5.078:395
5.079:412
5.079:433
5.079:438
5.080:442
5.080:455
5.082:485
5.082:516
5.082:532
5.082:522
5.100:538
5.101:543
5.101:527
5.101:519
5.101:494
5.101:456
5.101:424
5.102:424
5.102:405
5.104:401
5.104:413
5.104:414
5.105:432
5.105:456
5.105:483
5.105:477
5.105:482
5.106:507
5.108:531
5.108:541
5.108:544
5.108:538
5.108:538
5.108:508
5.110:471
5.110:476
5.110:481
5.110:476
5.112:451
5.112:432
5.129:432
5.129:423
5.129:435
5.129:443
5.129:454
5.130:462
5.130:468
5.130:482
5.132:510
5.132:533
5.133:524
5.133:531
5.133:539
5.133:542
5.133:527
5.134:483
5.134:456
5.137:472
5.137:508
5.137:486
5.137:450
5.138:419
5.138:401
5.138:411
5.138:448
5.138:462
5.138:474
5.140:477
5.140:504
5.141:514
5.157:513
5.157:510
5.157:505
5.157:502
5.162:503
5.162:493
5.162:473
5.162:459
5.163:447
5.163:434
5.163:427
5.163:423
5.163:428
5.163:443
5.165:460
5.165:476
5.166:446
5.166:403
5.166:426
5.166:503
5.166:542
5.167:548
5.167:563
5.170:557
5.170:519
5.170:478
5.171:483
5.171:503
5.171:508
5.171:455
5.185:455
5.186:401
5.186:390
5.186:426
5.190:454
5.190:454
5.191:456
5.191:476
5.191:500
5.191:505
5.191:505
5.191:478
5.191:473
5.194:502
5.194:525
5.194:508
5.194:472
5.195:466
5.195:477
5.195:476
5.195:463
5.195:453
5.196:432
5.198:423
5.198:419
5.198:435
5.198:466
5.198:474
5.198:465
5.198:473
5.219:499
5.219:500
5.220:496
5.220:505
5.220:504
5.220:510
5.220:502
5.220:487
5.220:474
5.220:480
5.223:473
5.223:460
5.223:449
5.223:441
5.223:456
5.224:472
5.224:485
5.224:474
5.224:459
5.227:463
5.227:489
5.227:511
5.227:516
5.228:513
5.228:532
5.228:535
5.228:499
5.228:471
5.228:462
5.231:470
5.248:470
5.248:462
5.248:460
5.249:445
5.249:449
5.249:451
5.249:451
5.249:471
5.250:491
5.251:463
5.251:435
5.251:452
5.251:498
5.252:542
5.252:544
5.252:523
5.252:512
5.252:492
5.253:492
5.255:510
5.255:518
5.255:502
5.256:470
5.256:475
5.256:474
5.256:496
5.256:508
5.256:473
5.260:442
5.260:451
5.276:475
5.276:501
5.276:505
5.276:524
5.276:581
5.276:577
5.282:526
5.282:460
5.283:446
5.283:469
5.283:488
5.283:486
5.284:461
5.284:460
5.284:454
5.284:447
5.285:454
5.285:485
5.285:501
5.285:511
5.285:502
5.286:524
5.286:546
5.286:555
5.286:550
5.289:530
5.289:512
5.289:522
5.289:540
5.289:550
5.305:550
5.305:542
5.305:507
5.305:461
5.305:443
5.309:416
5.309:421
5.310:451
5.310:497
5.310:515
5.310:521
5.310:508
5.310:513
5.310:514
5.313:507
5.313:498
5.314:484
5.314:460
5.314:437
5.314:470
5.314:493
5.315:498
5.315:460
5.315:445
5.317:442
5.317:412
5.317:398
5.317:424
5.318:484
5.318:515
5.333:518
5.333:489
5.337:482
5.337:493
5.337:493
5.338:484
5.338:498
5.338:502
5.338:478
5.338:442
5.338:421
5.342:427
5.342:435
5.342:423
5.342:404
5.342:400
5.342:427
5.343:432
5.343:467
5.343:495
5.343:483
5.346:490
5.346:501
5.346:496
5.347:482
5.347:465
5.347:487
5.348:510
5.348:492
5.348:468
5.362:468
5.366:449
5.366:456
5.367:444
5.367:440
5.367:432
5.367:447
5.367:450
5.368:430
5.368:447
5.370:463
5.370:476
5.370:489
5.370:517
5.371:522
5.371:519
5.371:521
5.371:508
5.371:469
5.372:440
5.375:440
5.375:465
5.375:482
5.375:468
5.375:455
5.376:439
5.376:426
5.376:417
5.376:411
5.378:443
5.395:466
5.395:485
5.395:501
5.396:506
5.396:498
5.396:510
5.396:518
5.398:511
5.400:533
5.400:532
5.400:532
5.400:522
5.400:497
5.401:457
5.401:439
5.401:448
5.401:457
5.403:444
5.403:447
5.403:475
5.403:520
5.403:562
5.404:567
5.404:587
5.404:608
5.404:632
5.407:655
5.407:619
5.407:582
5.408:587
5.424:587
5.424:614
5.424:633
5.424:647
5.424:644
5.424:664
5.428:674
5.428:693
5.428:692
5.428:684
5.428:722
5.428:775
5.429:824
5.429:904
5.429:978
5.429:989
5.432:990
5.432:989
5.432:990
5.432:970
5.432:922
5.433:865
5.433:816
5.433:748
5.433:662
5.436:591
5.436:519
5.436:455
5.436:400
5.437:360
5.451:370
5.451:371
5.453:359
5.457:350
5.457:359
5.457:361
5.457:370
5.458:361
5.458:351
5.458:363
5.458:378
5.458:399
5.459:376
5.460:352
5.460:352
5.460:375
5.461:396
5.461:389
5.461:363
5.461:376
5.461:395
5.462:413
5.464:432
5.464:435
5.464:445
5.464:457
5.464:455
5.465:466
5.465:463
5.465:455
5.480:455
5.480:448
5.485:440
5.485:431
5.485:463
5.485:480
5.485:443
5.486:398
5.486:367
5.486:357
5.486:361
5.486:395
5.488:404
5.488:418
5.488:426
5.490:424
5.490:441
5.490:433
5.490:445
5.490:469
5.490:483
5.493:471
5.493:463
5.493:447
5.493:429
5.494:415
5.494:402
5.494:398
5.494:405
5.494:427
5.514:449
5.514:454
5.514:452
5.514:466
5.515:470
5.515:480
5.515:485
5.515:485
5.518:503
5.518:513
5.518:518
5.518:505
5.519:502
5.519:468
5.519:447
5.519:441
5.519:441
5.519:420
5.522:427
5.522:417
5.522:428
5.522:468
5.523:474
5.523:467
5.523:461
5.523:485
5.523:497
5.524:533
5.526:535
5.526:501
5.542:501
5.542:482
5.542:484
5.542:493
5.542:471
5.543:448
5.543:436
5.543:425
5.546:422
5.546:431
5.546:446
5.547:458
5.547:471
5.547:467
5.547:476
5.547:487
5.549:489
5.550:502
5.550:535
5.550:538
5.550:521
5.550:518
5.550:501
5.550:484
5.550:486
5.550:488
5.550:460
5.555:445
5.555:440
5.555:442
5.571:450
5.571:464
5.571:488
5.571:500
5.575:500
5.575:496
5.575:516
5.575:526
5.576:539
5.576:543
5.576:528
5.576:538
5.576:522
5.576:492
5.579:495
5.579:500
5.580:468
5.581:453
5.581:444
5.581:438
5.581:446
5.581:454
5.581:490
5.583:521
5.583:527
5.583:528
5.583:540
5.584:542
5.584:545
5.584:544
5.599:544
5.599:522
5.599:513
5.604:523
5.604:541
5.604:518
5.604:491
5.605:464
5.605:443
5.605:435
5.605:454
5.605:454
5.605:466
5.608:513
5.608:540
5.608:538
5.608:515
5.608:509
5.608:531
5.608:547
5.610:547
5.610:541
5.610:547
5.611:558
5.612:547
5.612:541
5.612:538
5.612:497
5.612:477
5.612:470
5.632:478
5.632:496
5.632:523
5.632:563
5.633:568
5.633:574
5.633:579
5.633:563
5.633:564
5.633:579
5.637:591
5.637:599
5.637:549
5.637:523
5.638:553
5.638:580
5.638:551
5.638:526
5.638:529
5.640:535
5.641:519
5.641:528
5.641:538
5.641:549
5.641:571
5.642:600
5.642:596
5.642:588
5.642:593
5.645:603
5.661:603
5.661:604
5.661:598
5.661:596
5.661:572
5.661:539
5.662:547
5.662:551
5.662:532
5.665:508
5.665:501
5.665:500
5.665:530
5.666:565
5.666:586
5.666:597
5.666:594
5.666:607
5.669:642
5.669:657
5.669:663
5.669:674
5.671:636
5.671:591
5.671:557
5.671:547
5.671:562
5.671:575
5.673:580
5.673:575
5.690:572
5.690:557
5.690:542
5.691:543
5.691:528
5.691:539
5.694:557
5.694:588
5.694:605
5.694:625
5.695:618
5.695:587
5.695:556
5.695:567
5.695:574
5.698:569
5.698:566
5.698:549
5.698:526
5.698:506
5.698:494
5.698:482
5.700:475
5.700:487
5.700:506
5.702:500
5.702:493
5.702:518
5.703:542
5.703:554
5.718:554
5.718:555
5.718:569
5.718:545
5.719:511
5.723:486
5.723:472
5.723:471
5.723:475
5.724:476
5.724:452
5.724:440
5.724:438
5.724:410
5.727:394
5.727:399
5.727:408
5.727:426
5.728:422
5.728:444
5.728:473
5.728:473
5.728:444
5.729:402
5.730:396
5.730:386
5.732:401
5.732:420
5.732:393
5.732:364
5.747:337
5.747:308
5.751:286
5.751:289
5.751:320
5.751:358
5.751:384
5.751:402
5.752:414
5.752:412
5.752:398
5.756:414
5.756:431
5.756:422
5.756:386
5.757:344
5.757:321
5.757:320
5.757:296
5.757:296
5.758:315
5.759:327
5.759:342
5.759:362
5.760:382
5.760:394
5.760:394
5.760:383
5.760:416
5.761:427
5.775:427
5.780:428
5.780:420
5.780:414
5.780:408
5.781:411
5.781:425
5.781:432
5.781:412
5.781:372
5.784:339
5.784:322
5.784:338
5.784:330
5.784:329
5.784:350
5.786:359
5.786:372
5.786:362
5.786:374
5.788:390
5.788:421
5.788:445
5.788:449
5.789:445
5.789:433
5.789:424
5.789:426
5.789:408
5.792:410
5.808:392
5.808:339
5.808:302
5.808:303
5.808:331
5.809:383
5.809:409
5.813:397
5.814:400
5.814:413
5.814:410
5.814:404
5.815:416
5.815:442
5.815:431
5.815:414
5.815:392
5.816:384
5.817:420
5.817:425
5.817:408
5.817:386
5.817:403
5.817:407
5.818:404
5.818:398
5.820:413
5.820:427
5.820:430
5.820:444
5.837:444
5.837:433
5.837:417
5.837:454
5.837:473
5.838:472
5.840:486
5.840:458
5.842:419
5.842:398
5.842:376
5.842:367
5.843:375
5.843:373
5.843:398
5.843:409
5.845:425
5.845:421
5.846:429
5.846:439
5.846:458
5.847:459
5.847:460
5.847:469
5.847:477
5.850:458
5.850:438
5.850:446
5.850:443
5.851:439
5.865:437
5.866:415
5.866:397
5.870:407
5.870:405
5.870:398
5.870:419
5.871:448
5.871:477
5.871:473
5.871:462
5.871:451
5.874:482
5.874:496
5.874:463
5.874:432
5.875:446
5.875:451
5.875:454
5.875:441
5.875:411
5.875:383
5.878:397
5.878:417
5.878:424
5.878:420
5.878:408
5.879:435
5.879:467
5.880:478
5.894:478
5.894:503
5.897:504
5.899:481
5.899:451
5.899:443
5.899:456
5.899:469
5.899:463
5.899:453
5.899:431
5.900:398
5.902:398
5.902:439
5.902:477
5.902:483
5.903:477
5.903:470
5.903:480
5.903:462
5.903:438
5.907:454
5.907:477
5.907:495
5.907:488
5.907:489
5.907:500
5.907:495
5.908:476
5.908:447
5.927:443
5.927:420
5.928:417
5.928:428
5.928:421
5.928:416
5.928:423
5.928:423
5.931:426
5.931:446
5.931:470
5.931:500
5.932:523
5.932:541
5.932:542
5.932:536
5.932:505
5.933:481
5.935:469
5.936:475
5.936:462
5.936:451
5.936:456
5.936:449
5.937:447
5.937:453
5.937:458
5.940:458
5.940:438
5.940:455
5.956:455
5.956:459
5.956:471
5.956:500
5.956:541
5.956:542
5.957:523
5.957:500
5.960:464
5.960:462
5.961:473
5.961:478
5.961:441
5.961:414
5.961:402
5.961:391
5.961:388
5.964:408
5.965:443
5.965:456
5.965:452
5.965:444
5.966:456
5.966:473
5.966:506
5.966:516
5.966:512
5.968:511
5.968:485
5.968:472
5.985:461
5.985:449
5.985:449
5.985:460
5.989:442
5.989:432
5.989:420
5.989:394
5.989:405
5.989:459
5.989:494
5.990:490
5.990:501
5.990:484
5.993:491
5.993:509
5.993:524
5.993:520
5.994:489
5.994:507
5.994:506
5.994:487
5.994:444
5.997:439
5.997:425
5.998:432
5.998:415
5.998:401
5.998:408
5.999:415
6.013:415
6.014:418
6.014:445
6.018:484
6.018:496
6.018:513
6.018:532
6.019:541
6.019:535
6.019:533
6.019:524
6.019:501
6.019:473
6.021:446
6.021:431
6.021:424
6.021:430
6.021:431
6.022:414
6.022:427
6.022:441
6.022:453
6.022:464
6.025:484
6.025:499
6.025:521
6.025:511
6.025:496
6.026:487
6.026:484
6.047:496
6.047:493
6.047:497
6.047:463
6.047:444
6.047:438
6.048:435
6.048:416
6.048:417
6.048:448
6.050:458
6.050:481
6.050:516
6.050:508
6.051:483
6.051:499
6.051:491
6.051:504
6.051:492
6.054:466
6.054:436
6.054:430
6.054:435
6.055:425
6.055:424
6.055:413
6.055:415
6.055:418
6.056:415
6.058:453
6.075:453
6.075:490
6.075:501
6.075:517
6.075:538
6.075:541
6.076:556
6.076:559
6.076:539
6.079:533
6.079:502
6.080:480
6.080:459
6.081:437
6.081:423
6.081:449
6.081:456
6.081:450
6.083:437
6.083:425
6.083:437
6.083:464
6.084:480
6.084:486
6.084:479
6.084:467
6.084:462
6.085:463
6.087:472
6.087:464
6.103:454
6.103:467
6.103:478
6.103:489
6.103:467
6.104:439
6.107:428
6.107:416
6.107:405
6.107:377
6.108:416
6.108:473
6.108:511
6.108:511
6.108:527
6.111:527
6.111:558
6.111:577
6.111:567
6.112:550
6.112:497
6.112:460
6.114:440
6.114:445
6.114:420
6.115:438
6.115:439
6.116:430
6.116:429
6.116:433
6.132:433
6.132:455
6.132:470
6.132:481
6.133:468
6.136:468
6.136:479
6.136:497
6.137:494
6.137:479
6.137:441
6.137:415
6.137:424
6.137:443
6.140:458
6.140:480
6.140:510
6.140:503
6.141:477
6.141:462
6.141:451
6.141:470
6.141:497
6.142:529
6.144:525
6.144:522
6.144:511
6.144:505
6.145:488
6.145:488
6.161:493
6.161:490
6.165:480
6.165:469
6.165:466
6.165:453
6.165:441
6.165:424
6.166:420
6.166:415
6.166:421
6.168:447
6.168:464
6.170:466
6.170:470
6.170:482
6.170:493
6.171:511
6.171:528
6.171:529
6.171:520
6.172:509
6.173:499
6.173:493
6.173:506
6.173:472
6.173:443
6.174:437
6.174:418
6.174:426
6.188:426
6.194:443
6.194:471
6.194:483
6.194:477
6.195:492
6.195:501
6.195:488
6.195:493
6.195:492
6.196:498
6.196:497
6.198:467
6.198:445
6.198:451
6.198:458
6.198:466
6.198:454
6.198:414
6.198:385
6.202:400
6.202:438
6.202:474
6.202:483
6.202:479
6.202:480
6.202:493
6.202:510
6.203:530
6.205:546
6.222:522
6.222:516
6.222:495
6.222:496
6.223:502
6.223:473
6.223:459
6.226:459
6.226:448
6.227:442
6.227:427
6.227:395
6.228:401
6.228:436
6.228:482
6.229:525
6.229:536
6.230:517
6.230:495
6.230:488
6.230:491
6.230:496
6.230:483
6.230:471
6.232:458
6.232:455
6.234:438
6.234:437
6.234:431
6.234:440
6.250:440
6.250:457
6.250:465
6.250:475
6.250:493
6.251:510
6.255:518
6.255:530
6.255:519
6.255:519
6.256:528
6.256:516
6.256:507
6.256:493
6.256:474
6.257:467
6.258:462
6.258:433
6.258:436
6.260:457
6.260:447
6.260:398
6.260:393
6.260:439
6.261:452
6.263:441
6.263:452
6.263:473
6.264:485
6.264:500
6.279:491
6.280:482
6.280:484
6.283:477
6.283:485
6.283:483
6.284:482
6.284:462
6.284:444
6.284:436
6.284:440
6.285:456
6.287:478
6.287:539
6.288:577
6.288:551
6.288:514
6.288:503
6.288:495
6.288:481
6.288:494
6.288:477
6.292:468
6.292:446
6.292:437
6.292:422
6.293:432
6.293:447
6.293:467
6.293:449
6.307:449
6.307:422
6.312:436
6.313:456
6.313:490
6.313:510
6.313:510
6.313:478
6.314:472
6.314:477
6.314:496
6.314:501
6.316:488
6.316:497
6.317:510
6.317:510
6.317:508
6.317:490
6.317:460
6.318:448
6.318:439
6.320:432
6.320:432
6.320:459
6.320:469
6.320:477
6.320:526
6.320:535
6.320:513
6.321:503
6.341:529
6.341:529
6.341:511
6.341:496
6.342:457
6.342:443
6.342:465
6.342:454
6.345:416
6.345:386
6.345:400
6.346:431
6.347:446
6.347:466
6.347:502
6.347:516
6.347:538
6.348:544
6.348:552
6.350:540
6.350:548
6.350:551
6.350:531
6.351:509
6.351:477
6.351:464
6.351:460
6.353:464
6.353:457
6.353:460
6.370:460
6.370:456
6.370:423
6.370:428
6.370:451
6.371:487
6.371:504
6.373:514
6.374:530
6.374:539
6.374:537
6.375:531
6.375:536
6.375:544
6.376:553
6.376:576
6.376:551
6.377:528
6.378:511
6.378:477
6.378:463
6.378:460
6.378:490
6.380:513
6.380:512
6.380:495
6.380:478
6.381:495
6.382:501
6.382:504
6.398:508
6.398:514
6.398:517
6.399:516
6.402:504
6.402:480
6.402:466
6.402:452
6.402:447
6.402:416
6.402:396
6.404:393
6.404:393
6.404:398
6.406:438
6.406:456
6.406:432
6.406:443
6.407:487
6.407:503
6.407:493
6.407:477
6.407:484
6.410:497
6.410:514
6.410:505
6.410:509
6.411:490
6.411:437
6.411:399
6.427:399
6.427:431
6.427:445
6.431:444
6.431:445
6.432:464
6.432:475
6.432:484
6.432:502
6.433:499
6.433:490
6.433:482
6.433:481
6.435:477
6.435:472
6.436:469
6.436:464
6.436:461
6.436:461
6.436:460
6.436:456
6.437:470
6.439:505
6.439:495
6.439:437
6.439:417
6.439:430
6.440:441
6.440:467
6.440:466
6.460:466
6.460:476
6.460:462
6.460:452
6.461:465
6.461:496
6.461:508
6.461:504
6.462:482
6.462:481
6.464:464
6.464:443
6.464:425
6.464:408
6.464:373
6.464:388
6.464:458
6.465:501
6.465:528
6.468:543
6.468:543
6.468:546
6.468:558
6.468:545
6.468:505
6.468:491
6.468:493
6.470:476
6.470:458
6.472:439
6.488:439
6.488:414
6.488:421
6.488:440
6.488:450
6.488:461
6.488:502
6.490:547
6.490:529
6.493:484
6.493:460
6.493:493
6.493:500
6.494:508
6.494:526
6.494:532
6.494:542
6.494:565
6.497:578
6.497:598
6.498:611
6.498:600
6.498:583
6.498:585
6.498:586
6.498:597
6.498:647
6.498:729
6.500:760
6.500:774
6.517:801
6.517:842
6.517:877
6.517:918
6.517:967
6.518:990
6.520:990
6.520:979
6.520:965
6.520:933
6.520:883
6.522:843
6.522:812
6.522:774
6.522:716
6.525:626
6.525:534
6.525:499
6.525:478
6.526:471
6.526:431
6.526:393
6.526:397
6.526:375
6.527:354
6.528:340
6.530:325
6.530:344
6.530:356
6.530:354
6.545:354
6.545:325
6.545:305
6.545:308
6.545:320
6.550:323
6.550:347
6.550:366
6.551:380
6.551:401
6.551:429
6.551:435
6.551:459
6.551:480
6.554:459
6.554:481
6.554:488
6.554:459
6.555:432
6.555:429
6.555:417
6.555:416
6.555:391
6.555:379
6.558:395
6.558:415
6.558:444
6.558:453
6.558:463
6.559:443
6.574:406
6.574:415
6.578:464
6.578:507
6.578:519
6.578:505
6.580:470
6.580:443
6.580:418
6.580:424
6.580:430
6.583:432
6.583:429
6.583:426
6.583:408
6.584:386
6.584:391
6.584:408
6.584:439
6.584:460
6.585:450
6.587:463
6.587:492
6.587:501
6.587:491
6.587:507
6.587:486
6.588:475
6.588:495
6.588:495
6.603:495
6.607:488
6.607:477
6.607:427
6.607:389
6.608:400
6.608:407
6.608:411
6.608:409
6.608:427
6.610:469
6.610:489
6.611:500
6.611:558
6.611:572
6.612:500
6.613:477
6.613:494
6.613:479
6.613:440
6.615:460
6.615:489
6.616:493
6.616:475
6.616:452
6.616:425
6.616:397
6.617:393
6.617:412
6.619:445
6.636:457
6.636:473
6.636:497
6.636:514
6.636:518
6.637:512
6.637:531
6.640:551
6.640:530
6.640:490
6.640:461
6.641:440
6.641:457
6.641:453
6.641:448
6.641:468
6.644:463
6.644:433
6.644:427
6.644:435
6.645:432
6.645:436
6.645:474
6.645:512
6.646:534
6.646:542
6.648:552
6.648:540
6.648:524
6.648:502
6.664:502
6.664:501
6.665:483
6.665:459
6.665:453
6.665:454
6.669:452
6.669:453
6.669:462
6.669:482
6.669:499
6.669:502
6.669:506
6.669:526
6.670:541
6.670:537
6.672:537
6.672:535
6.672:527
6.672:514
6.672:511
6.673:508
6.673:501
6.673:487
6.673:465
6.677:463
6.677:489
6.677:495
6.677:492
6.678:484
6.692:497
6.692:529
6.693:549
6.698:557
6.698:556
6.698:559
6.698:560
6.699:553
6.699:535
6.699:540
6.699:557
6.699:543
6.700:524
6.701:495
6.701:489
6.701:477
6.701:463
6.701:470
6.702:456
6.702:457
6.702:479
6.702:511
6.705:517
6.706:536
6.706:577
6.706:611
6.706:611
6.706:600
6.707:566
6.707:543
6.721:543
6.721:524
6.726:562
6.726:564
6.726:536
6.726:507
6.727:487
6.727:501
6.727:522
6.727:516
6.727:513
6.728:531
6.729:570
6.729:589
6.730:586
6.730:574
6.730:573
6.730:591
6.731:608
6.731:608
6.731:614
6.734:611
6.734:593
6.734:578
6.734:557
6.735:537
6.735:513
6.735:505
6.735:521
6.735:551
6.754:532
6.754:513
6.754:531
6.754:558
6.754:590
6.755:589
6.755:596
6.755:608
6.759:607
6.759:596
6.759:589
6.759:581
6.759:587
6.759:583
6.759:576
6.760:575
6.760:562
6.760:562
6.762:563
6.763:553
6.763:573
6.763:585
6.763:583
6.763:575
6.763:586
6.763:584
6.763:592
6.767:602
6.767:595
6.767:594
6.783:594
6.783:581
6.783:572
6.783:576
6.783:576
6.784:554
6.784:524
6.787:510
6.787:513
6.787:513
6.787:504
6.788:505
6.788:527
6.788:551
6.788:551
6.788:544
6.788:525
6.791:510
6.791:516
6.791:535
6.791:548
6.791:556
6.792:544
6.792:523
6.792:483
6.792:426
6.795:405
6.795:392
6.796:391
6.796:389
6.811:390
6.811:407
6.811:437
6.812:448
6.816:437
6.816:444
6.816:462
6.816:475
6.817:485
6.817:488
6.817:481
6.817:467
6.817:447
6.818:397
6.820:358
6.820:366
6.820:352
6.821:361
6.821:376
6.821:363
6.821:358
6.821:355
6.821:382
6.824:399
6.824:405
6.824:418
6.824:421
6.825:407
6.825:403
6.825:421
6.840:421
6.840:400
6.840:365
6.844:353
6.844:350
6.844:362
6.844:362
6.844:389
6.844:390
6.844:375
6.845:355
6.845:341
6.845:351
6.848:365
6.848:365
6.848:354
6.848:364
6.848:388
6.848:405
6.848:425
6.848:413
6.848:383
6.852:391
6.852:378
6.853:365
6.853:354
6.853:335
6.854:352
6.854:374
6.854:364
6.873:344
6.873:353
6.873:378
6.873:393
6.874:398
6.874:384
6.874:400
6.874:408
6.874:409
6.875:413
6.877:414
6.877:417
6.877:412
6.877:410
6.877:410
6.878:406
6.878:394
6.878:367
6.878:346
6.881:365
6.881:386
6.881:389
6.881:395
6.882:394
6.882:427
6.882:424
6.882:411
6.882:429
6.882:449
6.885:445
6.901:445
6.901:435
6.902:428
6.902:424
6.902:430
6.903:429
6.903:419
6.903:398
6.904:392
6.906:385
6.906:367
6.906:371
6.906:389
6.907:382
6.907:399
6.907:411
6.907:423
6.908:466
6.910:502
6.910:550
6.910:518
6.910:459
6.910:449
6.910:444
6.911:428
6.911:404
6.911:391
6.911:385
6.914:380
6.914:365
6.930:370
6.930:372
6.931:382
6.931:410
6.931:445
6.931:431
6.934:406
6.935:407
6.935:427
6.935:463
6.935:496
6.935:495
6.935:482
6.936:464
6.936:448
6.939:447
6.939:457
6.939:426
6.939:424
6.939:433
6.939:403
6.939:380
6.940:371
6.940:386
6.940:419
6.942:439
6.942:444
6.942:465
6.942:458
6.943:469
6.958:469
6.958:471
6.958:479
6.958:482
6.960:468
6.963:452
6.963:428
6.963:411
6.963:367
6.963:399
6.964:408
6.964:435
6.964:437
6.964:428
6.967:432
6.967:437
6.967:442
6.967:439
6.968:476
6.968:511
6.968:505
6.968:475
6.968:481
6.970:483
6.970:469
6.971:467
6.971:468
6.971:458
6.971:418
6.971:416
6.987:425
6.992:463
6.992:476
6.992:426
6.992:427
6.993:454
6.993:496
6.993:512
6.993:498
6.993:472
6.993:482
6.995:489
6.995:516
6.996:526
6.996:525
6.996:516
6.996:493
6.997:460
6.997:426
6.997:408
6.997:389
6.999:386
6.999:408
6.999:432
6.999:452
6.999:477
7.001:474
7.001:455
7.001:480
7.001:502
7.016:502
7.021:500
7.021:488
7.021:508
7.021:534
7.021:506
7.021:501
7.021:494
7.021:468
7.022:433
7.025:433
7.025:413
7.025:424
7.025:425
7.026:403
7.026:409
7.026:441
7.026:463
7.026:465
7.027:475
7.029:464
7.030:473
7.030:492
7.030:498
7.030:507
7.030:512
7.030:494
7.030:480
7.030:487
7.033:470
7.049:458
7.049:433
7.049:425
7.049:421
7.049:447
7.049:473
7.050:485
7.053:503
7.053:510
7.053:524
7.053:509
7.054:510
7.054:495
7.054:475
7.054:477
7.054:455
7.058:429
7.058:419
7.058:429
7.058:438
7.059:435
7.059:435
7.059:419
7.059:379
7.059:381
7.059:426
7.061:472
7.061:486
7.061:487
7.061:482
7.077:482
7.077:499
7.078:516
7.078:510
7.078:500
7.078:502
7.082:503
7.082:477
7.082:448
7.082:453
7.083:445
7.083:434
7.083:431
7.083:449
7.083:461
7.084:453
7.086:461
7.086:460
7.086:454
7.086:448
7.086:520
7.086:546
7.087:522
7.087:515
7.087:532
7.090:524
7.090:506
7.090:480
7.090:471
7.090:452
7.106:439
7.106:455
7.106:458
7.111:478
7.111:481
7.111:429
7.111:419
7.111:432
7.111:452
7.111:463
7.111:485
7.111:482
7.115:484
7.115:493
7.115:504
7.115:500
7.116:481
7.116:459
7.116:464
7.116:461
7.116:436
7.116:422
7.118:425
7.118:441
7.119:446
7.120:421
7.120:426
7.120:448
7.120:475
7.121:502
7.134:502
7.134:512
7.140:502
7.140:509
7.140:528
7.140:538
7.140:515
7.141:480
7.141:480
7.141:471
7.141:464
7.144:444
7.144:448
7.144:452
7.144:444
7.144:448
7.145:451
7.145:439
7.145:427
7.146:430
7.146:451
7.148:492
7.148:515
7.148:521
7.148:496
7.149:501
7.149:506
7.149:489
7.149:489
7.150:492
7.168:489
7.168:457
7.168:445
7.168:434
7.169:410
7.169:412
7.169:436
7.169:468
7.172:477
7.172:471
7.172:478
7.172:505
7.172:518
7.173:529
7.173:528
7.173:510
7.173:491
7.174:462
7.176:450
7.176:461
7.176:468
7.176:460
7.177:456
7.177:441
7.177:443
7.177:453
7.177:447
7.180:474
7.180:466
7.180:472
7.195:472
7.195:490
7.197:489
7.197:464
7.197:484
7.197:528
7.197:536
7.201:527
7.201:507
7.201:463
7.201:442
7.201:460
7.201:462
7.202:450
7.202:433
7.202:428
7.202:444
7.205:467
7.205:487
7.205:474
7.205:478
7.206:484
7.206:487
7.206:492
7.206:506
7.206:518
7.208:515
7.208:509
7.208:485
7.208:495
7.224:538
7.225:542
7.225:473
7.225:441
7.229:418
7.229:403
7.231:397
7.231:400
7.231:439
7.231:449
7.231:465
7.231:490
7.231:524
7.231:507
7.234:500
7.234:509
7.234:522
7.234:517
7.234:480
7.234:470
7.235:481
7.235:494
7.235:473
7.238:417
7.238:378
7.238:387
7.238:392
7.239:417
7.239:457
7.239:482
7.253:482
7.253:496
7.253:502
7.257:506
7.258:515
7.258:529
7.258:529
7.258:529
7.259:517
7.259:498
7.260:500
7.260:486
7.260:468
7.262:445
7.263:444
7.263:461
7.263:447
7.263:423
7.263:422
7.264:440
7.264:464
7.264:485
7.266:478
7.266:478
7.266:504
7.266:523
7.266:543
7.266:545
7.266:568
7.266:526
7.287:446
7.287:401
7.287:404
7.287:395
7.288:396
7.288:419
7.288:433
7.288:450
7.288:451
7.288:459
7.290:468
7.290:493
7.290:522
7.290:522
7.290:502
7.290:516
7.290:526
7.290:510
7.290:504
7.295:500
7.296:496
7.296:485
7.296:499
7.296:498
7.296:485
7.296:466
7.297:434
7.297:420
7.297:442
7.299:466
7.315:466
7.315:462
7.315:469
7.316:476
7.316:496
7.316:487
7.316:500
7.316:513
7.316:520
7.320:540
7.320:525
7.320:517
7.320:479
7.320:455
7.320:449
7.320:440
7.321:417
7.321:418
7.324:410
7.324:408
7.324:446
7.324:460
7.325:468
7.325:479
7.325:511
7.325:526
7.325:521
7.326:503
7.328:491
7.328:497
7.344:487
7.344:467
7.344:481
7.344:476
7.345:459
7.348:453
7.348:456
7.348:462
7.348:439
7.348:445
7.349:498
7.349:538
7.349:530
7.349:528
7.349:527
7.351:529
7.352:510
7.352:452
7.352:426
7.352:430
7.352:437
7.353:454
7.353:462
7.353:460
7.353:450
7.355:462
7.356:472
7.356:492
7.356:481
7.356:471
7.372:471
7.372:481
7.372:487
7.372:486
7.373:467
7.376:456
7.376:499
7.376:534
7.376:511
7.377:493
7.377:478
7.377:438
7.377:446
7.378:480
7.380:514
7.380:493
7.381:476
7.381:432
7.381:405
7.381:425
7.382:449
7.382:465
7.382:492
7.382:531
7.384:510
7.384:481
7.385:471
7.385:485
7.385:508
7.385:517
7.400:502
7.406:486
7.406:490
7.406:469
7.406:458
7.407:448
7.407:435
7.407:423
7.407:423
7.407:424
7.407:438
7.409:465
7.409:474
7.409:494
7.410:496
7.410:511
7.410:516
7.410:528
7.410:545
7.412:549
7.414:537
7.414:497
7.414:463
7.414:440
7.415:435
7.415:440
7.415:443
7.415:445
7.415:455
7.415:453
7.429:453
7.434:461
7.434:475
7.435:470
7.435:467
7.435:482
7.435:494
7.435:495
7.436:491
7.436:508
7.438:521
7.438:501
7.438:460
7.438:455
7.439:488
7.439:480
7.439:466
7.439:450
7.439:408
7.440:385
7.442:408
7.442:437
7.442:467
7.442:477
7.442:505
7.443:549
7.443:585
7.443:525
7.443:477
7.445:510
7.462:538
7.463:522
7.463:500
7.463:487
7.463:479
7.463:480
7.464:463
7.467:455
7.467:443
7.467:429
7.467:421
7.468:433
7.468:459
7.468:461
7.468:478
7.468:498
7.470:513
7.470:504
7.470:518
7.471:529
7.471:545
7.471:521
7.471:468
7.471:460
7.472:461
7.472:459
7.475:448
7.475:441
7.475:456
7.476:496
7.491:496
7.491:492
7.492:466
7.492:443
7.492:444
7.492:466
7.496:460
7.496:468
7.497:495
7.497:516
7.497:522
7.497:508
7.497:488
7.497:477
7.497:473
7.497:481
7.500:470
7.500:451
7.500:455
7.500:458
7.500:443
7.501:451
7.501:449
7.501:455
7.501:474
7.504:479
7.504:486
7.504:506
7.504:521
7.505:523
7.520:527
7.520:525
7.520:496
7.524:465
7.524:471
7.524:519
7.524:540
7.525:490
7.525:452
7.525:444
7.525:405
7.525:424
7.530:478
7.530:500
7.531:500
7.531:511
7.531:560
7.531:571
7.531:528
7.531:517
7.531:538
7.531:537
7.532:528
7.532:487
7.532:479
7.532:475
7.533:463
7.533:456
7.533:464
7.533:467
7.548:467
7.548:458
7.553:469
7.553:491
7.553:494
7.554:494
7.554:507
7.554:521
7.554:554
7.554:586
7.554:574
7.557:564
7.557:554
7.557:541
7.557:519
7.558:501
7.558:484
7.558:484
7.558:458
7.558:445
7.558:440
7.560:435
7.560:435
7.560:444
7.561:473
7.561:492
7.562:500
7.562:520
7.562:549
7.562:552
7.581:523
7.581:515
7.581:508
7.581:503
7.582:496
7.582:482
7.582:454
7.582:449
7.586:453
7.586:435
7.586:411
7.586:413
7.587:415
7.587:419
7.587:440
7.587:446
7.587:474
7.588:503
7.590:501
7.590:483
7.590:485
7.590:500
7.591:479
7.591:466
7.591:455
7.591:461
7.591:473
7.594:484
7.594:464
7.594:433
7.610:433
7.610:429
7.610:406
7.610:415
7.610:417
7.611:432
7.611:452
7.614:486
7.614:520
7.614:543
7.615:541
7.615:529
7.615:499
7.615:472
7.615:482
7.616:472
7.616:449
7.618:425
7.618:417
7.618:425
7.619:409
7.619:388
7.619:411
7.619:438
7.619:451
7.620:449
7.622:457
7.622:486
7.622:512
7.622:526
7.639:529
7.639:535
7.639:530
7.639:502
7.643:487
7.643:477
7.643:474
7.643:447
7.644:435
7.644:439
7.644:439
7.645:419
7.645:402
7.645:432
7.646:479
7.647:484
7.647:519
7.647:514
7.647:479
7.647:482
7.648:496
7.648:512
7.648:541
7.650:527
7.650:491
7.650:466
7.651:469
7.651:478
7.651:482
7.651:488
7.667:488
7.667:478
7.667:460
7.672:458
7.672:463
7.672:463
7.672:499
7.673:526
7.673:540
7.673:558
7.673:583
7.673:602
7.673:626
7.676:654
7.676:677
7.676:704
7.677:698
7.677:677
7.677:689
7.677:715
7.677:704
7.677:713
7.680:734
7.680:753
7.680:782
7.680:832
7.680:895
7.680:953
7.680:990
7.680:990
7.700:990
7.700:990
7.700:990
7.700:970
7.700:935
7.700:884
7.701:795
7.701:687
7.701:578
7.701:508
7.704:457
7.704:421
7.704:416
7.704:392
7.704:375
7.705:358
7.705:338
7.705:343
7.705:346
7.709:351
7.709:373
7.709:399
7.710:418
7.710:394
7.710:367
7.710:352
7.710:333
7.710:339
7.711:370
7.712:391
7.729:391
7.729:382
7.729:359
7.729:339
7.730:358
7.730:387
7.730:420
7.730:453
7.730:490
7.733:469
7.733:426
7.733:440
7.733:456
7.734:458
7.734:458
7.734:457
7.734:431
7.734:411
7.737:420
7.737:424
7.737:410
7.737:401
7.738:369
7.738:375
7.738:421
7.738:439
7.738:442
7.738:439
7.740:445
7.740:441
7.757:471
7.758:488
7.758:488
7.758:493
7.758:487
7.762:473
7.763:465
7.763:449
7.763:423
7.763:423
7.764:413
7.764:388
7.764:370
7.764:365
7.764:356
7.766:357
7.766:386
7.766:410
7.766:437
7.766:457
7.767:488
7.767:516
7.767:536
7.767:520
7.770:510
7.770:506
7.770:485
7.770:470
7.771:477
7.771:465
7.786:465
7.786:464
7.787:454
7.787:422
7.787:417
7.790:407
7.790:399
7.790:422
7.790:443
7.790:448
7.791:468
7.791:481
7.791:483
7.791:475
7.795:507
7.795:513
7.795:509
7.795:519
7.797:524
7.797:517
7.797:498
7.797:468
7.798:456
7.798:445
7.798:437
7.799:421
7.799:413
7.799:422
7.799:458
7.799:479
7.814:492
7.818:493
7.820:515
7.820:527
7.820:534
7.820:559
7.821:573
7.821:541
7.821:490
7.821:499
7.821:511
7.823:483
7.823:435
7.823:431
7.823:454
7.824:435
7.824:429
7.824:451
7.824:484
7.824:475
7.827:454
7.827:455
7.828:490
7.828:535
7.829:539
7.829:519
7.829:509
7.829:495
7.831:493
7.831:491
7.848:491
7.848:500
7.848:492
7.848:479
7.848:447
7.848:438
7.848:429
7.849:424
7.849:435
7.849:468
7.852:504
7.852:517
7.852:525
7.852:513
7.853:518
7.853:547
7.853:563
7.853:565
7.853:524
7.853:508
7.856:508
7.856:537
7.856:537
7.856:494
7.857:468
7.857:465
7.857:459
7.857:451
7.857:466
7.860:484
7.876:498
7.876:531
7.877:547
7.877:559
7.877:564
7.877:574
7.877:589
7.880:591
7.880:575
7.880:563
7.881:535
7.881:501
7.881:481
7.881:468
7.881:483
7.882:505
7.885:495
7.885:484
7.885:501
7.885:501
7.886:515
7.886:546
7.886:549
7.886:561
7.886:604
7.887:602
7.889:600
7.889:621
7.889:612
7.889:551
7.905:551
7.905:527
7.905:525
7.905:504
7.905:501
7.905:503
7.908:502
7.910:505
7.910:514
7.910:539
7.910:601
7.911:625
7.911:588
7.912:564
7.912:552
7.912:573
7.913:577
7.913:570
7.913:564
7.913:566
7.914:563
7.914:547
7.914:538
7.914:544
7.914:561
7.917:563
7.917:537
7.917:499
7.917:518
7.918:563
7.934:597
7.934:621
7.934:605
7.938:606
7.938:626
7.938:622
7.938:611
7.939:599
7.939:600
7.939:599
7.939:594
7.939:580
7.942:553
7.942:521
7.942:512
7.942:537
7.943:542
7.943:541
7.943:549
7.943:548
7.943:548
7.943:557
7.946:593
7.946:627
7.946:609
7.946:582
7.946:592
7.946:621
7.947:613
7.947:565
7.962:565
7.962:551
7.967:555
7.967:522
7.967:485
7.967:482
7.968:465
7.968:463
7.968:467
7.968:490
7.968:513
7.970:526
7.970:547
7.970:531
7.970:503
7.971:513
7.971:529
7.971:540
7.971:539
7.971:520
7.972:490
7.975:473
7.975:451
7.975:432
7.975:428
7.976:408
7.976:390
7.976:383
7.976:398
7.976:419
7.995:430
7.995:432
7.996:421
7.996:428
7.996:461
7.996:477
7.996:460
7.997:438
7.999:425
7.999:420
7.999:407
7.999:403
8.000:415
8.000:408
8.000:398
8.000:383
8.000:373
8.001:354
8.003:320
8.003:319
8.003:341
8.003:369
8.003:399
8.004:381
8.004:359
8.004:357
8.004:397
8.007:410
8.007:394
8.007:388
8.024:388
8.024:374
8.024:366
8.024:361
8.024:366
8.025:350
8.025:331
8.028:344
8.029:361
8.029:343
8.029:336
8.029:340
8.029:356
8.030:386
8.030:403
8.030:421
8.030:417
8.032:402
8.032:414
8.032:443
8.032:437
8.032:413
8.032:401
8.033:397
8.033:400
8.033:376
8.036:373
8.036:379
8.036:386
8.036:385
8.052:372
8.052:391
8.052:384
8.052:374
8.057:353
8.057:383
8.057:424
8.057:439
8.058:416
8.058:424
8.058:429
8.058:437
8.058:453
8.059:466
8.060:453
8.060:372
8.062:294
8.062:289
8.062:346
8.063:375
8.063:387
8.063:394
8.063:399
8.065:384
8.065:404
8.065:424
8.066:438
8.066:460
8.066:473
8.066:473
8.080:473
8.081:457
8.081:424
8.085:415
8.085:424
8.085:427
8.086:411
8.086:387
8.086:371
8.086:373
8.086:378
8.087:390
8.087:399
8.088:400
8.088:401
8.090:403
8.090:429
8.090:460
8.090:487
8.090:502
8.091:505
8.091:471
8.093:424
8.093:420
8.093:426
8.094:408
8.094:367
8.095:353
8.095:372
8.095:402
8.114:398
8.114:405
8.114:432
8.115:438
8.115:445
8.115:468
8.115:499
8.115:528
8.115:542
8.118:526
8.118:499
8.118:483
8.118:448
8.118:416
8.118:400
8.119:411
8.119:400
8.119:404
8.119:392
8.122:396
8.122:405
8.122:399
8.122:396
8.123:403
8.123:432
8.123:441
8.123:467
8.123:506
8.124:509
8.125:465
8.143:465
8.143:443
8.143:429
8.143:431
8.143:450
8.143:467
8.144:459
8.144:430
8.144:452
8.147:457
8.147:454
8.147:453
8.147:435
8.147:435
8.147:446
8.148:470
8.148:480
8.148:492
8.150:493
8.150:500
8.150:492
8.150:482
8.151:481
8.151:470
8.151:464
8.151:466
8.152:478
8.152:432
8.154:395
8.154:388
8.170:402
8.171:402
8.171:390
8.171:402
8.171:418
8.175:442
8.175:490
8.175:518
8.175:523
8.176:515
8.176:503
8.176:498
8.176:503
8.176:498
8.177:467
8.179:453
8.179:476
8.179:473
8.180:447
8.180:423
8.180:420
8.180:418
8.181:429
8.181:458
8.183:475
8.183:463
8.183:428
8.183:457
8.184:505
8.184:541
8.200:541
8.200:535
8.200:545
8.200:558
8.204:536
8.204:475
8.204:422
8.204:426
8.205:416
8.205:403
8.205:403
8.205:412
8.205:412
8.205:418
8.208:434
8.208:432
8.208:443
8.208:461
8.209:483
8.210:498
8.210:522
8.210:527
8.210:520
8.210:523
8.212:522
8.212:507
8.212:489
8.212:485
8.212:450
8.213:424
8.228:404
8.233:402
8.233:414
8.233:428
8.233:444
8.234:481
8.234:514
8.234:488
8.234:469
8.234:465
8.235:482
8.237:496
8.237:505
8.237:505
8.237:497
8.238:481
8.238:468
8.238:473
8.238:473
8.238:466
8.240:439
8.240:416
8.240:413
8.240:424
8.241:443
8.241:451
8.241:459
8.241:468
8.241:491
8.242:506
8.261:506
8.262:523
8.262:515
8.262:502
8.262:490
8.262:483
8.262:458
8.263:453
8.263:456
8.263:454
8.265:464
8.265:452
8.265:438
8.266:413
8.266:406
8.266:419
8.266:464
8.266:487
8.266:473
8.270:466
8.270:483
8.270:515
8.271:528
8.271:538
8.271:517
8.271:481
8.271:471
8.271:455
8.271:469
8.273:462
8.290:443
8.290:413
8.290:384
8.290:394
8.290:424
8.291:472
8.291:497
8.295:484
8.296:453
8.296:475
8.296:487
8.296:519
8.296:517
8.297:509
8.297:499
8.297:482
8.298:480
8.298:481
8.298:475
8.298:460
8.298:441
8.299:432
8.299:425
8.299:434
8.299:430
8.299:450
8.302:460
8.302:471
8.303:474
8.303:496
8.318:496
8.318:516
8.318:517
8.318:512
8.318:499
8.318:482
8.323:462
8.323:454
8.323:434
8.324:418
8.324:403
