0.000:468
0.001:474
0.001:487
0.001:492
0.001:479
0.001:491
0.001:515
0.001:541
0.001:566
0.002:586
0.002:589
0.002:580
0.002:572
0.002:568
0.002:577
0.002:557
0.002:530
0.002:502
0.002:479
0.002:459
0.002:455
0.003:456
0.003:462
0.003:456
0.003:442
0.003:455
0.004:475
0.004:498
0.004:512
0.004:526
0.004:526
0.004:539
0.006:539
0.006:533
0.006:535
0.007:544
0.007:533
0.008:512
0.008:481
0.008:460
0.009:443
0.010:435
0.010:434
0.010:440
0.010:442
0.010:429
0.010:442
0.010:463
0.010:487
0.010:506
0.010:518
0.011:524
0.011:515
0.011:506
0.012:507
0.012:512
0.012:495
0.012:471
0.013:445
0.013:425
0.013:405
0.014:402
0.014:403
0.014:409
0.014:409
0.015:403
0.015:421
0.015:446
0.015:472
0.015:492
0.015:510
0.015:514
0.015:513
0.016:506
0.016:508
0.016:511
0.016:491
0.017:464
0.017:435
0.017:411
0.017:394
0.018:380
0.018:377
0.018:379
0.018:377
0.018:375
0.019:389
0.019:413
0.019:445
0.019:471
0.020:471
0.020:492
0.020:502
0.020:503
0.020:500
0.021:509
0.021:519
0.021:501
0.021:474
0.022:446
0.022:432
0.022:423
0.022:419
0.022:421
0.023:428
0.023:426
0.023:419
0.023:436
0.023:467
0.024:501
0.024:517
0.024:532
0.024:532
0.025:527
0.025:517
0.026:515
0.026:519
0.026:496
0.026:465
0.026:436
0.027:416
0.027:401
0.028:394
0.028:400
0.028:414
0.028:417
0.028:410
0.028:429
0.028:453
0.029:485
0.029:511
0.029:528
0.029:530
0.030:527
0.030:527
0.030:538
0.030:544
0.030:522
0.031:497
0.031:468
0.031:447
0.031:431
0.031:424
0.031:428
0.032:432
0.032:430
0.032:432
0.032:460
0.032:493
0.033:531
0.033:531
0.033:566
0.033:595
0.033:615
0.034:627
0.034:636
0.034:661
0.034:690
0.034:697
0.034:698
0.035:702
0.035:706
0.035:719
0.035:745
0.035:783
0.036:824
0.036:856
0.036:887
0.036:934
0.036:983
0.036:990
0.037:989
0.037:989
0.037:989
0.037:989
0.037:989
0.037:988
0.038:988
0.038:989
0.038:990
0.038:982
0.038:891
0.039:788
0.039:705
0.039:645
0.039:597
0.039:541
0.040:491
0.040:480
0.040:476
0.040:480
0.040:463
0.040:444
0.041:432
0.041:423
0.041:422
0.041:434
0.041:443
0.042:432
0.043:419
0.043:405
0.043:397
0.043:399
0.043:401
0.043:406
0.043:416
0.044:420
0.044:420
0.044:443
0.044:481
0.044:481
0.044:527
0.044:561
0.044:579
0.044:583
0.045:578
0.045:563
0.045:559
0.045:548
0.047:510
0.047:472
0.047:436
0.047:414
0.047:400
0.047:392
0.048:390
0.048:387
0.048:373
0.048:362
0.048:380
0.048:406
0.049:433
0.049:456
0.049:469
0.049:474
0.049:471
0.050:466
0.050:473
0.050:479
0.050:459
0.050:437
0.050:411
0.051:390
0.051:376
0.051:369
0.051:379
0.051:390
0.052:389
0.052:386
0.052:409
0.052:431
0.052:455
0.052:471
0.053:487
0.053:492
0.053:489
0.053:483
0.053:491
0.054:494
0.054:471
0.054:446
0.054:422
0.054:408
0.054:395
0.055:392
0.055:396
0.055:406
0.055:404
0.055:402
0.056:426
0.056:426
0.056:453
0.056:477
0.056:493
0.056:507
0.057:510
0.057:504
0.057:497
0.057:507
0.057:510
0.057:488
0.058:461
0.058:436
0.058:417
0.058:405
0.058:402
0.059:404
0.059:415
0.060:412
0.060:411
0.060:436
0.060:462
0.060:490
0.060:513
0.060:526
0.060:530
0.060:527
0.061:517
0.061:525
0.061:530
0.061:504
0.061:476
0.062:454
0.062:439
0.062:429
0.063:428
0.063:435
0.063:442
0.063:440
0.063:440
0.064:465
0.064:491
0.064:516
0.064:536
0.064:549
0.064:549
0.065:544
0.065:542
0.065:552
0.065:552
0.065:528
0.066:502
0.066:474
0.066:451
0.066:442
0.066:440
0.066:441
0.067:458
0.067:455
0.067:455
0.067:455
0.067:477
0.068:502
0.068:524
0.068:543
0.068:556
0.068:562
0.068:561
0.069:558
0.069:569
0.069:571
0.069:548
0.069:523
0.070:497
0.070:481
0.070:473
0.070:470
0.070:471
0.071:482
0.071:480
0.071:479
0.071:502
0.071:527
0.072:549
0.072:568
0.072:579
0.072:584
0.072:582
0.072:578
0.073:585
0.073:584
0.073:565
0.073:541
0.073:514
0.074:495
0.074:487
0.074:487
0.074:490
0.074:494
0.074:487
0.075:484
0.075:505
0.075:527
0.076:550
0.076:568
0.076:578
0.076:582
0.077:579
0.077:572
0.077:578
0.077:582
0.077:564
0.078:538
0.078:515
0.078:496
0.078:487
0.079:487
0.079:492
0.079:496
0.079:484
0.079:484
0.080:482
0.080:501
0.080:523
0.080:545
0.080:563
0.080:572
0.081:577
0.081:570
0.081:561
0.081:568
0.081:569
0.082:547
0.082:521
0.082:497
0.082:474
0.082:457
0.082:457
0.083:461
0.083:466
0.083:456
0.083:456
0.083:477
0.084:499
0.084:519
0.084:534
0.084:540
0.084:535
0.084:527
0.085:519
0.085:525
0.085:517
0.085:489
0.085:460
0.085:436
0.086:414
0.086:397
0.086:387
0.086:390
0.086:393
0.087:384
0.087:384
0.087:407
0.087:430
0.087:452
0.087:467
0.088:473
0.088:466
0.088:463
0.088:463
0.088:476
0.089:471
0.089:447
0.089:422
0.089:397
0.089:377
0.089:365
0.090:359
0.090:363
0.090:370
0.090:370
0.090:358
0.090:351
0.091:364
0.091:383
0.091:404
0.091:413
0.091:417
0.092:412
0.093:409
0.093:403
0.093:414
0.094:415
0.094:393
0.094:368
0.094:350
0.094:334
0.094:326
0.094:329
0.095:335
0.095:333
0.095:313
0.095:319
0.096:350
0.096:382
0.096:415
0.096:442
0.096:462
0.097:469
0.097:468
0.097:466
0.097:483
0.097:486
0.097:469
0.098:446
0.098:425
0.098:406
0.098:399
0.098:399
0.099:401
0.099:403
0.099:388
0.099:382
0.099:406
0.100:432
0.100:454
0.100:468
0.100:476
0.100:474
0.100:466
0.101:461
0.101:478
0.101:479
0.101:456
0.101:429
0.102:404
0.102:385
0.102:375
0.102:374
0.102:378
0.102:378
0.103:384
0.103:374
0.103:377
0.103:400
0.103:424
0.104:448
0.104:465
0.104:474
0.104:478
0.104:474
0.104:474
0.105:491
0.105:487
0.105:464
0.105:440
0.105:420
0.106:403
0.106:397
0.106:395
0.106:401
0.106:406
0.106:393
0.107:387
0.107:410
0.107:438
0.107:459
0.108:473
0.108:478
0.108:478
0.108:475
0.108:472
0.109:482
0.109:477
0.110:450
0.110:423
0.110:399
0.110:381
0.111:374
0.111:373
0.111:382
0.111:390
0.112:382
0.112:381
0.112:400
0.112:417
0.113:429
0.113:442
0.113:453
0.113:461
0.113:462
0.113:461
0.114:483
0.114:484
0.114:467
0.114:446
0.114:440
0.115:435
0.115:442
0.115:453
0.115:453
0.115:465
0.115:472
0.116:464
0.116:475
0.116:500
0.116:522
0.116:542
0.117:557
0.117:557
0.117:548
0.117:541
0.117:534
0.117:544
0.118:534
0.118:511
0.118:482
0.118:464
0.118:450
0.119:439
0.119:434
0.119:440
0.119:447
0.119:441
0.119:448
0.120:469
0.120:497
0.120:517
0.120:531
0.120:535
0.121:533
0.121:522
0.121:518
0.121:529
0.121:521
0.121:495
0.122:468
0.122:446
0.122:430
0.122:422
0.122:421
0.123:429
0.123:433
0.123:423
0.123:432
0.123:457
0.124:484
0.124:508
0.124:525
0.124:531
0.124:531
0.125:526
0.125:519
0.125:532
0.126:525
0.126:502
0.126:478
0.126:456
0.126:442
0.127:435
0.127:435
0.127:436
0.127:443
0.127:449
0.128:439
0.128:446
0.128:465
0.129:489
0.129:507
0.129:522
0.129:524
0.129:519
0.130:511
0.130:503
0.130:508
0.130:499
0.130:481
0.130:453
0.131:432
0.131:416
0.131:413
0.131:418
0.131:427
0.132:439
0.132:435
0.132:446
0.132:470
0.132:495
0.132:518
0.133:531
0.133:537
0.133:540
0.133:532
0.133:520
0.134:518
0.134:500
0.134:472
0.134:441
0.134:421
0.134:406
0.135:399
0.135:399
0.135:408
0.135:414
0.135:413
0.136:432
0.136:462
0.136:487
0.136:502
0.136:516
0.136:525
0.137:530
0.138:526
0.138:524
0.138:537
0.138:531
0.139:512
0.139:488
0.139:469
0.139:456
0.139:456
0.140:452
0.140:452
0.140:454
0.140:455
0.140:443
0.140:452
0.141:475
0.141:499
0.141:517
0.143:532
0.143:538
0.143:534
0.143:521
0.143:515
0.143:521
0.144:509
0.144:488
0.144:463
0.144:447
0.145:431
0.145:431
0.145:437
0.145:443
0.146:446
0.146:441
0.146:458
0.146:487
0.146:517
0.147:540
0.147:561
0.147:574
0.147:576
0.147:574
0.147:573
0.148:579
0.148:560
0.148:531
0.148:497
0.148:471
0.149:447
0.149:436
0.149:436
0.149:439
0.149:441
0.149:435
0.150:452
0.150:485
0.150:521
0.150:546
0.150:562
0.151:569
0.151:565
0.151:558
0.151:558
0.151:564
0.151:548
0.152:522
0.152:487
0.152:464
0.152:464
0.152:449
0.153:445
0.153:444
0.153:447
0.153:447
0.153:440
0.153:453
0.153:480
0.153:510
0.153:534
0.155:549
0.155:554
0.155:557
0.155:546
0.155:545
0.156:550
0.156:530
0.156:505
0.156:479
0.156:455
0.157:432
0.157:416
0.157:406
0.157:407
0.157:407
0.158:400
0.158:414
0.158:434
0.158:458
0.158:473
0.158:484
0.159:493
0.159:483
0.160:472
0.160:473
0.160:480
0.160:464
0.160:440
0.160:415
0.160:405
0.160:397
0.160:402
0.160:410
0.160:417
0.160:420
0.160:413
0.160:430
0.161:455
0.161:484
0.161:509
0.162:524
0.162:530
0.162:528
0.162:522
0.162:522
0.163:529
0.163:511
0.163:485
0.163:455
0.163:455
0.163:435
0.164:420
0.164:415
0.164:419
0.164:424
0.164:427
0.165:423
0.165:437
0.165:456
0.165:477
0.165:493
0.166:504
0.166:510
0.166:515
0.166:515
0.166:519
0.167:528
0.167:512
0.167:489
0.167:463
0.167:442
0.168:424
0.168:417
0.168:417
0.168:424
0.168:422
0.168:411
0.169:422
0.169:441
0.169:465
0.169:484
0.170:497
0.170:501
0.170:500
0.170:496
0.170:498
0.171:504
0.171:489
0.171:464
0.171:438
0.171:420
0.171:405
0.172:397
0.172:389
0.172:378
0.172:363
0.172:352
0.172:368
0.173:395
0.173:423
0.173:448
0.173:473
0.173:488
0.174:484
0.174:477
0.174:481
0.174:491
0.174:485
0.175:482
0.175:482
0.175:485
0.175:481
0.176:486
0.176:502
0.176:523
0.176:559
0.176:590
0.177:610
0.177:655
0.177:715
0.177:775
0.177:826
0.177:867
0.177:903
0.177:941
0.177:974
0.177:990
0.177:990
0.178:989
0.178:989
0.178:990
0.178:989
0.179:990
0.179:989
0.179:989
0.179:988
0.179:988
0.179:988
0.180:988
0.180:988
0.180:988
0.180:988
0.181:990
0.181:990
0.181:908
0.181:827
0.181:770
0.181:710
0.182:639
0.182:579
0.182:514
0.182:442
0.182:363
0.182:308
0.183:273
0.183:248
0.183:235
0.183:237
0.183:276
0.184:330
0.184:381
0.184:412
0.184:441
0.184:459
0.184:472
0.185:481
0.185:507
0.185:541
0.185:549
0.185:549
0.186:546
0.186:530
0.186:508
0.186:484
0.186:472
0.186:461
0.187:443
0.187:417
0.187:394
0.187:404
0.187:424
0.188:442
0.188:452
0.188:448
0.188:426
0.188:402
0.188:386
0.189:388
0.189:398
0.189:386
0.189:377
0.189:364
0.190:358
0.190:355
0.190:362
0.190:374
0.190:389
0.190:396
0.191:402
0.191:432
0.191:459
0.191:484
0.191:501
0.193:508
0.193:504
0.193:496
0.193:486
0.193:489
0.193:492
0.193:462
0.194:427
0.194:392
0.194:367
0.194:352
0.194:350
0.194:354
0.195:362
0.195:359
0.195:356
0.195:382
0.195:412
0.195:445
0.195:469
0.195:490
0.195:500
0.196:503
0.196:503
0.196:509
0.196:512
0.196:512
0.197:488
0.197:460
0.197:429
0.197:407
0.197:395
0.198:392
0.198:398
0.198:405
0.198:402
0.198:398
0.198:422
0.199:451
0.199:486
0.199:512
0.199:529
0.199:535
0.200:532
0.200:524
0.200:525
0.200:527
0.200:502
0.200:479
0.201:454
0.201:435
0.201:422
0.201:421
0.201:427
0.202:437
0.202:437
0.202:432
0.202:450
0.202:477
0.203:503
0.203:520
0.203:532
0.203:536
0.203:534
0.203:528
0.204:537
0.204:544
0.204:526
0.204:501
0.204:474
0.205:453
0.205:440
0.205:434
0.205:436
0.205:441
0.205:436
0.206:430
0.206:448
0.206:473
0.206:497
0.206:515
0.207:527
0.207:531
0.207:528
0.207:524
0.207:534
0.207:534
0.208:540
0.208:520
0.208:497
0.208:468
0.209:448
0.209:437
0.209:437
0.209:446
0.209:461
0.210:460
0.210:459
0.210:481
0.210:506
0.210:534
0.211:556
0.211:572
0.211:578
0.211:578
0.211:575
0.212:582
0.212:585
0.212:565
0.212:540
0.213:517
0.213:501
0.213:479
0.213:471
0.213:475
0.213:480
0.214:475
0.214:473
0.214:494
0.214:519
0.214:548
0.215:566
0.215:573
0.215:576
0.215:573
0.215:570
0.215:579
0.216:582
0.216:560
0.216:534
0.216:507
0.216:488
0.217:477
0.217:477
0.217:479
0.217:487
0.217:483
0.218:481
0.218:504
0.218:528
0.218:553
0.218:570
0.219:581
0.219:582
0.219:579
0.219:573
0.219:573
0.220:580
0.220:578
0.220:555
0.220:528
0.220:501
0.220:481
0.221:468
0.221:462
0.221:463
0.221:470
0.221:462
0.221:461
0.222:484
0.222:506
0.222:526
0.222:542
0.222:551
0.223:549
0.223:544
0.223:535
0.223:543
0.223:544
0.224:520
0.224:492
0.224:461
0.224:438
0.224:426
0.224:421
0.225:423
0.225:428
0.226:426
0.226:423
0.226:436
0.226:457
0.226:480
0.226:497
0.227:506
0.227:504
0.227:494
0.227:486
0.227:494
0.227:495
0.227:470
0.228:445
0.228:423
0.228:402
0.228:387
0.229:380
0.229:383
0.229:388
0.229:380
0.229:381
0.230:404
0.230:431
0.230:454
0.230:469
0.230:477
0.230:477
0.231:469
0.231:469
0.231:463
0.231:472
0.231:470
0.232:446
0.232:417
0.232:391
0.232:372
0.232:361
0.232:358
0.233:362
0.233:369
0.233:363
0.233:364
0.234:386
0.234:410
0.234:434
0.234:452
0.235:462
0.235:463
0.235:456
0.235:448
0.235:454
0.235:453
0.236:430
0.236:404
0.236:380
0.236:362
0.236:353
0.237:352
0.237:357
0.237:366
0.237:363
0.237:364
0.237:390
0.238:416
0.238:441
0.238:460
0.238:470
0.238:474
0.239:473
0.239:465
0.239:475
0.239:472
0.239:449
0.239:423
0.240:398
0.240:378
0.240:367
0.240:368
0.240:373
0.241:383
0.241:374
0.241:374
0.241:398
0.241:423
0.243:446
0.243:464
0.243:473
0.243:476
0.243:476
0.243:472
0.243:469
0.245:489
0.245:484
0.245:458
0.245:434
0.246:411
0.246:394
0.246:384
0.246:382
0.247:391
0.247:400
0.247:394
0.247:399
0.247:425
0.247:452
0.248:475
0.248:491
0.248:501
0.248:501
0.248:493
0.249:487
0.249:499
0.249:495
0.249:470
0.250:444
0.250:419
0.250:401
0.250:394
0.250:394
0.251:401
0.251:410
0.251:406
0.251:413
0.251:436
0.251:461
0.252:482
0.252:500
0.252:510
0.252:512
0.252:508
0.253:504
0.253:517
0.253:512
0.253:485
0.253:458
0.253:432
0.254:410
0.254:401
0.254:400
0.254:406
0.254:412
0.255:405
0.255:412
0.255:436
0.255:461
0.255:485
0.255:507
0.256:518
0.256:518
0.256:522
0.256:520
0.256:516
0.257:528
0.257:525
0.257:501
0.257:474
0.257:450
0.258:427
0.258:416
0.258:419
0.258:424
0.258:430
0.258:423
0.260:428
0.260:450
0.260:475
0.260:497
0.260:515
0.260:523
0.261:526
0.261:523
0.261:517
0.261:527
0.261:522
0.261:496
0.261:470
0.261:445
0.262:427
0.262:420
0.262:420
0.262:427
0.262:436
0.263:426
0.263:430
0.263:458
0.263:483
0.263:502
0.264:519
0.264:531
0.264:538
0.264:526
0.264:518
0.265:530
0.265:524
0.265:497
0.265:469
0.266:444
0.266:427
0.266:418
0.266:418
0.266:422
0.266:428
0.267:422
0.267:431
0.267:457
0.267:484
0.267:506
0.268:524
0.268:524
0.268:533
0.268:535
0.268:531
0.268:528
0.269:539
0.269:531
0.269:505
0.269:478
0.269:452
0.270:432
0.270:423
0.270:421
0.270:427
0.270:433
0.270:424
0.271:431
0.271:453
0.271:479
0.271:500
0.271:518
0.272:526
0.272:527
0.272:523
0.272:522
0.272:534
0.273:524
0.273:499
0.273:474
0.273:450
0.273:433
0.273:423
0.274:422
0.274:426
0.274:431
0.274:424
0.274:430
0.275:454
0.275:478
0.275:503
0.275:521
0.276:526
0.277:526
0.277:523
0.277:516
0.277:526
0.277:523
0.277:498
0.278:469
0.278:447
0.278:428
0.278:423
0.279:422
0.279:428
0.279:433
0.279:422
0.279:432
0.280:455
0.280:480
0.280:501
0.280:501
0.280:519
0.280:529
0.281:529
0.281:523
0.281:520
0.281:532
0.281:523
0.282:498
0.282:473
0.282:458
0.282:442
0.282:429
0.283:430
0.283:438
0.283:449
0.283:443
0.283:452
0.283:476
0.284:497
0.284:516
0.284:533
0.284:540
0.284:536
0.284:528
0.285:524
0.285:538
0.285:531
0.285:512
0.285:490
0.286:470
0.286:453
0.286:447
0.286:446
0.286:453
0.287:463
0.287:457
0.287:471
0.287:498
0.287:525
0.287:546
0.288:564
0.288:570
0.288:569
0.288:564
0.288:562
0.289:574
0.289:563
0.289:537
0.289:507
0.289:483
0.290:462
0.290:453
0.290:453
0.290:457
0.290:462
0.290:453
0.291:464
0.291:486
0.291:512
0.291:512
0.291:532
0.291:546
0.292:547
0.293:546
0.293:540
0.293:535
0.293:545
0.294:534
0.294:510
0.294:483
0.294:461
0.294:442
0.294:432
0.295:431
0.295:436
0.295:443
0.295:433
0.296:440
0.296:460
0.296:483
0.296:501
0.296:514
0.296:518
0.297:518
0.297:511
0.297:507
0.297:522
0.298:506
0.298:476
0.298:448
0.298:425
0.298:407
0.298:402
0.299:405
0.299:410
0.299:413
0.299:405
0.299:416
0.300:443
0.300:470
0.300:493
0.300:508
0.300:513
0.301:510
0.301:504
0.301:504
0.301:515
0.301:503
0.302:478
0.302:446
0.302:421
0.302:404
0.302:398
0.302:400
0.303:404
0.303:407
0.303:398
0.303:412
0.303:438
0.304:438
0.304:467
0.304:490
0.304:506
0.304:512
0.305:513
0.305:508
0.305:507
0.305:519
0.305:504
0.306:479
0.306:452
0.306:429
0.306:410
0.306:403
0.307:403
0.307:408
0.307:410
0.307:399
0.307:416
0.308:441
0.308:467
0.308:488
0.308:504
0.308:509
0.309:510
0.309:505
0.309:504
0.310:514
0.310:501
0.310:477
0.310:449
0.310:425
0.310:407
0.310:402
0.310:402
0.310:410
0.310:413
0.310:405
0.310:419
0.311:442
0.311:467
0.311:487
0.311:503
0.312:511
0.312:511
0.312:505
0.312:504
0.312:514
0.313:501
0.313:474
0.313:440
0.314:416
0.314:396
0.314:387
0.314:385
0.314:392
0.314:396
0.315:386
0.315:401
0.315:401
0.315:423
0.315:447
0.316:469
0.316:488
0.316:506
0.316:524
0.316:533
0.316:550
0.317:584
0.317:595
0.317:593
0.317:589
0.317:594
0.318:601
0.318:619
0.318:644
0.318:690
0.318:727
0.319:747
0.319:799
0.319:871
0.319:942
0.319:990
0.320:989
0.320:989
0.320:988
0.320:988
0.320:988
0.320:987
0.321:987
0.321:987
0.321:987
0.321:987
0.321:987
0.322:987
0.322:988
0.322:988
0.322:988
0.322:989
0.323:990
0.323:949
0.323:889
0.323:833
0.323:774
0.323:708
0.324:656
0.324:603
0.324:541
0.324:479
0.324:407
0.325:344
0.325:295
0.325:269
0.326:259
0.326:274
0.326:301
0.326:329
0.326:342
0.326:345
0.326:345
0.326:376
0.327:411
0.327:449
0.327:485
0.327:524
0.327:551
0.327:561
0.327:560
0.327:561
0.327:560
0.327:528
0.327:489
0.327:446
0.327:412
0.327:388
0.327:380
0.329:381
0.329:382
0.329:373
0.329:355
0.329:362
0.329:382
0.329:405
0.329:424
0.330:437
0.330:441
0.330:437
0.330:431
0.330:433
0.331:443
0.331:429
0.331:404
0.331:377
0.331:357
0.331:341
0.331:337
0.331:340
0.331:348
0.332:356
0.332:350
0.332:363
0.332:387
0.332:416
0.332:436
0.332:454
0.333:458
0.333:456
0.333:451
0.333:455
0.333:467
0.333:448
0.334:424
0.334:397
0.334:380
0.334:365
0.334:359
0.334:363
0.335:374
0.335:377
0.335:377
0.335:372
0.335:390
0.336:416
0.336:444
0.336:463
0.336:480
0.336:488
0.337:486
0.337:480
0.337:483
0.337:493
0.338:476
0.338:453
0.338:425
0.339:407
0.339:392
0.339:384
0.339:386
0.339:395
0.339:401
0.339:396
0.339:414
0.340:438
0.340:465
0.340:487
0.340:507
0.340:511
0.341:507
0.341:504
0.341:512
0.341:520
0.342:502
0.342:478
0.342:449
0.342:430
0.342:416
0.342:412
0.343:417
0.343:422
0.343:422
0.343:418
0.343:440
0.343:464
0.343:492
0.344:512
0.344:527
0.344:533
0.344:533
0.344:529
0.344:534
0.344:539
0.344:518
0.344:490
0.344:462
0.345:443
0.345:432
0.346:430
0.346:433
0.346:440
0.346:440
0.346:442
0.347:438
0.347:456
0.347:483
0.347:514
0.347:536
0.347:551
0.348:556
0.348:556
0.348:552
0.348:558
0.348:566
0.349:548
0.349:525
0.350:506
0.350:485
0.350:467
0.351:457
0.351:457
0.351:468
0.351:471
0.351:466
0.352:485
0.352:507
0.352:533
0.352:552
0.352:566
0.352:571
0.353:570
0.353:568
0.353:572
0.353:578
0.353:559
0.354:536
0.354:511
0.354:491
0.354:476
0.354:471
0.354:475
0.355:482
0.355:482
0.355:478
0.355:498
0.355:523
0.356:551
0.356:570
0.356:584
0.356:588
0.356:586
0.356:581
0.357:586
0.357:593
0.357:576
0.357:552
0.357:523
0.357:501
0.357:486
0.357:479
0.358:482
0.358:482
0.359:488
0.359:487
0.359:480
0.359:496
0.359:518
0.359:546
0.359:564
0.359:575
0.359:578
0.359:573
0.359:567
0.359:571
0.359:575
0.359:555
0.361:529
0.361:500
0.361:479
0.361:462
0.361:457
0.361:458
0.362:464
0.362:462
0.362:453
0.362:466
0.362:491
0.363:517
0.363:533
0.363:543
0.363:546
0.363:540
0.364:529
0.364:531
0.364:531
0.364:508
0.364:479
0.365:451
0.365:428
0.365:413
0.365:407
0.365:406
0.366:409
0.366:402
0.366:396
0.366:417
0.366:441
0.366:474
0.367:486
0.367:489
0.367:490
0.367:483
0.367:475
0.367:482
0.367:484
0.367:458
0.368:429
0.368:399
0.368:379
0.368:364
0.368:357
0.368:357
0.369:360
0.369:364
0.369:358
0.369:356
0.369:375
0.369:393
0.369:417
0.370:435
0.370:447
0.370:448
0.370:444
0.370:435
0.371:441
0.371:448
0.371:423
0.371:398
0.371:371
0.372:351
0.372:338
0.372:329
0.372:333
0.372:343
0.372:339
0.373:337
0.373:355
0.373:380
0.373:407
0.373:428
0.374:441
0.374:445
0.374:442
0.374:437
0.375:444
0.375:449
0.375:429
0.375:404
0.375:378
0.375:360
0.375:347
0.375:345
0.376:348
0.376:353
0.376:349
0.376:347
0.376:368
0.378:389
0.378:412
0.378:433
0.378:446
0.378:453
0.378:450
0.379:444
0.379:455
0.379:456
0.379:430
0.379:407
0.379:383
0.380:367
0.380:355
0.380:355
0.380:356
0.380:366
0.380:378
0.381:376
0.381:377
0.381:403
0.381:425
0.381:449
0.382:469
0.382:483
0.382:486
0.382:480
0.382:473
0.382:480
0.383:480
0.383:458
0.383:430
0.383:407
0.383:391
0.383:380
0.384:383
0.384:381
0.384:387
0.384:385
0.384:385
0.385:409
0.385:434
0.385:457
0.385:476
0.385:492
0.385:496
0.386:491
0.386:484
0.386:494
0.386:498
0.386:477
0.387:452
0.387:424
0.387:407
0.387:397
0.387:391
0.387:396
0.388:407
0.388:405
0.388:406
0.389:429
0.389:452
0.389:475
0.389:493
0.389:505
0.389:508
0.390:503
0.390:496
0.390:506
0.390:510
0.390:486
0.391:461
0.391:435
0.391:418
0.391:418
0.391:409
0.392:403
0.392:409
0.393:414
0.393:414
0.393:413
0.393:436
0.393:462
0.393:487
0.394:504
0.394:517
0.394:518
0.394:518
0.394:510
0.394:518
0.394:518
0.395:493
0.395:471
0.395:446
0.395:426
0.396:414
0.396:411
0.396:416
0.396:425
0.396:421
0.396:423
0.397:445
0.397:470
0.397:494
0.397:511
0.397:521
0.397:520
0.397:515
0.397:507
0.397:514
0.398:512
0.398:484
0.398:453
0.398:425
0.398:413
0.399:400
0.399:393
0.399:396
0.399:406
0.399:403
0.399:407
0.399:436
0.399:467
0.401:501
0.401:525
0.401:531
0.401:535
0.401:532
0.402:529
0.402:540
0.402:536
0.402:505
0.402:483
0.402:459
0.403:459
0.403:445
0.403:432
0.403:426
0.403:430
0.404:437
0.404:434
0.404:434
0.404:459
0.404:486
0.404:508
0.405:527
0.405:536
0.405:537
0.405:527
0.405:521
0.406:529
0.406:524
0.406:500
0.406:474
0.406:449
0.406:432
0.407:423
0.407:420
0.407:426
0.407:432
0.407:423
0.407:425
0.407:448
0.407:478
0.408:506
0.408:523
0.408:530
0.409:526
0.409:517
0.409:508
0.409:519
0.409:518
0.409:494
0.409:466
0.409:442
0.409:423
0.409:411
0.409:409
0.409:416
0.409:427
0.409:423
0.409:428
0.411:456
0.411:487
0.411:514
0.411:530
0.411:538
0.411:537
0.411:530
0.412:521
0.412:527
0.412:522
0.412:496
0.413:467
0.413:467
0.413:440
0.413:422
0.413:414
0.414:418
0.414:418
0.414:425
0.414:422
0.414:428
0.414:451
0.415:479
0.415:504
0.415:524
0.415:537
0.415:541
0.416:533
0.416:528
0.416:540
0.416:542
0.416:513
0.416:481
0.417:454
0.417:434
0.417:422
0.417:417
0.417:423
0.417:430
0.417:423
0.417:430
0.418:457
0.418:485
0.418:513
0.418:533
0.418:538
0.418:537
0.419:528
0.419:520
0.419:529
0.419:525
0.419:499
0.419:472
0.419:448
0.419:433
0.421:431
0.421:437
0.421:443
0.421:451
0.421:455
0.421:465
0.422:493
0.422:521
0.422:548
0.422:567
0.423:577
0.423:577
0.423:570
0.423:565
0.423:574
0.424:568
0.424:544
0.424:544
0.424:517
0.424:490
0.424:467
0.425:450
0.426:442
0.426:443
0.426:448
0.426:440
0.426:444
0.426:466
0.426:490
0.426:511
0.426:528
0.426:536
0.426:537
0.427:528
0.427:521
0.427:539
0.427:534
0.427:507
0.427:477
0.427:451
0.427:437
0.427:432
0.427:437
0.427:446
0.429:457
0.429:452
0.429:460
0.430:491
0.430:509
0.430:525
0.430:539
0.430:544
0.431:542
0.431:531
0.431:519
0.431:523
0.431:513
0.432:483
0.432:452
0.432:426
0.432:407
0.432:400
0.432:403
0.433:412
0.433:421
0.433:411
0.433:415
0.434:448
0.434:476
0.434:500
0.434:517
0.434:524
0.435:526
0.435:517
0.435:511
0.435:522
0.435:512
0.436:512
0.436:484
0.436:456
0.436:429
0.436:408
0.436:398
0.437:399
0.437:408
0.437:417
0.437:414
0.438:415
0.438:434
0.438:460
0.439:482
0.439:500
0.439:509
0.439:508
0.439:500
0.439:491
0.439:499
0.439:486
0.439:455
0.440:427
0.440:405
0.440:390
0.440:385
0.440:388
0.440:397
0.441:407
0.441:397
0.441:403
0.442:426
0.442:461
0.442:489
0.442:508
0.442:516
0.442:514
0.442:514
0.443:514
0.443:526
0.443:516
0.443:491
0.444:469
0.444:448
0.444:430
0.444:420
0.444:416
0.445:420
0.445:429
0.445:425
0.445:426
0.446:446
0.446:469
0.446:486
0.446:503
0.446:512
0.446:512
0.447:508
0.447:504
0.447:516
0.447:516
0.447:512
0.448:487
0.448:455
0.448:430
0.449:409
0.449:402
0.449:401
0.449:404
0.449:419
0.449:413
0.449:417
0.449:440
0.449:468
0.449:495
0.449:520
0.449:534
0.449:535
0.449:527
0.449:519
0.450:529
0.450:522
0.450:504
0.450:487
0.450:478
0.450:476
0.451:487
0.451:505
0.451:530
0.451:564
0.451:584
0.452:617
0.452:673
0.452:734
0.452:789
0.452:840
0.452:883
0.453:932
0.453:977
0.453:990
0.453:989
0.453:989
0.454:989
0.454:989
0.454:988
0.454:988
0.454:988
0.455:988
0.455:987
0.455:987
0.455:987
0.455:987
0.455:987
0.456:987
0.456:987
0.456:988
0.456:988
0.457:989
0.457:948
0.457:871
0.457:871
0.457:806
0.457:713
0.458:619
0.459:535
0.459:449
0.459:351
0.459:279
0.460:236
0.460:220
0.460:225
0.460:217
0.460:232
0.460:279
0.460:332
0.460:373
0.460:411
0.460:442
0.461:465
0.461:478
0.461:498
0.461:535
0.461:550
0.461:540
0.462:514
0.462:496
0.462:472
0.463:448
0.463:424
0.463:410
0.463:406
0.463:385
0.463:387
0.464:408
0.464:432
0.464:451
0.464:464
0.464:462
0.465:458
0.465:448
0.465:443
0.465:455
0.465:448
0.466:428
0.466:401
0.466:379
0.466:362
0.466:350
0.467:345
0.467:350
0.467:354
0.467:343
0.467:347
0.467:367
0.467:394
0.467:410
0.468:424
0.469:432
0.469:436
0.470:431
0.470:431
0.470:436
0.470:455
0.470:456
0.470:441
0.471:420
0.471:407
0.471:394
0.471:388
0.471:389
0.472:400
0.472:409
0.472:397
0.472:400
0.472:418
0.473:439
0.473:462
0.473:479
0.473:483
0.473:479
0.473:476
0.474:473
0.474:480
0.474:464
0.474:436
0.474:407
0.475:383
0.475:363
0.476:356
0.476:354
0.476:367
0.476:387
0.476:378
0.477:3886
0.477:551
0.477:519
0.477:496
0.477:471
0.477:441
0.477:400
0.477:367
0.477:345
0.477:347
0.478:466
0.478:393
0.478:423
0.478:451
0.479:471
0.479:494
0.479:530
0.479:569
0.479:582
0.479:577
0.479:553
0.479:531
0.480:495
0.480:464
0.480:464
0.480:441
0.480:431
0.480:395
0.482:365
0.482:355
0.482:355
0.482:366
0.482:393
0.482:426
0.482:451
0.482:474
0.482:490
0.482:532
0.482:568
0.483:578
0.483:577
0.483:562
0.483:539
0.483:514
0.483:495
0.484:470
0.484:447
0.484:414
0.484:378
0.484:376
0.485:380
0.485:396
0.485:421
0.485:445
0.485:482
0.486:503
0.486:523
0.486:570
0.486:610
0.486:621
0.486:622
0.486:607
0.486:586
0.486:554
0.488:526
0.488:501
0.488:473
0.488:432
0.488:407
0.488:406
0.489:411
0.489:428
0.489:460
0.489:484
0.489:514
0.489:531
0.489:550
0.489:596
0.490:630
0.490:645
0.490:639
0.490:623
0.490:604
0.490:571
0.491:571
0.491:547
0.491:522
0.492:492
0.492:451
0.492:427
0.492:411
0.492:420
0.492:436
0.493:463
0.493:492
0.493:523
0.493:552
0.493:586
0.493:626
0.494:676
0.494:700
0.494:690
0.494:665
0.494:639
0.495:609
0.495:579
0.495:549
0.495:529
0.495:486
0.496:444
0.496:433
0.496:438
0.496:450
0.496:476
0.497:496
0.497:512
0.497:532
0.497:550
0.497:598
0.498:629
0.498:638
0.499:631
0.499:605
0.499:576
0.499:542
0.499:511
0.499:484
0.499:461
0.499:416
0.500:384
0.500:370
0.500:364
0.500:374
0.500:401
0.500:431
0.501:456
0.501:465
0.501:481
0.501:524
0.502:555
0.502:559
0.502:547
0.502:527
0.502:499
0.502:499
0.503:473
0.503:443
0.503:414
0.503:393
0.503:353
0.504:327
0.504:319
0.504:325
0.504:337
0.504:362
0.504:389
0.505:420
0.505:436
0.505:454
0.505:500
0.505:520
0.506:529
0.506:516
0.506:493
0.506:465
0.506:432
0.506:409
0.507:384
0.507:356
0.507:318
0.507:291
0.507:280
0.507:292
0.507:316
0.507:352
0.508:379
0.508:397
0.508:413
0.508:442
0.508:483
0.508:505
0.510:515
0.510:503
0.510:481
0.510:448
0.510:418
0.511:396
0.511:372
0.511:344
0.511:299
0.511:274
0.511:263
0.511:279
0.511:303
0.511:335
0.511:361
0.512:381
0.512:406
0.512:443
0.513:498
0.513:531
0.513:538
0.513:535
0.513:524
0.513:524
0.514:507
0.514:486
0.514:463
0.514:442
0.514:415
0.515:389
0.515:371
0.515:383
0.515:409
0.515:447
0.516:487
0.516:523
0.516:556
0.516:585
0.517:618
0.517:663
0.517:684
0.517:680
0.517:669
0.517:656
0.517:641
0.517:627
0.518:607
0.518:593
0.518:567
0.518:524
0.518:497
0.518:502
0.519:537
0.519:563
0.519:602
0.519:647
0.519:692
0.520:726
0.520:762
0.520:819
0.520:830
0.520:824
0.520:780
0.521:717
0.521:655
0.521:598
0.521:528
0.521:467
0.522:399
0.522:318
0.522:261
0.522:224
0.522:206
0.522:202
0.523:222
0.523:253
0.523:294
0.523:329
0.523:371
0.524:422
0.524:452
0.524:465
0.524:457
0.524:457
0.525:441
0.525:414
0.525:390
0.525:372
0.525:358
0.525:339
0.525:313
0.525:309
0.526:319
0.526:339
0.526:373
0.526:418
0.526:452
0.527:488
0.527:520
0.527:553
0.527:585
0.527:602
0.527:606
0.528:592
0.528:570
0.528:541
0.529:516
0.529:485
0.529:471
0.529:442
0.530:412
0.530:393
0.530:388
0.530:407
0.530:438
0.531:459
0.531:487
0.531:509
0.531:531
0.531:561
0.532:601
0.532:619
0.532:619
0.532:615
0.532:590
0.533:560
0.533:531
0.533:511
0.533:494
0.533:468
0.533:439
0.534:423
0.534:415
0.534:424
0.534:449
0.534:471
0.535:497
0.535:524
0.535:544
0.535:584
0.535:622
0.535:646
0.536:644
0.536:644
0.536:628
0.536:601
0.536:572
0.537:549
0.537:522
0.537:499
0.537:461
0.537:419
0.537:403
0.538:411
0.538:428
0.538:452
0.539:480
0.539:503
0.539:527
0.539:537
0.539:569
0.539:612
0.539:627
0.539:619
0.539:587
0.539:554
0.540:523
0.540:500
0.540:474
0.540:453
0.540:412
0.540:393
0.541:385
0.541:381
0.541:396
0.541:412
0.541:435
0.541:458
0.543:488
0.543:510
0.543:537
0.543:571
0.543:590
0.543:582
0.543:565
0.543:537
0.543:510
0.543:475
0.543:450
0.543:434
0.543:401
0.544:366
0.544:361
0.544:357
0.544:377
0.544:400
0.544:439
0.545:469
0.545:492
0.545:512
0.546:556
0.546:586
0.546:592
0.547:592
0.547:589
0.547:569
0.548:544
0.548:515
0.549:492
0.549:473
0.549:464
0.549:424
0.549:394
0.551:394
0.552:399
0.552:418
0.552:446
0.552:474
0.552:505
0.553:527
0.553:554
0.553:595
0.556:627
0.556:643
0.556:635
0.556:626
0.556:603
0.557:577
0.557:551
0.557:533
0.557:506
0.557:468
0.560:448
0.576:440
0.576:447
0.577:464
0.577:482
0.577:514
0.577:539
0.579:563
0.580:591
0.580:630
0.580:658
0.580:675
0.581:674
0.581:658
0.581:633
0.581:599
0.581:580
0.585:559
0.585:540
0.585:510
0.585:484
0.585:470
0.586:477
0.586:502
0.586:533
0.586:563
0.586:593
0.588:623
0.588:646
0.588:675
0.588:702
0.604:702
0.604:717
0.605:715
0.605:691
0.605:666
0.605:643
0.608:620
0.608:602
0.609:571
0.609:534
0.609:520
0.609:514
0.609:523
0.609:549
0.610:575
0.613:597
0.613:619
0.613:648
0.613:682
0.614:725
0.614:747
0.614:746
0.614:731
0.614:715
0.614:695
0.616:667
0.617:644
0.617:624
0.617:600
0.617:562
0.633:537
0.633:524
0.637:535
0.637:550
0.638:575
0.638:596
0.638:617
0.639:640
0.639:667
0.639:703
0.639:734
0.639:745
0.642:728
0.642:703
0.643:677
0.643:644
0.643:611
0.643:593
0.645:562
0.645:521
0.645:492
0.646:482
0.646:492
0.646:507
0.646:529
0.646:560
0.646:584
0.646:582
0.646:598
0.647:638
0.662:638
0.662:655
0.666:664
0.666:650
0.667:621
0.667:584
0.667:551
0.667:502
0.667:480
0.667:453
0.667:400
0.670:374
0.670:359
0.670:364
0.670:373
0.670:390
0.671:407
0.671:424
0.671:429
0.671:451
0.671:489
0.674:497
0.674:492
0.674:466
0.674:435
0.674:406
0.676:368
0.676:329
0.676:310
0.676:279
0.695:243
0.695:217
0.695:212
0.695:212
0.696:225
0.696:257
0.696:289
0.696:306
0.699:318
0.699:348
0.699:391
0.700:398
0.700:394
0.700:381
0.700:358
0.700:333
0.701:304
0.703:274
0.703:261
0.703:225
0.704:186
0.704:171
0.704:165
0.705:181
0.705:203
0.705:234
0.705:252
0.707:269
0.707:301
0.707:344
0.723:344
0.723:391
0.724:406
0.724:403
0.724:394
0.724:372
0.724:349
0.727:321
0.728:297
0.728:283
0.728:254
0.729:216
0.729:209
0.729:208
0.730:218
0.730:240
0.731:269
0.731:301
0.732:320
0.732:338
0.732:375
0.732:417
0.733:439
0.733:441
0.733:421
0.734:405
0.735:376
0.735:346
0.735:332
0.737:317
0.752:284
0.752:255
0.752:245
0.753:249
0.756:268
0.756:290
0.757:312
0.757:355
0.757:380
0.757:396
0.757:429
0.757:459
0.757:464
0.759:476
0.761:468
0.761:443
0.761:411
0.761:391
0.761:368
0.762:360
0.762:332
0.762:295
0.762:279
0.764:282
0.764:294
0.765:330
0.765:357
0.765:383
0.765:397
0.765:415
0.780:415
0.780:450
0.780:480
0.785:502
0.785:509
0.785:488
0.786:468
0.786:446
0.786:417
0.786:396
0.786:375
0.786:343
0.788:312
0.789:304
0.789:310
0.789:323
0.789:347
0.789:368
0.789:398
0.789:423
0.789:432
0.790:479
0.792:515
0.792:539
0.792:532
0.793:502
0.793:480
0.793:456
0.793:434
0.793:401
0.814:392
0.814:357
0.814:321
0.814:313
0.814:321
0.815:343
0.815:366
0.815:397
0.815:419
0.817:435
0.817:464
0.818:508
0.818:538
0.818:539
0.818:537
0.819:528
0.819:498
0.819:461
0.819:432
0.821:420
0.822:399
0.822:364
0.822:335
0.823:334
0.823:341
0.823:364
0.824:393
0.824:415
0.825:426
0.825:446
0.842:446
0.842:471
0.842:512
0.842:543
0.842:553
0.842:546
0.843:527
0.843:495
0.846:474
0.846:453
0.846:437
0.846:419
0.846:371
0.847:344
0.847:327
0.847:331
0.847:352
0.847:378
0.850:401
0.850:427
0.850:454
0.851:481
0.851:522
0.851:550
0.851:561
0.851:554
0.851:534
0.854:511
0.854:491
0.854:464
0.871:436
0.871:405
0.871:367
0.871:342
0.872:336
0.875:350
0.875:359
0.875:386
0.876:416
0.876:441
0.876:458
0.877:483
0.877:525
0.877:549
0.878:553
0.879:545
0.879:527
0.880:506
0.880:481
0.880:452
0.880:432
0.880:409
0.880:360
0.881:332
0.883:332
0.883:342
0.884:366
0.884:394
0.884:419
0.884:447
0.899:447
0.900:468
0.900:490
0.900:533
0.903:567
0.904:575
0.904:550
0.904:528
0.904:506
0.904:470
0.905:446
0.905:419
0.905:398
0.905:360
0.908:336
0.909:330
0.909:340
0.909:362
0.910:384
0.910:412
0.910:440
0.910:459
0.910:487
0.912:520
0.912:554
0.912:560
0.912:548
0.913:530
0.913:501
0.913:479
0.927:454
0.932:427
0.933:408
0.933:368
0.933:341
0.933:341
0.933:346
0.934:364
0.934:387
0.934:409
0.936:433
0.937:448
0.937:473
0.937:521
0.937:550
0.937:548
0.937:536
0.938:521
0.938:490
0.938:462
0.940:437
0.940:412
0.940:382
0.941:355
0.942:337
0.942:330
0.942:346
0.942:362
0.942:390
0.943:417
0.961:417
0.961:442
0.961:464
0.962:496
0.962:535
0.962:547
0.962:553
0.963:533
0.963:520
0.963:495
0.965:464
0.965:436
0.965:419
0.966:395
0.966:359
0.966:337
0.966:333
0.966:343
0.966:365
0.969:395
0.969:420
0.969:443
0.969:459
0.969:495
0.970:536
0.970:551
0.970:547
0.970:527
0.970:516
0.972:496
0.989:467
0.989:444
0.989:423
0.989:404
0.991:370
0.991:357
0.993:345
0.994:357
0.994:385
0.994:415
0.995:446
0.995:475
0.995:491
0.995:521
0.995:563
0.996:576
0.998:576
0.998:558
0.998:535
0.999:498
0.999:464
0.999:444
0.999:436
0.999:410
1.000:369
1.002:350
1.002:353
1.002:379
1.002:412
1.003:445
1.018:445
1.019:463
1.019:476
1.020:501
1.020:532
1.020:576
1.022:587
1.023:582
1.023:568
1.023:545
1.024:519
1.024:493
1.025:470
1.025:453
1.025:423
1.026:381
1.027:369
1.027:370
1.027:377
1.027:402
1.027:427
1.027:444
1.027:454
1.028:471
1.028:505
1.030:549
1.030:570
1.030:565
1.030:549
1.030:519
1.047:501
1.047:464
1.051:449
1.051:425
1.051:395
1.052:358
1.052:345
1.052:346
1.053:360
1.053:380
1.053:401
1.053:423
1.055:444
1.055:468
1.056:507
1.056:538
1.056:548
1.056:545
1.057:530
1.057:513
1.057:486
1.058:460
1.058:433
1.058:424
1.058:396
1.060:365
1.060:352
1.060:356
1.060:371
1.060:388
1.075:388
1.079:409
1.079:436
1.079:452
1.079:468
1.080:514
1.080:559
1.080:568
1.080:558
1.080:540
1.080:517
1.083:488
1.083:460
1.084:445
1.084:427
1.084:398
1.085:362
1.085:348
1.085:352
1.085:377
1.086:403
1.087:430
1.088:460
1.088:473
1.089:494
1.089:533
1.089:568
1.090:580
1.090:572
1.090:556
1.108:533
1.108:502
1.108:473
1.108:457
1.108:437
1.109:405
1.109:377
1.109:368
1.113:376
1.113:394
1.113:421
1.114:450
1.114:482
1.114:512
1.114:544
1.114:590
1.114:626
1.117:639
1.117:636
1.117:617
1.117:590
1.117:565
1.118:546
1.118:539
1.118:533
1.119:505
1.119:480
1.119:473
1.121:482
1.121:509
1.137:509
1.137:543
1.137:569
1.137:582
1.137:597
1.137:630
1.137:681
1.141:728
1.142:746
1.142:734
1.142:711
1.142:681
1.143:646
1.143:617
1.143:601
1.143:590
1.145:563
1.145:555
1.145:559
1.146:585
1.146:614
1.146:643
1.146:658
1.146:661
1.146:658
1.147:657
1.148:665
1.148:671
1.148:649
1.148:610
1.165:557
1.165:489
1.166:425
1.166:359
1.169:307
1.170:265
1.170:213
1.170:190
1.171:203
1.171:227
1.171:259
1.171:292
1.172:320
1.173:361
1.174:390
1.174:404
1.174:443
1.174:473
1.175:481
1.175:471
1.175:454
1.175:435
1.175:423
1.177:416
1.178:412
1.178:401
1.179:384
1.179:380
1.179:388
1.179:405
1.194:405
1.194:430
1.194:456
1.198:473
1.198:491
1.199:506
1.199:524
1.199:555
1.199:569
1.199:567
1.199:551
1.199:530
1.202:500
1.202:483
1.202:463
1.202:452
1.202:433
1.203:401
1.203:390
1.203:395
1.203:412
1.203:433
1.206:458
1.206:481
1.206:499
1.207:509
1.207:529
1.207:568
1.208:585
1.208:580
1.226:563
1.226:544
1.226:513
1.227:488
1.227:467
1.228:449
1.228:423
1.229:375
1.229:332
1.231:320
1.231:325
1.231:351
1.232:399
1.232:445
1.232:479
1.232:512
1.232:559
1.232:633
1.233:670
1.235:684
1.235:669
1.236:640
1.236:593
1.236:546
1.237:503
1.237:477
1.237:428
1.237:358
1.239:321
1.239:313
1.256:313
1.256:332
1.256:364
1.257:408
1.257:452
1.257:491
1.257:525
1.257:580
1.259:653
1.259:692
1.260:705
1.260:684
1.260:649
1.260:603
1.261:559
1.261:520
1.261:483
1.261:436
1.264:366
1.264:329
1.264:320
1.264:339
1.265:369
1.265:418
1.265:465
1.265:504
1.265:542
1.268:600
1.268:668
1.268:706
1.284:719
1.284:697
1.285:662
1.285:616
1.285:571
1.289:528
1.289:496
1.289:451
1.289:390
1.290:357
1.290:351
1.290:371
1.290:409
1.290:454
1.291:498
1.293:541
1.293:580
1.293:635
1.293:704
1.294:740
1.294:745
1.294:724
1.294:687
1.295:639
1.297:592
1.297:550
1.297:520
1.297:471
1.297:406
1.297:382
1.312:382
1.313:379
1.313:409
1.313:452
1.317:489
1.317:535
1.318:574
1.318:608
1.318:667
1.318:745
1.318:776
1.318:785
1.319:761
1.319:720
1.321:674
1.322:629
1.322:585
1.322:551
1.322:501
1.322:433
1.322:403
1.323:408
1.323:437
1.325:475
1.325:527
1.325:571
1.325:606
1.326:644
1.326:708
1.326:780
1.340:815
1.346:816
1.346:786
1.346:744
1.346:696
1.346:654
1.347:613
1.347:576
1.347:517
1.347:460
1.349:439
1.349:444
1.349:474
1.351:522
1.351:571
1.351:615
1.351:654
1.351:691
1.351:762
1.352:830
1.354:858
1.354:859
1.354:828
1.354:785
1.355:734
1.355:690
1.355:656
1.355:624
1.355:561
1.355:497
1.374:497
1.376:478
1.376:482
1.376:511
1.376:549
1.376:593
1.377:640
1.377:676
1.377:711
1.377:778
1.378:844
1.378:874
1.379:867
1.379:841
1.379:803
1.379:751
1.380:702
1.380:660
1.380:628
1.383:560
1.383:498
1.383:476
1.383:480
1.384:504
1.384:546
1.384:592
1.384:632
1.384:658
1.385:697
1.386:763
1.403:823
1.403:840
1.403:839
1.403:814
1.403:767
1.404:712
1.408:657
1.408:612
1.408:571
1.408:504
1.409:437
1.409:404
1.409:401
1.409:421
1.409:463
1.410:503
1.411:536
1.411:560
1.411:588
1.412:649
1.412:705
1.412:722
1.412:704
1.412:663
1.412:610
1.415:558
1.415:500
1.415:447
1.415:406
1.416:334
1.432:334
1.432:270
1.432:248
1.432:247
1.432:263
1.436:304
1.436:343
1.436:379
1.436:413
1.437:436
1.437:493
1.437:540
1.437:550
1.437:535
1.438:502
1.440:452
1.440:394
1.441:344
1.441:300
1.441:255
1.441:184
1.442:116
1.442:98
1.442:108
1.442:135
1.444:176
1.444:223
1.444:263
1.445:290
1.445:325
1.460:396
1.460:448
1.465:461
1.465:445
1.465:417
1.465:372
1.466:322
1.466:276
1.466:238
1.466:197
1.466:129
1.466:77
1.469:63
1.469:79
1.469:114
1.469:151
1.469:192
1.470:239
1.470:275
1.470:316
1.470:390
1.470:442
1.473:453
1.473:439
1.473:412
1.473:372
1.474:325
1.474:281
1.474:247
1.474:212
1.488:212
1.492:142
1.493:92
1.493:80
1.493:99
1.494:132
1.494:173
1.494:218
1.494:260
1.494:295
1.494:338
1.494:413
1.497:461
1.497:483
1.497:468
1.497:433
1.497:390
1.498:343
1.498:304
1.498:273
1.499:229
1.502:161
1.502:119
1.502:112
1.502:135
1.502:167
1.503:213
1.503:258
1.503:302
1.503:336
1.521:383
1.521:462
1.522:507
1.522:520
1.522:506
1.522:477
1.522:434
1.523:393
1.525:348
1.525:315
1.525:275
1.526:210
1.526:171
1.526:156
1.526:181
1.526:220
1.526:259
1.530:303
1.530:345
1.530:384
1.530:436
1.530:510
1.531:555
1.531:571
1.531:548
1.531:514
1.531:475
1.534:427
1.534:388
1.534:356
1.550:356
1.550:309
1.550:240
1.550:196
1.550:193
1.552:218
1.552:255
1.555:299
1.555:347
1.555:388
1.555:425
1.556:479
1.556:554
1.556:595
1.556:598
1.556:580
1.558:545
1.558:497
1.558:453
1.560:419
1.560:386
1.560:337
1.560:267
1.560:236
1.560:233
1.561:256
1.563:293
1.563:338
1.563:384
1.563:421
1.579:453
1.579:515
1.580:594
1.580:632
1.583:638
1.584:617
1.584:585
1.584:534
1.584:485
1.584:439
1.585:405
1.585:358
1.585:292
1.588:261
1.588:259
1.588:279
1.588:317
1.588:370
1.589:413
1.589:447
1.589:488
1.589:549
1.589:623
1.591:651
1.591:649
1.591:624
1.592:584
1.592:539
1.592:495
1.592:458
1.608:458
1.608:426
1.609:375
1.612:310
1.612:279
1.612:279
1.613:304
1.613:341
1.613:390
1.613:434
1.613:470
1.614:502
1.616:556
1.616:624
1.616:661
1.617:665
1.617:641
1.617:605
1.617:558
1.617:507
1.617:469
1.617:434
1.619:375
1.619:313
1.620:289
1.620:290
1.620:313
1.620:354
1.620:401
1.621:443
1.641:480
1.641:517
1.641:577
1.641:639
1.642:669
1.642:670
1.642:641
1.643:604
1.643:555
1.645:510
1.645:474
1.645:440
1.646:382
1.646:317
1.646:296
1.646:295
1.647:320
1.647:355
1.647:400
1.648:443
1.649:480
1.649:514
1.649:578
1.649:640
1.650:664
1.650:661
1.651:637
1.651:601
1.652:553
1.653:509
1.669:509
1.669:467
1.670:422
1.670:364
1.670:304
1.670:281
1.670:286
1.670:316
1.674:357
1.675:401
1.675:439
1.675:477
1.675:515
1.675:579
1.675:640
1.675:664
1.675:660
1.675:628
1.677:583
1.677:541
1.677:497
1.677:457
1.678:425
1.678:361
1.678:300
1.678:279
1.679:290
1.682:318
1.682:359
1.682:396
1.697:442
1.698:482
1.698:518
1.699:583
1.699:636
1.702:656
1.702:654
1.702:624
1.702:579
1.703:533
1.703:488
1.703:449
1.703:413
1.703:341
1.704:299
1.706:295
1.706:322
1.706:357
1.706:392
1.706:424
1.706:455
1.707:479
1.707:502
1.707:543
1.710:572
1.710:579
1.710:568
1.710:550
1.710:520
1.711:490
1.726:490
1.726:464
1.726:445
1.727:420
1.731:382
1.731:350
1.731:343
1.731:345
1.732:358
1.732:382
1.732:408
1.732:428
1.732:450
1.733:475
1.735:519
1.735:549
1.735:553
1.735:542
1.735:516
1.735:485
1.736:460
1.736:437
1.736:419
1.739:396
1.739:360
1.739:341
1.740:340
1.740:359
1.740:381
1.740:404
1.755:432
1.759:459
1.759:481
1.759:507
1.759:545
1.761:573
1.761:581
1.761:569
1.762:540
1.762:510
1.763:485
1.764:465
1.764:446
1.764:428
1.764:399
1.764:374
1.765:374
1.765:389
1.765:405
1.766:436
1.767:462
1.767:480
1.767:498
1.768:524
1.768:566
1.768:593
1.768:597
1.768:587
1.769:567
1.772:535
1.788:535
1.788:503
1.788:472
1.788:448
1.788:422
1.789:382
1.789:351
1.789:343
1.789:350
1.792:367
1.792:394
1.792:419
1.793:442
1.793:459
1.794:486
1.794:528
1.794:557
1.794:562
1.794:542
1.796:525
1.796:499
1.796:465
1.796:436
1.797:414
1.797:383
1.797:345
1.797:326
1.797:321
1.798:335
1.800:357
1.816:385
1.816:416
1.816:441
1.817:462
1.817:495
1.817:536
1.821:566
1.821:574
1.821:556
1.821:531
1.821:505
1.821:478
1.822:454
1.822:432
1.822:405
1.822:369
1.824:348
1.825:348
1.825:367
1.825:388
1.825:416
1.825:442
1.826:464
1.826:483
1.826:513
1.829:553
1.829:576
1.829:576
1.830:561
1.830:541
1.845:541
1.846:514
1.846:488
1.846:463
1.846:441
1.849:415
1.849:375
1.850:361
1.850:365
1.850:383
1.850:406
1.850:434
1.850:459
1.851:482
1.851:504
1.854:541
1.854:583
1.854:603
1.854:603
1.854:586
1.855:566
1.855:533
1.855:505
1.855:480
1.857:463
1.859:431
1.859:398
1.859:384
1.859:382
1.860:405
1.874:439
1.875:476
1.878:502
1.878:531
1.878:558
1.878:596
1.879:641
1.879:656
1.879:656
1.879:644
1.879:635
1.879:620
1.882:603
1.882:580
1.883:563
1.883:530
1.883:492
1.883:484
1.883:486
1.884:496
1.884:515
1.886:546
1.886:588
1.886:625
1.886:651
1.887:693
1.887:729
1.887:732
1.887:726
1.887:704
1.903:704
1.907:691
1.908:675
1.908:659
1.908:656
1.908:664
1.909:662
1.909:653
1.909:657
1.909:668
1.909:695
1.911:711
1.911:717
1.911:709
1.911:688
1.911:662
1.912:660
1.912:656
1.912:620
1.912:559
1.915:487
1.915:412
1.915:352
1.915:305
1.915:275
1.916:253
1.916:225
1.916:198
1.916:194
1.916:203
1.936:229
1.936:262
1.936:297
1.936:328
1.936:356
1.936:379
1.936:427
1.936:476
1.939:498
1.939:508
1.940:503
1.940:489
1.940:472
1.941:454
1.941:437
1.941:423
1.942:393
1.944:357
1.944:347
1.944:349
1.944:373
1.945:398
1.945:421
1.945:449
1.945:470
1.945:487
1.946:526
1.948:562
1.948:573
1.948:567
1.964:567
1.964:552
1.964:525
1.964:495
1.964:467
1.964:443
1.965:421
1.969:383
1.969:351
1.969:343
1.970:348
1.970:367
1.970:396
1.970:421
1.970:441
1.971:459
1.972:489
1.972:532
1.972:565
1.972:571
1.973:565
1.973:546
1.975:517
1.975:491
1.976:469
1.976:452
1.976:432
1.977:393
1.977:357
1.977:350
1.992:357
1.993:376
1.993:405
1.993:432
1.997:454
1.997:472
1.997:492
1.997:533
1.997:564
1.997:571
1.997:563
1.997:545
1.998:521
2.001:495
2.001:462
2.001:440
2.001:420
2.002:378
2.002:355
2.002:348
2.002:357
2.002:379
2.003:407
2.004:437
2.005:466
2.005:487
2.005:507
2.005:550
2.005:582
2.006:589
2.021:589
2.021:581
2.021:568
2.025:538
2.025:512
2.025:492
2.026:470
2.026:447
2.026:409
2.026:382
2.026:374
2.027:384
2.029:409
2.029:439
2.030:470
2.030:498
2.030:520
2.030:548
2.030:591
2.031:619
2.031:624
2.031:614
2.033:595
2.033:567
2.033:540
2.034:519
2.034:498
2.034:474
2.034:439
2.034:417
2.054:413
2.054:426
2.054:448
2.054:481
2.054:512
2.055:537
2.055:554
2.055:583
2.055:625
2.059:653
2.059:666
2.059:656
2.059:639
2.060:609
2.060:583
2.061:559
2.061:542
2.061:520
2.061:480
2.062:455
2.062:456
2.063:469
2.063:489
2.063:516
2.063:546
2.063:575
2.064:601
2.064:624
2.066:665
2.066:693
2.083:693
2.083:700
2.083:689
2.084:672
2.084:644
2.084:619
2.084:592
2.084:575
2.087:552
2.087:514
2.087:492
2.087:492
2.088:507
2.088:530
2.088:561
2.088:588
2.088:614
2.089:636
2.090:668
2.091:714
2.091:740
2.091:745
2.091:731
2.091:713
2.091:687
2.091:664
2.091:639
2.095:620
2.095:597
2.095:559
2.111:541
2.111:538
2.111:553
2.111:575
2.112:606
2.116:628
2.116:658
2.116:677
2.116:707
2.117:752
2.117:774
2.117:777
2.117:765
2.117:742
2.119:713
2.119:683
2.120:660
2.120:642
2.120:612
2.120:576
2.120:559
2.120:553
2.121:570
2.121:590
2.124:616
2.125:649
2.125:675
2.125:695
2.125:724
2.125:764
2.139:764
2.139:787
2.140:790
2.140:777
2.145:758
2.145:727
2.145:697
2.145:671
2.146:650
2.146:622
2.146:582
2.146:565
2.146:565
2.147:578
2.148:600
2.148:623
2.148:642
2.149:658
2.149:677
2.149:707
2.149:747
2.149:758
2.149:751
2.153:729
2.153:702
2.153:668
2.153:632
2.154:609
2.154:580
2.154:546
2.169:504
2.173:478
2.174:470
2.174:481
2.174:498
2.174:517
2.174:534
2.175:546
2.175:557
2.175:586
2.177:617
2.177:625
2.177:621
2.178:594
2.178:564
2.178:527
2.178:485
2.178:452
2.178:427
2.179:384
2.182:336
2.182:318
2.182:313
2.182:323
2.183:334
2.183:352
2.183:378
2.183:397
2.183:408
2.185:435
2.202:435
2.202:463
2.202:470
2.202:460
2.202:435
2.203:405
2.203:371
2.203:337
2.203:309
2.206:288
2.206:250
2.206:211
2.207:197
2.207:195
2.207:202
2.208:225
2.208:248
2.208:273
2.208:294
2.209:307
2.209:340
2.209:377
2.210:387
2.210:382
2.210:365
2.210:340
2.210:313
2.211:285
2.211:263
2.213:241
2.230:209
2.230:174
2.230:163
2.230:167
2.230:188
2.231:214
2.235:240
2.235:262
2.235:285
2.235:311
2.236:349
2.236:387
2.236:396
2.236:393
2.236:379
2.237:355
2.238:328
2.239:306
2.239:287
2.239:267
2.239:234
2.239:205
2.241:189
2.241:193
2.241:214
2.243:243
2.243:272
2.243:298
2.243:319
2.244:342
2.258:342
2.259:382
2.259:420
2.259:432
2.259:428
2.263:414
2.263:392
2.263:364
2.263:340
2.264:322
2.264:302
2.264:270
2.264:243
2.264:231
2.265:236
2.267:259
2.267:285
2.268:307
2.268:330
2.268:357
2.268:380
2.268:424
2.268:461
2.269:469
2.271:465
2.271:449
2.271:425
2.271:397
2.272:372
2.272:349
2.287:336
2.287:303
2.292:273
2.292:266
2.292:272
2.292:291
2.293:318
2.293:350
2.293:375
2.293:396
2.293:415
2.294:457
2.296:491
2.296:502
2.296:497
2.296:478
2.297:451
2.297:424
2.297:402
2.297:382
2.297:361
2.299:323
2.299:297
2.299:289
2.299:300
2.300:320
2.300:351
2.300:379
2.300:404
2.300:424
2.316:424
2.320:446
2.320:485
2.320:517
2.320:527
2.321:516
2.321:501
2.321:475
2.321:449
2.321:425
2.322:405
2.324:384
2.324:344
2.324:323
2.324:315
2.324:325
2.324:346
2.324:371
2.325:395
2.325:420
2.328:444
2.328:472
2.328:518
2.328:547
2.328:551
2.328:538
2.330:518
2.330:493
2.330:464
2.330:440
2.348:420
2.348:400
2.348:366
2.348:339
2.348:334
2.348:348
2.348:370
2.350:395
2.352:422
2.353:445
2.353:464
2.353:492
2.353:529
2.353:552
2.353:561
2.354:549
2.354:531
2.357:505
2.357:475
2.358:447
2.358:427
2.358:407
2.358:366
2.358:343
2.359:340
2.359:352
2.359:373
2.361:401
2.361:427
2.361:454
2.377:454
2.377:476
2.377:504
2.378:548
2.378:570
2.378:575
2.378:560
2.382:539
2.382:511
2.382:485
2.382:459
2.383:437
2.383:410
2.383:375
2.383:354
2.383:346
2.386:359
2.386:380
2.386:409
2.386:437
2.387:463
2.387:482
2.387:512
2.387:554
2.387:574
2.388:580
2.390:564
2.390:542
2.391:510
2.391:484
2.406:461
2.406:437
2.408:405
2.410:369
2.410:354
2.410:352
2.411:364
2.411:390
2.411:420
2.411:447
2.411:468
2.412:484
2.412:513
2.414:560
2.414:580
2.414:580
2.414:562
2.414:538
2.415:509
2.415:483
2.415:456
2.415:437
2.416:406
2.418:370
2.418:352
2.418:352
2.418:368
2.418:390
2.419:419
2.419:445
2.434:445
2.435:468
2.435:483
2.439:515
2.439:555
2.439:573
2.439:575
2.440:560
2.440:533
2.440:504
2.441:478
2.441:454
2.443:433
2.443:399
2.443:359
2.443:345
2.444:345
2.444:362
2.444:385
2.444:413
2.444:435
2.444:457
2.447:474
2.447:511
2.447:547
2.447:559
2.448:562
2.448:548
2.449:521
2.449:491
2.467:468
2.467:443
2.468:423
2.468:392
2.468:357
2.468:344
2.468:346
2.468:364
2.468:389
2.472:416
2.472:440
2.472:457
2.472:474
2.473:507
2.473:547
2.473:562
2.473:555
2.474:540
2.475:519
2.476:487
2.476:457
2.476:432
2.476:413
2.477:383
2.477:346
2.478:334
2.479:336
2.479:353
2.479:376
2.479:402
2.496:402
2.497:427
2.497:446
2.497:467
2.497:504
2.497:540
2.497:551
2.497:548
2.501:531
2.501:508
2.501:478
2.501:450
2.502:426
2.502:406
2.502:374
2.502:338
2.502:327
2.503:332
2.505:351
2.505:372
2.505:398
2.505:424
2.505:443
2.506:465
2.506:502
2.506:537
2.506:551
2.508:545
2.508:526
2.509:500
2.525:473
2.525:446
2.526:425
2.526:407
2.526:370
2.529:335
2.529:331
2.529:335
2.529:351
2.529:374
2.530:403
2.530:429
2.530:444
2.530:463
2.534:502
2.534:539
2.534:547
2.534:538
2.535:519
2.535:494
2.535:469
2.535:442
2.535:421
2.535:402
2.537:367
2.537:337
2.538:329
2.538:342
2.538:359
2.538:385
2.553:385
2.553:412
2.553:441
2.554:464
2.557:485
2.557:528
2.557:563
2.557:571
2.557:564
2.557:552
2.558:531
2.558:501
2.558:470
2.562:449
2.562:432
2.562:394
2.562:365
2.562:360
2.563:364
2.563:384
2.563:407
2.563:436
2.563:465
2.566:487
2.566:508
2.566:551
2.566:587
2.567:599
2.567:587
2.567:566
2.582:539
2.587:511
2.587:485
2.587:463
2.587:444
2.587:405
2.588:376
2.588:369
2.588:381
2.588:400
2.590:429
2.590:462
2.590:488
2.590:507
2.590:533
2.590:574
2.591:604
2.591:613
2.591:600
2.591:580
2.595:552
2.595:525
2.595:498
2.595:474
2.596:452
2.596:414
2.596:390
2.596:386
2.596:396
2.598:413
2.615:413
2.615:439
2.615:467
2.615:489
2.615:508
2.616:529
2.616:570
2.616:598
2.616:603
2.619:593
2.619:576
2.619:549
2.619:520
2.619:493
2.619:473
2.619:456
2.619:424
2.619:402
2.619:399
2.624:410
2.624:431
2.625:462
2.625:494
2.625:518
2.625:539
2.625:565
2.625:605
2.625:631
2.626:640
2.627:629
2.644:606
2.644:571
2.644:538
2.645:510
2.645:488
2.645:468
2.648:426
2.648:404
2.648:406
2.648:423
2.648:443
2.649:471
2.649:498
2.649:521
2.649:542
2.649:569
2.652:611
2.652:635
2.653:640
2.653:625
2.653:601
2.653:571
2.653:541
2.653:513
2.654:489
2.656:460
2.657:420
2.657:396
2.657:391
2.657:404
2.672:404
2.672:422
2.673:448
2.673:476
2.673:499
2.676:515
2.676:540
2.677:578
2.677:599
2.677:596
2.677:573
2.678:548
2.678:518
2.678:488
2.679:458
2.681:435
2.681:406
2.681:366
2.681:346
2.682:346
2.682:358
2.682:375
2.682:401
2.682:428
2.685:452
2.685:473
2.685:505
2.685:544
2.686:563
2.686:567
2.701:551
2.701:527
2.705:497
2.705:468
2.705:445
2.706:426
2.706:398
2.706:362
2.707:344
2.707:343
2.707:354
2.707:377
2.709:405
2.709:426
2.709:447
2.710:468
2.710:499
2.710:534
2.711:545
2.711:538
2.711:519
2.713:497
2.714:471
2.714:450
2.714:431
2.714:414
2.714:391
2.714:364
2.715:354
2.715:357
2.729:357
2.734:379
2.734:403
2.734:428
2.734:447
2.735:463
2.735:479
2.735:510
2.735:548
2.735:562
2.735:566
2.738:551
2.738:531
2.738:503
2.739:478
2.739:457
2.739:436
2.740:405
2.740:368
2.740:350
2.742:350
2.742:364
2.742:388
2.743:421
2.743:452
2.744:483
2.744:512
2.744:554
2.745:600
2.745:619
2.763:618
2.763:603
2.763:592
2.763:579
2.764:569
2.764:557
2.764:543
2.764:508
2.767:467
2.767:448
2.767:445
2.767:461
2.767:490
2.767:521
2.767:548
2.768:582
2.768:616
2.770:662
2.771:704
2.771:710
2.771:701
2.771:672
2.771:636
2.771:608
2.772:595
2.772:593
2.772:606
2.774:609
2.774:618
2.775:655
2.791:655
2.791:709
2.791:754
2.791:803
2.792:844
2.792:876
2.792:901
2.795:901
2.795:888
2.796:874
2.796:834
2.796:769
2.796:685
2.796:591
2.797:491
2.797:398
2.799:322
2.799:268
2.799:214
2.799:161
2.800:144
2.800:150
2.800:179
2.800:218
2.800:251
2.801:286
2.804:321
2.804:354
2.804:402
2.804:449
2.820:478
2.820:488
2.820:488
2.823:477
2.824:462
2.824:449
2.824:438
2.824:431
2.824:405
2.824:375
2.824:363
2.824:374
2.824:392
2.828:415
2.829:444
2.829:468
2.829:487
2.829:510
2.830:550
2.830:585
2.830:592
2.830:588
2.830:571
2.832:546
2.832:517
2.832:490
2.833:468
2.833:449
2.833:414
2.833:384
2.848:384
2.848:374
2.849:381
2.852:398
2.852:427
2.852:457
2.853:483
2.853:503
2.853:528
2.853:572
2.853:605
2.853:613
2.856:603
2.857:586
2.857:559
2.857:534
2.857:506
2.858:484
2.858:465
2.858:424
2.858:398
2.858:396
2.861:406
2.861:420
2.861:445
2.862:470
2.862:495
2.862:518
2.862:544
2.862:586
2.881:618
2.881:627
2.881:619
2.881:603
2.882:576
2.882:548
2.882:523
2.882:500
2.882:476
2.886:440
2.886:412
2.886:405
2.886:415
2.887:436
2.887:464
2.887:492
2.887:514
2.887:533
2.889:556
2.889:597
2.890:625
2.890:633
2.890:626
2.890:607
2.890:577
2.890:546
2.891:520
2.891:497
2.893:475
2.893:438
2.910:438
2.910:415
2.910:414
2.911:423
2.911:446
2.911:475
2.911:504
2.912:528
2.914:547
2.914:572
2.914:614
2.914:639
2.914:641
2.915:628
2.915:607
2.915:580
2.915:552
2.916:528
2.917:508
2.918:486
2.918:445
2.918:418
2.919:416
2.919:429
2.919:450
2.919:480
2.920:510
2.922:536
2.922:557
2.923:586
2.938:628
2.938:654
2.938:659
2.938:643
2.940:623
2.943:597
2.944:570
2.944:544
2.944:525
2.944:499
2.945:464
2.945:439
2.945:436
2.946:445
2.947:462
2.947:489
2.947:515
2.948:543
2.948:567
2.948:595
2.948:639
2.948:663
2.948:670
2.948:655
2.951:633
2.951:606
2.951:578
2.951:554
2.951:536
2.952:512
2.967:512
2.967:475
2.967:455
2.967:454
2.971:469
2.971:492
2.971:524
2.971:554
2.972:578
2.972:599
2.973:631
2.973:680
2.973:700
2.975:696
2.975:677
2.975:657
2.976:629
2.976:603
2.976:580
2.976:561
2.977:535
2.977:501
2.977:484
2.979:486
2.979:504
2.979:526
2.980:555
2.980:582
2.980:607
2.980:629
2.995:665
3.000:707
3.000:725
3.000:729
3.000:717
3.000:692
3.000:668
3.001:645
3.001:620
3.001:601
3.004:574
3.004:541
3.004:527
3.004:526
3.004:543
3.005:566
3.005:595
3.005:620
3.006:644
3.006:664
3.007:697
3.008:739
3.009:756
3.009:757
3.009:738
3.009:714
3.010:683
3.010:655
3.010:631
3.012:613
3.029:613
3.029:586
3.029:548
3.029:533
3.030:533
3.030:547
3.030:567
3.030:594
3.030:618
3.033:637
3.033:654
3.033:685
3.033:725
3.033:738
3.034:733
3.034:713
3.034:681
3.034:647
3.034:613
3.037:584
3.037:566
3.037:533
3.038:490
3.038:468
3.038:466
3.038:480
3.038:497
3.038:520
3.040:541
3.040:556
3.057:569
3.057:601
3.057:634
3.057:646
3.057:636
3.057:613
3.062:582
3.062:545
3.062:509
3.062:482
3.062:455
3.063:416
3.063:372
3.063:349
3.063:344
3.063:355
3.066:374
3.066:392
3.066:411
3.066:425
3.066:438
3.067:471
3.067:501
3.067:508
3.067:497
3.069:474
3.069:442
3.069:408
3.069:376
3.070:350
3.086:350
3.086:327
3.086:286
3.087:246
3.087:232
3.089:235
3.090:247
3.090:268
3.090:289
3.090:313
3.090:333
3.090:352
3.091:387
3.091:421
3.091:430
3.094:423
3.094:403
3.094:375
3.094:345
3.095:318
3.095:291
3.095:274
3.095:239
3.095:205
3.098:197
3.098:202
3.098:221
3.098:246
3.098:276
3.099:300
3.114:320
3.114:336
3.119:375
3.119:414
3.119:424
3.119:419
3.120:402
3.120:376
3.120:352
3.120:325
3.120:307
3.120:288
3.123:251
3.123:218
3.124:213
3.124:224
3.124:243
3.124:269
3.125:298
3.125:326
3.125:351
3.127:377
3.128:420
3.128:456
3.128:466
3.128:461
3.128:443
3.128:414
3.129:385
3.129:357
3.143:357
3.147:336
3.147:319
3.147:284
3.147:256
3.148:249
3.148:258
3.148:279
3.148:305
3.148:331
3.148:355
3.151:377
3.151:402
3.151:444
3.151:475
3.153:484
3.153:476
3.153:457
3.153:430
3.153:402
3.156:377
3.156:357
3.157:336
3.157:301
3.157:276
3.157:271
3.158:283
3.158:303
3.158:330
3.158:356
3.176:383
3.176:409
3.176:432
3.176:475
3.176:505
3.177:513
3.177:502
3.180:481
3.180:454
3.180:429
3.180:402
3.180:383
3.181:361
3.181:317
3.181:288
3.181:285
3.181:302
3.184:322
3.185:348
3.185:376
3.185:399
3.185:418
3.186:445
3.186:491
3.186:518
3.186:524
3.186:516
3.187:497
3.188:467
3.188:441
3.204:441
3.205:414
3.205:393
3.205:374
3.205:333
3.206:310
3.206:303
3.209:317
3.209:338
3.209:366
3.210:394
3.210:419
3.210:438
3.210:462
3.211:505
3.211:533
3.213:539
3.213:527
3.213:508
3.213:479
3.214:453
3.214:428
3.214:404
3.214:382
3.214:341
3.215:321
3.216:317
3.217:329
3.217:349
3.217:379
3.233:406
3.234:431
3.234:449
3.238:478
3.238:520
3.238:545
3.238:549
3.238:532
3.238:511
3.239:482
3.240:451
3.240:425
3.240:405
3.241:382
3.242:343
3.242:323
3.242:323
3.242:339
3.243:360
3.243:389
3.243:415
3.243:438
3.245:459
3.245:486
3.246:531
3.246:553
3.246:557
3.246:543
3.246:525
3.247:496
3.261:496
3.262:466
3.266:439
3.266:422
3.266:398
3.267:356
3.267:336
3.267:333
3.267:345
3.267:366
3.268:395
3.268:423
3.270:451
3.271:472
3.271:501
3.271:545
3.271:568
3.272:572
3.272:552
3.273:529
3.273:500
3.273:469
3.275:444
3.275:427
3.275:400
3.275:362
3.276:345
3.276:345
3.276:360
3.277:382
3.295:408
3.295:432
3.295:459
3.295:478
3.296:513
3.296:551
3.296:567
3.296:566
3.297:549
3.298:528
3.298:501
3.298:472
3.299:446
3.299:426
3.299:396
3.299:358
3.299:344
3.299:346
3.302:366
3.302:387
3.303:416
3.303:443
3.303:467
3.303:485
3.303:521
3.304:563
3.304:579
3.304:577
3.306:561
3.306:536
3.323:536
3.323:506
3.323:479
3.324:454
3.324:432
3.324:401
3.325:366
3.325:351
3.327:353
3.328:370
3.328:396
3.328:422
3.329:446
3.329:466
3.329:486
3.329:526
3.330:569
3.331:580
3.331:579
3.331:559
3.332:536
3.332:509
3.332:484
3.332:462
3.332:446
3.333:410
3.333:376
3.335:362
3.335:366
3.336:384
3.352:406
3.352:432
3.352:457
3.352:476
3.352:498
3.355:534
3.355:571
3.355:587
3.355:586
3.355:570
3.357:544
3.357:512
3.357:487
3.357:465
3.359:444
3.359:413
3.361:378
3.361:366
3.361:368
3.361:386
3.361:408
3.362:437
3.362:461
3.362:483
3.364:503
3.364:539
3.365:576
3.365:588
3.365:583
3.365:563
3.380:563
3.380:540
3.380:509
3.381:480
3.384:458
3.385:437
3.385:402
3.385:369
3.386:361
3.386:365
3.386:385
3.387:408
3.387:437
3.388:462
3.388:484
3.390:503
3.390:541
3.390:578
3.390:586
3.390:575
3.390:554
3.391:529
3.391:502
3.393:477
3.394:457
3.394:439
3.394:402
3.395:369
3.395:360
3.395:369
3.411:392
3.414:416
3.414:439
3.414:464
3.414:486
3.415:507
3.415:548
3.415:580
3.415:586
3.415:578
3.417:558
3.418:527
3.418:502
3.418:477
3.419:454
3.419:437
3.419:398
3.419:366
3.420:360
3.420:368
3.421:387
3.422:411
3.422:438
3.422:463
3.423:483
3.423:504
3.423:544
3.423:576
3.424:583
3.425:577
3.442:577
3.442:558
3.442:531
3.442:500
3.442:473
3.443:451
3.443:431
3.443:393
3.443:365
3.446:356
3.446:363
3.446:381
3.446:410
3.446:435
3.448:460
3.448:481
3.448:502
3.448:544
3.448:575
3.450:582
3.450:571
3.450:553
3.450:528
3.450:499
3.452:472
3.452:449
3.452:431
3.452:393
3.454:366
3.454:359
3.471:367
3.471:385
3.471:414
3.471:442
3.471:469
3.472:487
3.475:509
3.475:550
3.476:578
3.476:586
3.476:574
3.476:555
3.477:528
3.477:497
3.477:467
3.477:447
3.478:426
3.478:391
3.478:363
3.478:356
3.480:370
3.480:392
3.480:420
3.480:445
3.481:466
3.483:484
3.483:509
3.484:551
3.484:576
3.484:579
3.499:579
3.499:566
3.499:544
3.499:517
3.501:490
3.504:463
3.504:444
3.504:420
3.504:381
3.505:360
3.505:356
3.506:370
3.506:393
3.506:417
3.506:442
3.507:467
3.508:485
3.508:509
3.508:550
3.509:576
3.509:580
3.509:568
3.509:546
3.510:517
3.511:494
3.511:468
3.511:448
3.512:426
3.512:390
3.512:372
3.528:369
3.528:382
3.532:402
3.532:430
3.532:452
3.533:473
3.533:493
3.533:526
3.533:567
3.533:591
3.533:596
3.534:579
3.536:557
3.536:529
3.536:501
3.536:475
3.537:454
3.537:428
3.537:388
3.537:369
3.537:365
3.541:379
3.541:402
3.542:426
3.542:452
3.542:473
3.542:495
3.543:526
3.543:567
3.543:586
3.557:586
3.561:586
3.561:569
3.561:548
3.561:521
3.562:492
3.562:466
3.562:447
3.562:421
3.562:383
3.562:365
3.565:365
3.565:384
3.565:404
3.565:433
3.565:458
3.566:483
3.566:499
3.566:529
3.566:569
3.569:587
3.569:584
3.570:568
3.570:546
3.570:519
3.570:494
3.571:468
3.571:447
3.571:420
3.571:382
3.588:368
3.590:370
3.590:387
3.590:408
3.590:436
3.590:462
3.591:484
3.594:503
3.594:534
3.594:575
3.594:593
3.594:592
3.595:574
3.595:546
3.595:519
3.595:495
3.595:472
3.597:455
3.597:422
3.598:384
3.598:372
3.598:375
3.598:388
3.598:412
3.598:439
3.599:464
3.599:485
3.601:507
3.601:543
3.601:580
3.618:580
3.619:592
3.619:592
3.619:575
3.619:549
3.619:517
3.620:490
3.622:467
3.623:448
3.623:414
3.623:379
3.623:367
3.623:370
3.623:388
3.623:410
3.624:438
3.627:466
3.627:489
3.627:506
3.627:544
3.627:584
3.627:598
3.627:594
3.627:576
3.627:549
3.628:520
3.630:490
3.630:468
3.630:450
3.630:415
3.647:378
3.647:368
3.647:372
3.650:390
3.650:412
3.650:439
3.652:466
3.652:487
3.652:509
3.652:549
3.652:583
3.652:595
3.653:589
3.655:569
3.655:543
3.655:514
3.656:487
3.656:464
3.656:443
3.656:410
3.656:375
3.656:365
3.659:369
3.659:389
3.659:414
3.659:442
3.659:467
3.660:486
3.660:509
3.660:550
3.676:550
3.676:586
3.679:597
3.679:591
3.679:573
3.679:548
3.679:518
3.681:490
3.681:467
3.681:445
3.681:409
3.681:375
3.684:366
3.684:372
3.684:388
3.684:413
3.685:438
3.685:464
3.685:484
3.685:507
3.685:545
3.685:582
3.687:592
3.687:586
3.688:569
3.688:542
3.689:513
3.689:487
3.689:465
3.689:443
3.708:404
3.708:372
3.709:362
3.709:371
3.709:393
3.710:415
3.710:439
3.710:462
3.711:483
3.712:505
3.712:549
3.712:582
3.712:589
3.713:581
3.713:562
3.713:536
3.713:509
3.713:482
3.716:461
3.716:446
3.716:414
3.716:385
3.717:375
3.717:383
3.717:401
3.717:426
3.717:450
3.718:476
3.720:495
3.720:519
3.737:519
3.737:561
3.737:592
3.737:600
3.737:589
3.737:567
3.738:538
3.738:509
3.741:479
3.741:457
3.741:434
3.741:397
3.742:366
3.742:355
3.742:363
3.743:383
3.743:410
3.744:435
3.745:457
3.745:476
3.745:499
3.746:539
3.746:569
3.746:579
3.747:570
3.747:551
3.747:522
3.749:494
3.749:469
3.750:452
3.766:433
3.766:395
3.766:369
3.766:365
3.766:377
3.769:394
3.769:420
3.769:447
3.771:472
3.771:489
3.771:513
3.771:557
3.771:587
3.771:592
3.773:578
3.773:557
3.774:527
3.774:502
3.774:477
3.774:454
3.774:430
3.775:393
3.775:368
3.775:362
3.777:372
3.777:392
3.778:415
3.778:438
3.779:462
3.779:483
3.794:483
3.794:510
3.794:554
3.794:580
3.798:585
3.798:574
3.798:561
3.799:535
3.799:512
3.799:489
3.799:471
3.799:450
3.799:414
3.803:396
3.803:395
3.803:409
3.803:429
3.803:453
3.803:479
3.803:502
3.805:521
3.805:550
3.805:590
3.806:609
3.806:611
3.806:601
3.806:581
3.806:551
3.806:523
3.807:496
3.823:475
3.827:452
3.827:412
3.827:390
3.827:387
3.827:402
3.827:425
3.828:453
3.828:479
3.828:505
3.831:525
3.832:554
3.832:598
3.832:620
3.832:626
3.832:615
3.833:591
3.833:562
3.833:536
3.833:512
3.835:492
3.836:465
3.836:425
3.836:404
3.836:400
3.836:413
3.837:431
3.837:453
3.837:475
3.838:492
3.855:492
3.855:506
3.856:533
3.856:568
3.856:589
3.856:592
3.857:573
3.857:548
3.857:517
3.860:488
3.860:462
3.860:442
3.860:414
3.860:373
3.860:353
3.861:351
3.861:367
3.861:389
3.861:418
3.864:446
3.864:470
3.864:489
3.864:523
3.865:565
3.865:584
3.865:584
3.865:568
3.865:547
3.867:518
3.868:488
3.884:463
3.884:440
3.884:411
3.884:372
3.885:355
3.885:355
3.888:372
3.889:397
3.889:425
3.889:453
3.889:475
3.889:492
3.891:525
3.891:566
3.891:584
3.891:583
3.893:571
3.893:547
3.893:516
3.893:484
3.893:459
3.894:441
3.894:411
3.894:375
3.894:362
3.897:365
3.897:381
3.897:403
3.897:430
3.897:459
3.913:459
3.913:482
3.913:501
3.913:537
3.914:577
3.917:595
3.917:595
3.918:577
3.918:552
3.918:520
3.918:492
3.918:466
3.919:447
3.919:416
3.919:380
3.921:371
3.921:378
3.922:399
3.922:426
3.922:461
3.922:496
3.922:528
3.922:555
3.923:599
3.925:648
3.925:674
3.926:686
3.926:682
3.926:663
3.927:630
3.941:582
3.941:540
3.946:511
3.946:469
3.946:424
3.946:407
3.947:414
3.947:446
3.947:487
3.947:509
3.947:524
3.950:536
3.950:532
3.950:552
3.950:577
3.951:584
3.951:583
3.951:577
3.951:578
3.951:596
3.951:617
3.954:644
3.954:676
3.954:685
3.955:714
3.955:751
3.956:790
3.956:826
3.956:861
3.956:893
3.969:893
3.975:912
3.975:894
3.975:848
3.975:811
3.976:767
3.976:710
3.976:641
3.976:566
3.976:485
3.977:403
3.978:325
3.978:255
3.979:208
3.979:163
3.979:135
3.979:137
3.979:153
3.979:185
3.979:224
3.983:265
3.983:309
3.983:354
3.983:403
3.984:466
3.984:514
3.984:538
3.984:542
3.984:532
3.984:511
4.003:489
4.003:471
4.003:452
4.003:434
4.004:399
4.004:370
4.004:364
4.007:373
4.007:392
4.007:413
4.008:438
4.008:460
4.008:476
4.008:501
4.008:543
4.009:577
4.009:587
4.012:580
4.012:563
4.012:537
4.012:509
4.012:484
4.012:465
4.013:444
4.013:408
4.013:380
4.015:374
4.015:384
4.015:408
4.015:437
4.031:437
4.032:464
4.032:490
4.032:509
4.032:532
4.032:577
4.036:606
4.036:612
4.036:602
4.036:585
4.037:556
4.037:526
4.037:499
4.037:482
4.037:461
4.037:425
4.040:399
4.040:394
4.040:407
4.040:427
4.041:455
4.041:482
4.041:508
4.041:528
4.041:555
4.042:595
4.044:621
4.044:628
4.044:617
4.045:595
4.061:567
4.061:538
4.061:512
4.065:493
4.065:474
4.065:435
4.065:410
4.066:406
4.066:418
4.066:437
4.066:464
4.066:489
4.067:514
4.068:533
4.068:559
4.068:602
4.068:629
4.070:633
4.070:622
4.070:603
4.070:575
4.070:549
4.073:521
4.073:502
4.073:479
4.074:441
4.074:419
4.074:419
4.074:433
4.074:453
4.089:453
4.089:480
4.094:508
4.094:530
4.094:549
4.094:577
4.095:618
4.095:639
4.095:644
4.095:631
4.095:611
4.096:583
4.097:554
4.097:528
4.098:509
4.098:481
4.098:442
4.098:424
4.098:423
4.099:439
4.099:460
4.102:487
4.102:514
4.102:538
4.102:557
4.103:586
4.103:631
4.103:653
4.103:659
4.103:645
4.122:627
4.123:601
4.123:575
4.123:551
4.123:529
4.123:503
4.124:467
4.124:449
4.124:449
4.126:463
4.126:487
4.126:515
4.126:542
4.127:564
4.127:582
4.127:613
4.127:656
4.127:679
4.130:684
4.131:667
4.131:641
4.131:616
4.131:591
4.131:568
4.132:551
4.132:522
4.132:485
4.132:471
4.134:471
4.134:488
4.150:488
4.150:513
4.150:543
4.150:570
4.151:593
4.151:609
4.151:645
4.151:691
4.155:709
4.156:711
4.156:694
4.156:673
4.156:650
4.156:623
4.156:600
4.156:582
4.157:556
4.158:518
4.158:505
4.159:508
4.159:523
4.159:546
4.159:577
4.159:605
4.160:628
4.160:650
4.160:685
4.163:728
4.163:745
4.163:745
4.179:729
4.179:707
4.179:677
4.179:650
4.179:628
4.183:609
4.184:578
4.184:542
4.184:531
4.184:533
4.184:550
4.184:572
4.185:601
4.185:628
4.188:652
4.188:673
4.189:712
4.189:755
4.190:768
4.190:764
4.190:746
4.190:721
4.190:693
4.190:663
4.191:639
4.191:619
4.191:586
4.192:547
4.192:534
4.192:536
4.208:536
4.208:552
4.208:575
4.209:600
4.212:623
4.212:644
4.212:661
4.212:695
4.213:730
4.213:740
4.213:730
4.213:709
4.213:678
4.216:642
4.216:610
4.216:583
4.216:558
4.217:520
4.217:477
4.217:461
4.217:461
4.217:476
4.217:492
4.220:513
4.220:534
4.220:550
4.220:568
4.221:602
4.222:631
4.222:637
4.236:628
4.241:604
4.241:567
4.241:531
4.241:499
4.241:469
4.241:442
4.242:398
4.242:354
4.242:338
4.245:339
4.245:352
4.245:371
4.245:391
4.246:411
4.246:427
4.246:441
4.246:473
4.246:504
4.247:511
4.249:501
4.249:474
4.250:441
4.250:406
4.250:372
4.250:347
4.250:325
4.251:283
4.251:245
4.252:231
4.269:231
4.269:231
4.269:247
4.269:269
4.269:292
4.270:316
4.270:332
4.270:354
4.270:391
4.273:423
4.273:430
4.273:419
4.273:399
4.274:373
4.274:343
4.274:315
4.274:290
4.274:267
4.274:227
4.277:195
4.277:188
4.277:196
4.277:216
4.277:242
4.278:268
4.278:294
4.279:316
4.279:338
4.282:380
4.282:417
4.298:426
4.298:420
4.298:400
4.299:371
4.299:342
4.299:316
4.302:296
4.302:276
4.302:241
4.302:212
4.303:206
4.303:217
4.303:237
4.303:265
4.303:294
4.304:320
4.305:340
4.306:367
4.306:415
4.306:444
4.306:453
4.306:446
4.306:428
4.307:400
4.307:373
4.310:346
4.310:327
4.310:307
4.310:271
4.311:245
4.326:245
4.327:237
4.327:248
4.327:267
4.327:295
4.331:325
4.331:354
4.331:378
4.331:404
4.332:451
4.332:479
4.332:489
4.332:480
4.332:459
4.333:431
4.335:403
4.335:377
4.335:356
4.335:335
4.335:297
4.336:271
4.336:268
4.336:279
4.336:301
4.339:332
4.339:360
4.339:385
4.339:405
4.340:429
4.340:474
4.355:503
4.355:509
4.359:496
4.359:472
4.359:443
4.360:418
4.360:392
4.360:372
4.361:351
4.361:312
4.361:293
4.364:291
4.364:307
4.364:329
4.364:357
4.365:385
4.365:408
4.365:430
4.365:460
4.365:501
4.365:526
4.368:532
4.368:518
4.368:498
4.368:468
4.369:439
4.369:414
4.370:393
4.370:366
4.370:328
4.384:328
4.389:307
4.389:302
4.389:316
4.390:336
4.390:366
4.390:394
4.390:420
4.390:440
4.391:471
4.392:517
4.392:539
4.392:544
4.392:531
4.393:510
4.393:484
4.393:457
4.393:431
4.393:409
4.393:382
4.396:343
4.396:322
4.396:321
4.396:337
4.397:361
4.397:392
4.397:419
4.397:442
4.397:461
4.398:490
4.417:532
4.417:554
4.417:558
4.417:544
4.417:521
4.417:491
4.418:463
4.421:435
4.422:415
4.422:385
4.422:345
4.422:329
4.423:330
4.423:344
4.423:366
4.423:395
4.424:421
4.425:445
4.425:466
4.425:502
4.425:542
4.426:560
4.426:563
4.426:547
4.426:523
4.426:494
4.429:464
4.429:439
4.429:418
4.429:390
4.445:390
4.445:351
4.445:334
4.445:335
4.445:352
4.446:374
4.449:400
4.449:429
4.449:452
4.450:472
4.450:508
4.450:549
4.450:569
4.450:569
4.451:552
4.451:529
4.454:500
4.454:472
4.454:448
4.455:428
4.455:395
4.455:359
4.455:345
4.456:346
4.456:363
4.457:387
4.457:413
4.457:438
4.457:459
4.458:477
4.474:513
4.474:557
4.474:573
4.477:572
4.478:554
4.478:530
4.478:498
4.478:469
4.478:445
4.478:427
4.478:397
4.480:357
4.480:344
4.482:348
4.482:369
4.482:393
4.482:422
4.482:450
4.482:473
4.484:491
4.484:528
4.484:569
4.486:584
4.486:579
4.487:562
4.487:538
4.487:506
4.487:476
4.487:454
4.488:432
4.502:432
4.503:397
4.506:361
4.506:351
4.506:358
4.506:373
4.507:397
4.507:423
4.507:447
4.507:468
4.507:489
4.508:527
4.511:563
4.511:575
4.511:571
4.511:553
4.512:526
4.512:497
4.512:469
4.512:448
4.512:428
4.515:391
4.515:357
4.515:348
4.515:354
4.516:375
4.516:402
4.516:430
4.516:456
4.516:478
4.535:499
4.535:540
4.535:576
4.535:588
4.536:582
4.536:564
4.536:536
4.536:504
4.536:477
4.538:455
4.540:435
4.540:396
4.540:361
4.540:349
4.540:357
4.541:377
4.541:403
4.541:432
4.544:460
4.544:482
4.544:504
4.544:545
4.545:581
4.545:588
4.545:580
4.545:562
4.545:535
4.546:507
4.548:480
4.548:455
4.564:455
4.564:435
4.564:400
4.564:369
4.565:358
4.565:365
4.565:384
4.565:410
4.568:435
4.568:459
4.568:477
4.569:499
4.569:544
4.569:577
4.569:587
4.569:581
4.570:561
4.572:531
4.572:502
4.572:473
4.572:456
4.572:436
4.573:398
4.573:368
4.573:361
4.573:368
4.573:386
4.576:414
4.576:438
4.576:463
4.593:487
4.593:515
4.593:561
4.593:594
4.594:601
4.597:590
4.597:568
4.597:540
4.597:513
4.597:485
4.597:461
4.598:438
4.598:399
4.598:370
4.601:359
4.601:370
4.601:389
4.601:413
4.602:440
4.602:465
4.602:487
4.602:514
4.602:558
4.603:589
4.605:596
4.605:588
4.605:567
4.605:538
4.606:509
4.606:482
4.622:482
4.622:460
4.622:438
4.622:397
4.625:369
4.626:365
4.626:377
4.626:398
4.626:426
4.627:447
4.627:470
4.627:490
4.627:517
4.629:561
4.629:584
4.630:591
4.630:581
4.630:557
4.630:526
4.630:497
4.631:470
4.631:448
4.631:424
4.634:385
4.634:364
4.634:359
4.634:371
4.634:394
4.634:422
4.636:448
4.654:471
4.656:492
4.656:518
4.656:561
4.657:586
4.657:591
4.657:580
4.657:559
4.658:526
4.658:495
4.659:466
4.659:445
4.659:419
4.659:380
4.659:356
4.659:352
4.660:367
4.660:392
4.660:419
4.660:445
4.662:469
4.662:489
4.662:518
4.663:562
4.663:587
4.663:589
4.663:573
4.663:548
4.664:519
4.666:491
4.683:491
4.683:467
4.683:448
4.683:420
4.684:381
4.684:359
4.684:357
4.684:371
4.684:390
4.687:420
4.688:446
4.689:469
4.689:487
4.690:519
4.690:559
4.690:582
4.690:588
4.690:573
4.691:549
4.691:519
4.691:491
4.692:462
4.692:439
4.692:413
4.692:375
4.692:355
4.693:354
4.693:369
4.695:389
4.695:417
4.711:442
4.711:467
4.711:490
4.712:524
4.712:570
4.712:591
4.716:591
4.716:579
4.716:558
4.716:526
4.717:495
4.717:471
4.717:453
4.717:423
4.717:383
4.720:363
4.720:361
4.720:378
4.720:401
4.720:429
4.720:453
4.720:475
4.720:496
4.721:528
4.721:571
4.724:589
4.724:587
4.724:570
4.724:548
4.724:517
4.740:517
4.740:489
4.740:466
4.740:447
4.740:417
4.745:381
4.745:364
4.745:362
4.745:378
4.746:400
4.746:430
4.746:455
4.746:476
4.746:496
4.747:531
4.748:569
4.748:583
4.748:581
4.749:563
4.749:538
4.749:510
4.749:481
4.749:459
4.749:441
4.753:409
4.753:372
4.753:358
4.753:356
4.754:374
4.754:399
4.768:430
4.768:458
4.773:480
4.773:502
4.773:540
4.773:580
4.773:597
4.774:593
4.774:577
4.774:552
4.774:524
4.777:495
4.777:469
4.777:451
4.778:417
4.778:379
4.778:365
4.778:370
4.778:388
4.779:413
4.779:438
4.781:464
4.781:488
4.782:508
4.782:546
4.782:584
4.782:596
4.783:593
4.783:572
4.783:546
4.797:546
4.802:518
4.802:489
4.802:465
4.802:443
4.803:409
4.803:377
4.803:365
4.803:366
4.803:384
4.806:411
4.806:440
4.806:467
4.807:486
4.807:507
4.807:546
4.808:585
4.808:597
4.808:591
4.808:573
4.809:546
4.809:513
4.810:486
4.810:463
4.810:444
4.810:410
4.811:376
4.811:365
4.811:369
4.811:387
4.829:413
4.829:440
4.831:465
4.831:485
4.831:504
4.831:545
4.832:582
4.835:595
4.835:587
4.835:566
4.835:540
4.836:512
4.836:485
4.836:460
4.836:439
4.836:403
4.837:372
4.838:360
4.838:368
4.839:386
4.839:413
4.839:442
4.839:467
4.839:488
4.839:510
4.839:551
4.843:586
4.843:596
4.843:593
4.843:575
4.859:575
4.859:548
4.859:517
4.860:489
4.860:464
4.860:444
4.863:405
4.863:374
4.863:367
4.863:373
4.864:391
4.864:418
4.864:446
4.864:471
4.864:492
4.864:515
4.867:558
4.867:588
4.868:595
4.868:585
4.868:566
4.868:538
4.868:509
4.869:481
4.869:460
4.871:439
4.872:399
4.872:373
4.872:364
4.873:375
4.887:397
4.888:422
4.888:449
4.892:475
4.892:495
4.892:518
4.892:561
4.893:592
4.893:598
4.893:586
4.893:567
4.894:538
4.894:509
4.896:479
4.896:456
4.896:433
4.896:393
4.896:366
4.897:361
4.897:372
4.897:392
4.897:419
4.899:448
4.900:470
4.900:491
4.900:519
4.900:560
4.900:592
4.901:598
4.901:583
4.916:583
4.916:564
4.921:535
4.921:504
4.922:477
4.922:454
4.922:433
4.922:394
4.922:365
4.923:361
4.923:370
4.923:392
4.925:422
4.925:449
4.926:474
4.926:492
4.926:519
4.926:561
4.927:590
4.927:596
4.927:584
4.929:562
4.929:534
4.929:506
4.929:477
4.929:457
4.929:434
4.930:394
4.930:371
4.930:369
4.949:384
4.949:401
4.949:427
4.949:453
4.950:479
4.950:499
4.950:527
4.950:570
4.950:595
4.953:600
4.953:586
4.953:563
4.953:533
4.953:505
4.954:475
4.955:455
4.955:430
4.955:388
4.957:368
4.957:365
4.957:380
4.957:401
4.958:429
4.958:455
4.958:476
4.959:496
4.959:528
4.959:571
4.961:592
4.961:593
4.977:593
4.977:580
4.977:559
4.978:528
4.978:499
4.978:474
4.978:456
4.978:431
4.982:388
4.982:372
4.982:370
4.982:384
4.983:408
4.983:436
4.983:461
4.983:485
4.983:502
4.986:532
4.986:574
4.986:595
4.987:596
4.987:579
4.988:555
4.988:526
4.988:497
4.989:470
4.989:449
4.989:422
4.990:385
4.990:367
5.006:368
5.007:383
5.007:405
5.007:433
5.011:460
5.011:484
5.011:502
5.011:534
5.012:575
5.012:593
5.012:600
5.012:586
5.012:563
5.012:532
5.015:504
5.015:480
5.015:460
5.015:430
5.016:393
5.016:377
5.016:378
5.016:393
5.016:413
5.017:437
5.018:464
5.018:487
5.018:508
5.018:539
5.018:578
5.018:592
5.034:592
5.035:589
5.035:573
5.035:546
5.038:516
5.039:487
5.039:464
5.039:446
5.039:415
5.039:381
5.039:371
5.039:378
5.039:401
5.043:427
5.043:457
5.043:491
5.043:518
5.044:542
5.044:579
5.044:618
5.044:631
5.044:627
5.045:606
5.046:577
5.047:546
5.047:517
5.047:489
5.047:472
5.047:441
5.048:405
5.068:395
5.068:399
5.068:416
5.068:440
5.068:470
5.069:498
5.069:522
5.069:544
5.069:583
5.069:621
5.072:634
5.073:633
5.073:612
5.073:587
5.073:554
5.074:524
5.074:500
5.074:481
5.074:443
5.076:407
5.076:393
5.076:397
5.076:416
5.077:439
5.077:466
5.077:493
5.077:512
5.077:534
5.077:568
5.080:600
5.096:600
5.097:606
5.097:600
5.097:579
5.097:551
5.097:519
5.097:486
5.097:460
5.097:440
5.101:402
5.101:365
5.101:353
5.101:358
5.102:377
5.102:403
5.102:428
5.102:449
5.102:470
5.103:486
5.105:528
5.105:563
5.105:575
5.105:570
5.105:553
5.105:528
5.105:497
5.105:466
5.105:442
5.109:423
5.109:391
5.125:362
5.125:354
5.125:358
5.126:375
5.126:400
5.126:427
5.129:453
5.129:475
5.129:496
5.129:538
5.129:573
5.129:586
5.130:579
5.130:558
5.130:531
5.134:502
5.134:471
5.134:448
5.134:427
5.134:390
5.135:358
5.135:352
5.135:360
5.135:380
5.135:407
5.138:434
5.138:461
5.138:484
5.139:506
5.139:548
5.153:548
5.154:579
5.155:587
5.155:578
5.155:557
5.158:530
5.158:502
5.158:476
5.158:455
5.158:432
5.158:392
5.160:362
5.160:356
5.160:368
5.160:386
5.162:412
5.162:440
5.162:467
5.163:490
5.163:515
5.163:559
5.163:594
5.163:605
5.163:600
5.166:587
5.166:566
5.166:547
5.166:523
5.167:508
5.167:492
5.182:464
5.182:450
5.186:463
5.186:488
5.186:517
5.187:537
5.187:546
5.188:558
5.188:568
5.188:578
5.188:612
5.191:636
5.191:649
5.191:653
5.191:638
5.191:597
5.192:557
5.192:512
5.192:468
5.192:430
5.192:380
5.195:356
5.195:356
5.195:385
5.195:439
5.196:521
5.196:593
5.196:670
5.196:742
5.196:817
5.211:817
5.215:920
5.215:990
5.215:990
5.215:990
5.216:989
5.216:990
5.216:958
5.216:885
5.216:792
5.219:690
5.219:574
5.219:484
5.219:424
5.220:374
5.220:336
5.220:310
5.221:287
5.221:266
5.221:263
5.224:287
5.224:333
5.224:367
5.224:378
5.225:374
5.225:367
5.225:359
5.225:354
5.225:353
5.227:362
5.243:357
5.244:335
5.244:328
5.244:336
5.244:360
5.244:388
5.244:421
5.248:453
5.248:482
5.248:503
5.248:530
5.249:570
5.249:592
5.249:591
5.249:575
5.249:554
5.250:523
5.252:496
5.252:473
5.252:452
5.252:422
5.253:385
5.253:368
5.253:368
5.254:383
5.254:406
5.256:434
5.256:460
5.256:486
5.256:505
5.272:505
5.272:541
5.273:584
5.273:607
5.273:610
5.273:594
5.277:567
5.277:542
5.277:516
5.277:493
5.277:474
5.278:448
5.278:411
5.278:394
5.278:394
5.278:410
5.281:432
5.281:459
5.281:485
5.281:508
5.282:527
5.282:559
5.282:599
5.282:617
5.282:620
5.285:606
5.285:583
5.285:553
5.285:526
5.286:503
5.300:483
5.301:456
5.301:422
5.306:408
5.306:411
5.306:425
5.306:447
5.306:473
5.307:499
5.307:522
5.307:542
5.307:574
5.307:612
5.308:625
5.310:624
5.310:610
5.310:586
5.310:557
5.310:533
5.310:511
5.311:493
5.311:464
5.314:427
5.314:414
5.314:415
5.314:433
5.315:455
5.315:481
5.315:508
5.315:532
5.329:532
5.329:552
5.334:585
5.334:626
5.334:640
5.334:639
5.335:620
5.335:598
5.335:570
5.335:543
5.335:518
5.336:500
5.337:472
5.338:438
5.338:425
5.338:428
5.340:445
5.340:465
5.340:493
5.340:518
5.340:538
5.342:554
5.342:592
5.343:634
5.343:652
5.343:649
5.343:632
5.344:607
5.344:580
5.344:551
5.363:529
5.363:511
5.363:481
5.363:445
5.363:435
5.364:440
5.364:458
5.364:484
5.364:510
5.367:537
5.367:561
5.367:584
5.367:622
5.367:658
5.367:672
5.367:666
5.367:648
5.368:624
5.370:598
5.370:573
5.370:552
5.372:533
5.372:499
5.372:466
5.372:459
5.372:466
5.373:483
5.373:510
5.375:539
5.375:563
5.391:563
5.391:585
5.391:607
5.391:646
5.391:684
5.392:694
5.392:689
5.392:672
5.395:649
5.395:623
5.395:596
5.395:577
5.396:563
5.396:527
5.396:497
5.396:489
5.396:499
5.399:519
5.399:547
5.399:576
5.400:602
5.400:624
5.400:644
5.400:688
5.400:722
5.400:732
5.401:728
5.404:712
5.404:687
5.405:660
5.419:634
5.419:612
5.420:596
5.420:562
5.424:532
5.424:525
5.424:535
5.424:551
5.425:583
5.425:611
5.425:642
5.425:662
5.425:684
5.425:729
5.428:764
5.428:772
5.428:767
5.429:748
5.429:721
5.429:691
5.429:666
5.429:644
5.429:625
5.432:589
5.432:560
5.432:556
5.432:566
5.433:587
5.433:612
5.433:637
5.448:637
5.448:662
5.448:680
5.448:701
5.452:742
5.452:770
5.452:778
5.453:768
5.453:743
5.453:714
5.453:686
5.455:657
5.455:634
5.457:612
5.457:569
5.457:536
5.457:526
5.458:532
5.458:547
5.458:570
5.458:591
5.458:611
5.459:625
5.460:643
5.461:681
5.461:704
5.461:706
5.461:691
5.461:665
5.462:628
5.482:594
5.482:560
5.482:533
5.482:505
5.483:460
5.483:430
5.483:419
5.483:425
5.483:439
5.483:459
5.486:477
5.486:495
5.486:508
5.486:525
5.487:559
5.487:580
5.487:577
5.487:559
5.487:530
5.489:495
5.489:459
5.489:428
5.489:402
5.490:370
5.490:323
5.490:293
5.490:279
5.490:285
5.490:301
5.494:322
5.510:322
5.510:343
5.510:361
5.510:375
5.511:396
5.511:433
5.511:454
5.511:452
5.511:435
5.514:412
5.514:379
5.514:349
5.515:322
5.515:299
5.515:271
5.515:230
5.515:206
5.515:202
5.516:211
5.518:228
5.518:255
5.518:278
5.518:300
5.519:319
5.519:348
5.519:386
5.519:408
5.519:411
5.522:397
5.522:375
5.538:348
5.538:319
5.538:294
5.539:274
5.539:249
5.539:213
5.543:193
5.543:190
5.543:203
5.544:225
5.544:252
5.544:281
5.544:306
5.544:326
5.544:357
5.547:400
5.547:422
5.547:424
5.548:411
5.548:389
5.548:362
5.548:337
5.548:312
5.548:296
5.549:272
5.551:235
5.551:217
5.551:215
5.551:232
5.552:256
5.567:256
5.567:285
5.567:313
5.567:336
5.567:357
5.571:388
5.571:431
5.571:449
5.572:454
5.572:441
5.572:421
5.572:393
5.572:367
5.573:343
5.576:324
5.576:296
5.576:259
5.577:243
5.577:245
5.577:262
5.577:286
5.577:315
5.577:342
5.577:366
5.579:385
5.579:418
5.579:460
5.580:479
5.580:482
5.580:465
5.596:443
5.596:416
5.599:390
5.599:368
5.599:350
5.600:320
5.600:283
5.600:270
5.600:271
5.600:288
5.600:311
5.604:340
5.605:368
5.605:391
5.605:410
5.605:446
5.605:485
5.605:502
5.605:503
5.606:489
5.606:465
5.608:435
5.608:407
5.608:385
5.608:370
5.608:339
5.608:306
5.609:294
5.609:294
5.609:313
5.624:313
5.629:338
5.629:365
5.629:390
5.629:412
5.629:432
5.629:471
5.630:510
5.630:526
5.630:522
5.633:504
5.633:483
5.633:454
5.633:429
5.633:406
5.633:388
5.633:355
5.635:321
5.635:309
5.635:312
5.638:329
5.638:354
5.638:383
5.638:410
5.638:434
5.639:452
5.639:489
5.639:525
5.639:537
5.641:533
5.657:517
5.657:495
5.657:467
5.657:441
5.657:418
5.657:400
5.659:368
5.662:335
5.662:326
5.662:331
5.662:347
5.663:371
5.663:397
5.663:422
5.663:444
5.663:463
5.664:502
5.666:537
5.666:549
5.666:543
5.666:528
5.666:505
5.667:478
5.667:450
5.667:432
5.667:415
5.669:378
5.669:344
5.669:335
5.671:342
5.686:342
5.686:358
5.686:380
5.686:410
5.686:434
5.688:454
5.690:475
5.690:513
5.690:547
5.690:557
5.691:551
5.691:532
5.691:507
5.691:479
5.691:451
5.692:426
5.694:406
5.694:373
5.694:342
5.694:335
5.694:348
5.694:367
5.696:396
5.696:421
5.696:445
5.698:465
5.698:485
5.698:522
5.698:553
5.698:562
5.714:557
5.714:541
5.715:514
5.719:484
5.719:461
5.719:443
5.719:423
5.720:385
5.720:354
5.721:348
5.721:355
5.721:373
5.722:398
5.722:421
5.723:448
5.723:468
5.723:491
5.723:531
5.723:557
5.724:567
5.724:559
5.724:538
5.727:510
5.727:485
5.727:461
5.728:441
5.728:421
5.728:384
5.728:355
5.728:349
5.743:349
5.743:361
5.748:380
5.748:403
5.748:427
5.748:450
5.748:476
5.749:503
5.749:548
5.749:575
5.749:584
5.749:573
5.751:550
5.752:524
5.752:495
5.752:470
5.752:451
5.752:434
5.752:397
5.752:371
5.752:368
5.756:377
5.756:396
5.756:422
5.756:444
5.757:466
5.757:488
5.757:511
5.757:550
5.757:575
5.775:577
5.775:564
5.776:540
5.776:513
5.776:484
5.776:459
5.776:438
5.776:415
5.780:377
5.781:353
5.781:349
5.781:361
5.781:377
5.781:403
5.781:429
5.781:454
5.781:475
5.782:501
5.785:548
5.785:571
5.785:579
5.785:568
5.786:546
5.786:520
5.786:496
5.786:469
5.786:451
5.787:427
5.788:389
5.788:363
5.805:363
5.805:360
5.805:381
5.805:402
5.806:424
5.806:445
5.806:467
5.806:483
5.808:510
5.808:550
5.809:572
5.809:573
5.809:558
5.809:537
5.809:511
5.809:484
5.811:456
5.813:437
5.813:414
5.813:378
5.813:361
5.813:358
5.813:373
5.813:396
5.813:423
5.814:449
5.814:472
5.816:490
5.816:524
5.817:570
5.833:594
5.834:594
5.834:583
5.834:560
5.837:534
5.838:507
5.838:481
5.838:458
5.838:429
5.839:386
5.839:363
5.839:356
5.839:371
5.839:390
5.842:415
5.842:440
5.842:459
5.842:472
5.843:500
5.843:536
5.843:553
5.843:554
5.843:542
5.846:529
5.846:507
5.846:479
5.846:457
5.847:440
5.847:414
5.847:378
5.862:378
5.862:362
5.862:361
5.866:380
5.866:404
5.866:432
5.866:458
5.867:483
5.867:502
5.867:532
5.867:570
5.867:584
5.868:584
5.870:563
5.871:543
5.871:513
5.871:482
5.871:455
5.872:435
5.872:405
5.872:369
5.872:353
5.872:353
5.874:371
5.874:392
5.874:422
5.874:453
5.875:474
5.875:498
5.875:534
5.895:578
5.895:592
5.895:587
5.895:566
5.895:538
5.896:507
5.896:481
5.896:457
5.896:436
5.897:403
5.899:368
5.899:353
5.899:351
5.899:370
5.900:393
5.900:422
5.900:449
5.900:471
5.901:491
5.903:528
5.904:566
5.904:582
5.904:579
5.904:559
5.904:531
5.905:508
5.905:478
5.905:456
5.905:436
5.907:406
5.924:406
5.924:371
5.924:359
5.924:365
5.924:385
5.925:406
5.925:428
5.925:451
5.925:472
5.928:494
5.928:533
5.928:570
5.928:584
5.929:582
5.929:560
5.929:535
5.929:505
5.929:477
5.932:455
5.932:439
5.932:405
5.932:370
5.933:356
5.933:357
5.933:379
5.933:406
5.933:430
5.933:452
5.935:473
5.935:492
5.952:534
5.952:568
5.952:580
5.952:575
5.952:559
5.953:536
5.956:506
5.956:478
5.956:456
5.957:437
5.957:402
5.957:371
5.957:363
5.957:368
5.958:386
5.960:407
5.960:432
5.960:454
5.960:476
5.961:505
5.961:545
5.961:577
5.961:586
5.961:583
5.962:567
5.965:540
5.965:509
5.965:480
5.965:460
5.966:441
5.981:441
5.981:401
5.981:374
5.981:366
5.982:372
5.985:392
5.985:416
5.985:445
5.986:470
5.986:491
5.987:510
5.987:549
5.988:583
5.988:592
5.989:582
5.989:563
5.989:541
5.989:517
5.990:494
5.990:477
5.990:455
5.990:415
5.990:384
5.991:377
5.993:382
5.993:401
5.993:429
5.993:455
5.994:480
5.994:500
6.009:520
6.009:563
6.013:594
6.013:602
6.013:593
6.014:573
6.014:544
6.014:514
6.014:491
6.014:465
6.015:440
6.018:409
6.018:384
6.018:375
6.018:382
6.019:400
6.019:426
6.019:454
6.019:478
6.019:496
6.019:518
6.022:563
6.022:595
6.022:596
6.022:589
6.023:573
6.023:546
6.023:516
6.023:490
6.023:469
6.038:469
6.043:446
6.043:408
6.043:381
6.043:371
6.044:377
6.044:398
6.044:428
6.044:457
6.044:482
6.047:500
6.047:524
6.047:565
6.047:593
6.047:597
6.047:583
6.048:560
6.048:530
6.048:500
6.048:475
6.051:457
6.051:433
6.051:396
6.051:373
6.052:368
6.052:378
6.052:396
6.052:418
6.052:443
6.054:469
6.070:488
6.070:514
6.070:554
6.071:578
6.071:583
6.071:573
6.071:550
6.075:518
6.075:495
6.075:471
6.075:451
6.076:427
6.076:390
6.076:369
6.076:365
6.076:376
6.077:395
6.079:418
6.079:442
6.079:464
6.079:487
6.079:518
6.079:561
6.079:584
6.079:585
6.079:573
6.083:551
6.083:520
6.083:490
6.083:466
6.099:466
6.099:449
6.099:427
6.099:393
6.099:371
6.099:371
6.103:386
6.104:403
6.104:430
6.105:459
6.105:482
6.105:504
6.105:528
6.105:562
6.105:580
6.106:577
6.107:559
6.108:536
6.108:504
6.109:477
6.109:457
6.109:440
6.109:421
6.109:389
6.109:378
6.112:384
6.112:402
6.112:423
6.112:454
6.113:475
6.128:491
6.128:501
6.128:523
6.133:553
6.133:564
6.133:559
6.133:543
6.134:522
6.134:501
6.134:478
6.134:456
6.134:447
6.135:425
6.137:397
6.137:387
6.137:392
6.137:410
6.138:429
6.138:454
6.138:476
6.138:492
6.138:503
6.141:526
6.141:558
6.141:567
6.141:563
6.142:545
6.142:522
6.142:496
6.142:478
6.157:478
6.157:462
6.161:450
6.161:429
6.161:403
6.161:394
6.162:397
6.162:419
6.162:442
6.162:461
6.162:480
6.163:495
6.165:508
6.165:537
6.165:562
6.165:564
6.165:557
6.166:539
6.166:519
6.166:494
6.166:478
6.169:465
6.169:450
6.170:427
6.170:402
6.170:399
6.170:405
6.170:422
6.171:442
6.171:461
6.189:478
6.189:495
6.190:507
6.190:531
6.190:554
6.190:556
6.190:546
6.190:531
6.194:512
6.194:490
6.194:474
6.194:461
6.195:448
6.195:424
6.195:405
6.195:404
6.195:414
6.195:433
6.198:449
6.198:466
6.198:484
6.199:496
6.199:501
6.199:527
6.199:551
6.199:550
6.199:538
6.202:519
6.202:500
6.202:481
6.218:481
6.218:465
6.219:453
6.219:443
6.219:420
6.220:400
6.220:401
6.220:412
6.222:429
6.223:449
6.223:470
6.223:488
6.223:496
6.223:501
6.224:523
6.224:542
6.224:542
6.227:532
6.227:514
6.227:496
6.227:479
6.227:468
6.228:459
6.228:448
6.228:420
6.228:400
6.228:401
6.230:410
6.230:428
6.230:446
6.246:466
6.246:479
6.247:486
6.247:496
6.251:518
6.251:536
6.251:537
6.251:531
6.252:512
6.252:490
6.252:475
6.252:462
6.252:455
6.252:446
6.255:424
6.255:409
6.255:413
6.255:424
6.256:438
6.256:459
6.256:476
6.256:486
6.256:496
6.259:502
6.259:529
6.259:545
6.259:542
6.259:531
6.259:513
6.259:493
6.275:493
6.275:476
6.276:461
6.279:454
6.279:448
6.280:423
6.280:409
6.280:413
6.280:422
6.281:436
6.281:453
6.281:466
6.281:476
6.284:483
6.284:491
6.284:517
6.284:536
6.285:537
6.285:527
6.285:513
6.285:496
6.285:479
6.286:468
6.287:467
6.287:464
6.288:446
6.288:442
6.289:450
6.289:467
6.289:485
6.308:502
6.308:515
6.309:524
6.309:527
6.309:533
6.309:557
6.309:569
6.309:561
6.309:549
6.311:538
6.312:524
6.312:510
6.313:497
6.313:489
6.313:480
6.313:457
6.313:444
6.314:450
6.314:463
6.317:480
6.317:496
6.317:512
6.317:523
6.317:529
6.318:539
6.318:562
6.318:573
6.318:571
6.318:555
6.320:538
6.337:538
6.337:522
6.337:505
6.337:494
6.337:487
6.337:473
6.338:450
6.338:442
6.338:449
6.341:461
6.341:471
6.341:483
6.341:490
6.342:497
6.342:502
6.342:512
6.342:525
6.342:529
6.346:524
6.346:509
6.346:489
6.346:470
6.347:459
6.347:444
6.347:431
6.347:422
6.347:399
6.347:389
6.349:393
6.349:408
6.366:423
6.366:438
6.366:452
6.366:461
6.366:472
6.367:490
6.370:516
6.370:522
6.370:518
6.370:504
6.370:484
6.371:468
6.371:456
6.371:447
6.371:440
6.374:427
6.374:404
6.374:400
6.374:408
6.374:425
6.375:442
6.375:456
6.375:469
6.375:480
6.376:489
6.378:503
6.378:522
6.378:525
6.378:521
6.379:503
6.394:503
6.394:488
6.394:476
6.394:463
6.394:453
6.399:449
6.399:437
6.399:417
6.399:411
6.399:412
6.399:426
6.399:443
6.401:461
6.401:474
6.403:483
6.404:491
6.404:504
6.404:524
6.405:529
6.405:523
6.405:514
6.405:502
6.406:486
6.406:471
6.407:462
6.407:454
6.407:440
6.407:421
6.407:418
6.407:424
6.423:443
6.423:457
6.427:472
6.427:482
6.427:493
6.428:502
6.428:523
6.428:548
6.429:561
6.429:562
6.429:558
6.431:548
6.431:538
6.431:528
6.431:527
6.432:535
6.432:538
6.432:532
6.432:530
6.432:528
6.433:530
6.435:539
6.435:546
6.435:549
6.435:551
6.436:559
6.436:587
6.436:622
6.437:627
6.437:612
6.451:612
6.455:590
6.455:559
6.456:525
6.456:497
6.456:486
6.456:481
6.456:475
6.457:484
6.457:530
6.460:581
6.460:643
6.460:716
6.460:783
6.460:849
6.461:906
6.461:944
6.461:990
6.461:990
6.461:990
6.464:990
6.464:960
6.464:878
6.464:786
6.465:692
6.465:605
6.465:527
6.465:441
6.465:359
6.468:301
6.484:262
6.485:232
6.485:224
6.485:238
6.485:257
6.485:275
6.486:289
6.489:329
6.489:372
6.489:395
6.489:407
6.489:415
6.490:423
6.490:427
6.490:429
6.490:435
6.491:433
6.493:420
6.493:405
6.494:412
6.494:424
6.494:442
6.494:463
6.495:485
6.495:498
6.495:507
6.497:514
6.497:538
6.497:559
6.497:557
6.513:557
6.513:543
6.514:524
6.514:502
6.514:486
6.514:472
6.518:460
6.518:450
6.518:432
6.518:418
6.519:423
6.519:435
6.519:450
6.519:468
6.520:488
6.520:504
6.521:512
6.521:519
6.521:547
6.522:566
6.522:569
6.522:559
6.522:544
6.522:524
6.523:506
6.526:488
6.526:479
6.526:475
6.526:451
6.527:433
6.541:435
6.541:447
6.541:465
6.545:483
6.545:502
6.547:517
6.547:528
6.547:540
6.547:567
6.547:589
6.547:589
6.547:577
6.550:560
6.550:539
6.550:523
6.550:505
6.551:494
6.551:483
6.551:459
6.551:442
6.551:445
6.552:455
6.554:472
6.554:495
6.555:516
6.555:533
6.555:548
6.555:558
6.555:585
6.556:605
6.569:605
6.570:601
6.575:584
6.575:571
6.575:552
6.575:533
6.576:517
6.576:503
6.576:492
6.577:465
6.577:447
6.577:446
6.578:458
6.578:475
6.578:495
6.579:514
6.579:530
6.579:544
6.579:561
6.579:597
6.579:618
6.583:623
6.583:613
6.583:598
6.583:572
6.584:548
6.584:525
6.584:509
6.584:491
6.584:454
6.604:430
6.604:426
6.604:438
6.604:458
6.604:483
6.605:508
6.605:532
6.605:550
6.607:571
6.607:610
6.607:635
6.609:636
6.609:624
6.609:603
6.609:575
6.610:552
6.610:531
6.610:515
6.612:497
6.612:458
6.612:433
6.612:428
6.613:440
6.613:462
6.613:484
6.613:510
6.613:534
6.615:553
6.615:579
6.615:625
6.632:625
6.632:650
6.632:653
6.632:644
6.632:630
6.633:603
6.633:577
6.636:554
6.637:536
6.638:514
6.638:474
6.638:449
6.638:449
6.638:466
6.638:483
6.638:510
6.638:538
6.640:565
6.640:588
6.640:616
6.640:663
6.641:687
6.641:694
6.641:683
6.641:664
6.641:641
6.642:616
6.643:596
6.644:578
6.644:559
6.660:523
6.660:503
6.660:499
6.661:512
6.665:533
6.665:562
6.665:587
6.665:614
6.666:635
6.666:666
6.666:711
6.666:735
6.666:742
6.667:730
6.669:711
6.670:685
6.670:658
6.670:635
6.670:616
6.670:591
6.670:553
6.670:535
6.670:537
6.673:553
6.673:575
6.673:604
6.673:634
6.674:659
6.674:679
6.674:706
6.689:706
6.689:750
6.689:775
6.694:781
6.694:768
6.694:745
6.694:719
6.695:695
6.695:670
6.695:650
6.695:621
6.695:584
6.695:563
6.698:563
6.698:576
6.698:599
6.698:626
6.698:649
6.699:666
6.699:686
6.699:719
6.699:760
6.701:780
6.701:781
6.702:764
6.703:738
6.703:707
6.703:676
6.703:649
6.703:627
6.722:596
6.722:553
6.722:531
6.723:528
6.723:539
6.723:554
6.723:573
6.723:595
6.724:612
6.724:624
6.726:648
6.726:682
6.726:692
6.726:686
6.726:662
6.727:632
6.727:600
6.727:567
6.727:540
6.730:517
6.730:481
6.730:435
6.730:415
6.730:409
6.730:418
6.732:435
6.732:456
6.732:474
6.732:487
6.734:498
6.750:498
6.750:522
6.750:552
6.751:558
6.751:553
6.751:530
6.751:499
6.751:460
6.752:425
6.755:395
6.755:367
6.755:327
6.755:286
6.756:267
6.756:260
6.756:271
6.756:287
6.756:308
6.759:327
6.759:342
6.759:360
6.759:388
6.759:419
6.759:432
6.759:426
6.761:406
6.761:379
6.761:346
6.763:313
6.763:287
6.780:268
6.781:233
6.781:193
6.781:182
6.782:181
6.782:198
6.784:221
6.784:244
6.784:267
6.784:293
6.784:313
6.784:349
6.785:384
6.785:396
6.785:392
6.787:376
6.787:352
6.787:325
6.788:295
6.788:268
6.788:247
6.788:214
6.788:182
6.788:171
6.789:182
6.791:203
6.791:229
6.791:257
6.791:286
6.791:309
6.808:309
6.808:333
6.808:372
6.809:411
6.809:422
6.812:418
6.813:404
6.813:382
6.813:352
6.814:325
6.814:305
6.814:287
6.814:257
6.815:219
6.816:207
6.817:214
6.817:236
6.817:262
6.817:289
6.817:315
6.818:333
6.818:356
6.818:398
6.819:435
6.819:445
6.819:440
6.820:423
6.820:399
6.820:374
6.820:345
6.836:328
6.836:314
6.841:279
6.841:247
6.841:243
6.841:254
6.842:273
6.842:297
6.842:324
6.842:350
6.842:371
6.845:393
6.845:434
6.845:470
6.845:480
6.846:476
6.846:459
6.846:432
6.846:405
6.846:380
6.847:363
6.849:347
6.849:312
6.849:283
6.849:275
6.849:284
6.850:301
6.850:326
6.850:354
6.850:380
6.865:380
6.869:402
6.869:428
6.869:469
6.869:500
6.869:509
6.869:502
6.869:483
6.871:457
6.871:432
6.874:409
6.874:388
6.874:366
6.874:332
6.875:304
6.875:298
6.875:309
6.875:329
6.875:356
6.876:386
6.878:410
6.878:429
6.878:454
6.878:496
6.879:527
6.879:533
6.879:521
6.879:505
6.879:479
6.882:449
6.898:423
6.898:402
6.899:382
6.899:342
6.899:320
6.899:316
6.899:326
6.903:347
6.903:379
6.903:408
6.903:432
6.903:450
6.903:473
6.903:514
6.903:541
6.904:547
6.906:538
6.906:518
6.907:487
6.907:456
6.907:430
6.908:412
6.908:392
6.909:354
6.909:327
6.909:324
6.910:334
6.911:354
6.911:385
6.911:414
6.926:414
6.926:441
6.926:464
6.927:490
6.927:530
6.927:554
6.931:558
6.931:548
6.931:527
6.931:498
6.932:472
6.932:446
6.932:423
6.932:400
6.932:360
6.933:338
6.935:333
6.935:346
6.935:367
6.936:393
6.936:418
6.936:444
6.936:465
6.937:496
6.937:536
6.939:559
6.939:564
6.939:549
6.939:528
6.939:503
6.955:476
6.955:452
6.955:433
6.959:408
6.959:369
6.959:348
6.959:347
6.959:359
6.960:378
6.960:406
6.960:434
6.960:456
6.963:476
6.963:507
6.963:548
6.964:569
6.964:572
6.964:557
6.964:538
6.965:509
6.965:479
6.965:453
6.968:434
6.968:405
6.968:368
6.968:352
6.968:351
6.969:361
6.969:382
6.970:408
6.984:408
6.984:432
6.988:453
6.988:472
6.988:502
6.988:545
6.988:566
6.988:567
6.990:554
6.990:533
6.990:503
6.992:478
6.992:451
6.992:432
6.992:407
6.993:371
6.993:354
6.993:356
6.993:375
6.993:399
6.994:427
6.996:447
6.996:473
6.996:494
6.996:524
6.997:562
6.997:577
6.997:578
6.997:566
6.997:544
7.016:512
7.016:482
7.017:457
7.017:438
7.017:408
7.017:369
7.017:353
7.017:353
7.020:371
7.021:396
7.021:422
7.022:450
7.022:471
7.022:488
7.022:521
7.023:560
7.023:573
7.023:574
7.024:559
7.024:537
7.024:508
7.025:480
7.025:461
7.025:441
7.026:403
7.026:366
7.026:353
7.028:357
7.028:372
7.028:393
7.045:393
7.045:421
7.045:451
7.046:473
7.046:490
7.046:523
7.046:563
7.050:577
7.050:577
7.050:558
7.050:531
7.050:500
7.051:474
7.051:449
7.051:431
7.051:400
7.051:364
7.054:349
7.054:351
7.054:369
7.054:391
7.054:415
7.054:439
7.054:460
7.054:478
7.054:516
7.058:557
7.058:571
7.058:572
7.058:556
7.074:536
7.074:508
7.074:481
7.075:460
7.078:442
7.078:412
7.078:382
7.078:370
7.079:374
7.079:392
7.079:414
7.079:438
7.079:463
7.079:481
7.083:500
7.083:534
7.083:569
7.083:584
7.084:580
7.084:560
7.084:533
7.084:502
7.084:473
7.086:451
7.087:434
7.087:401
7.087:367
7.087:357
7.087:361
7.087:383
7.103:383
7.103:409
7.104:437
7.107:462
7.107:481
7.107:498
7.108:536
7.108:570
7.108:580
7.108:579
7.108:561
7.108:534
7.109:504
7.111:475
7.111:446
7.111:425
7.111:389
7.112:358
7.112:346
7.112:351
7.112:372
7.112:396
7.115:422
7.115:452
7.115:476
7.115:499
7.116:539
7.116:569
7.116:578
7.116:573
7.136:554
7.136:528
7.137:503
7.137:475
7.137:448
7.137:426
7.137:385
7.137:354
7.137:345
7.137:350
7.139:367
7.139:393
7.140:418
7.140:442
7.140:463
7.140:486
7.140:527
7.140:556
7.142:563
7.144:554
7.144:533
7.144:508
7.144:480
7.145:453
7.145:427
7.145:411
7.145:374
7.145:352
7.146:350
7.148:367
7.164:367
7.164:393
7.164:423
7.164:450
7.164:473
7.165:492
7.165:515
7.165:554
7.165:586
7.170:592
7.170:582
7.170:558
7.170:526
7.171:496
7.171:468
7.171:444
7.171:422
7.171:386
7.172:355
7.172:345
7.172:356
7.172:381
7.173:411
7.173:438
7.173:462
7.173:483
7.173:506
7.173:544
7.176:565
7.176:570
7.193:565
7.193:550
7.193:524
7.193:497
7.194:466
7.194:441
7.197:418
7.197:383
7.197:361
7.197:361
7.197:370
7.197:384
7.198:412
7.198:436
7.198:463
7.201:482
7.201:500
7.201:541
7.202:567
7.203:566
7.203:550
7.203:527
7.203:502
7.203:473
7.204:441
7.205:417
7.205:394
7.205:356
7.205:339
7.205:339
7.222:339
7.222:357
7.222:383
7.222:417
7.222:450
7.226:475
7.226:492
7.226:513
7.226:551
7.226:567
7.227:569
7.227:558
7.227:548
7.227:527
7.229:503
7.229:486
7.229:466
7.231:436
7.231:394
7.231:372
7.231:369
7.231:380
7.231:402
7.232:432
7.234:461
7.234:490
7.234:513
7.234:541
7.235:578
7.235:591
7.250:587
7.254:570
7.254:549
7.254:519
7.254:495
7.254:471
7.255:446
7.255:420
7.255:383
7.255:364
7.255:364
7.258:378
7.258:403
7.258:432
7.258:461
7.258:484
7.259:506
7.259:537
7.259:578
7.259:599
7.259:601
7.262:585
7.262:558
7.262:528
7.262:495
7.262:466
7.264:440
7.264:415
7.264:377
7.264:356
7.278:356
7.283:344
7.283:356
7.283:377
7.283:403
7.283:423
7.284:441
7.284:459
7.284:489
7.284:532
7.286:555
7.286:559
7.286:553
7.288:536
7.288:504
7.288:470
7.288:447
7.288:428
7.288:407
7.288:373
7.291:355
7.291:352
7.291:357
7.291:369
7.292:398
7.292:426
7.292:442
7.292:449
7.292:469
7.295:503
7.311:514
7.311:516
7.311:507
7.311:498
7.312:480
7.312:463
7.312:444
7.316:434
7.316:421
7.316:394
7.317:384
7.317:389
7.317:411
7.317:428
7.317:445
7.317:473
7.320:495
7.320:519
7.321:558
7.321:594
7.321:607
7.321:604
7.321:582
7.321:557
7.321:531
7.322:509
7.324:478
7.324:456
7.324:423
7.324:376
7.339:376
7.339:351
7.341:353
7.341:367
7.341:388
7.341:418
7.345:443
7.345:473
7.345:492
7.345:512
7.346:542
7.346:540
7.346:525
7.346:488
7.346:470
7.347:460
7.348:438
7.348:425
7.348:428
7.349:406
7.349:373
7.349:357
7.349:365
7.349:389
7.349:417
7.353:444
7.354:468
7.354:491
7.354:514
7.354:554
7.369:602
7.369:612
7.370:604
7.373:582
7.373:552
7.373:526
7.374:497
7.374:473
7.374:456
7.374:416
7.374:377
7.374:358
7.377:357
7.377:366
7.378:399
7.378:427
7.378:444
7.378:448
7.378:461
7.378:498
7.379:540
7.379:556
7.381:553
7.381:548
7.381:525
7.381:494
7.382:465
7.382:448
7.382:441
7.382:421
7.397:421
7.397:408
7.402:408
7.402:412
7.403:425
7.403:435
7.403:436
7.403:436
7.403:429
7.404:434
7.404:470
7.406:507
7.406:517
7.406:508
7.407:492
7.407:472
7.407:459
7.407:464
7.407:472
7.407:446
7.407:394
7.409:348
7.410:336
7.410:345
7.410:368
7.410:408
7.410:442
7.410:478
7.411:498
7.411:519
7.430:562
7.430:601
7.431:604
7.431:593
7.431:573
7.431:538
7.431:507
7.431:471
7.435:451
7.436:426
7.436:383
7.437:355
7.437:366
7.437:389
7.437:419
7.437:455
7.437:483
7.437:506
7.439:521
7.439:531
7.439:564
7.440:582
7.440:582
7.440:583
7.440:574
7.440:541
7.441:495
7.443:457
7.443:426
7.443:402
7.458:402
7.458:364
7.459:327
7.459:312
7.459:329
7.459:365
7.459:403
7.463:444
7.463:464
7.463:486
7.463:524
7.464:578
7.464:604
7.464:608
7.465:587
7.465:554
7.465:516
7.467:478
7.468:428
7.468:398
7.469:365
7.469:326
7.469:306
7.470:305
7.470:316
7.470:358
7.471:400
7.471:449
7.471:503
7.471:537
7.487:566
7.487:608
7.487:638
7.488:635
7.492:606
7.492:569
7.492:535
7.492:501
7.493:463
7.493:425
7.493:385
7.493:333
7.493:297
7.494:282
7.496:291
7.496:328
7.496:371
7.497:409
7.497:457
7.497:511
7.498:555
7.498:615
7.499:665
7.499:688
7.499:681
7.500:656
7.500:623
7.500:593
7.500:561
7.500:542
7.516:542
7.516:513
7.516:460
7.521:425
7.521:405
7.521:409
7.521:436
7.522:481
7.522:523
7.522:551
7.522:576
7.522:601
7.523:640
7.525:663
7.525:663
7.525:647
7.525:627
7.526:613
7.526:581
7.526:554
7.526:538
7.526:514
7.529:463
7.529:426
7.529:412
7.529:416
7.529:427
7.529:458
7.530:487
7.530:508
7.549:535
7.549:572
7.549:624
7.549:655
7.549:655
7.550:635
7.550:619
7.550:582
7.550:538
7.550:503
7.552:478
7.553:456
7.553:410
7.553:372
7.553:348
7.553:352
7.553:368
7.553:386
7.553:410
7.558:434
7.558:459
7.558:485
7.558:529
7.558:561
7.558:580
7.558:581
7.558:565
7.559:536
7.559:506
7.560:473
7.577:473
7.578:446
7.578:416
7.578:379
7.579:361
7.579:363
7.579:378
7.579:399
7.579:422
7.582:443
7.582:471
7.582:495
7.582:519
7.582:550
7.583:566
7.583:568
7.583:545
7.583:520
7.586:490
7.586:459
7.586:433
7.586:414
7.587:384
7.587:351
7.587:343
7.587:353
7.588:377
7.589:402
7.590:440
7.590:474
7.606:496
7.606:513
7.606:543
7.606:584
7.606:589
7.611:575
7.611:554
7.611:523
7.611:500
7.612:482
7.612:465
7.612:454
7.612:430
7.612:395
7.612:384
7.615:379
7.615:394
7.615:414
7.615:442
7.616:473
7.616:493
7.616:509
7.616:540
7.616:582
7.617:591
7.619:595
7.619:575
7.619:542
7.620:506
7.620:481
7.635:481
7.635:465
7.635:455
7.635:424
7.636:388
7.639:383
7.639:393
7.639:416
7.639:451
7.640:489
7.640:535
7.640:572
7.640:595
7.640:631
7.643:670
7.643:691
7.643:701
7.643:707
7.645:692
7.645:656
7.645:614
7.645:583
7.645:560
7.645:518
7.647:478
7.647:467
7.647:476
7.647:498
7.648:530
7.648:562
7.663:584
7.667:598
7.668:609
7.668:631
7.669:656
7.669:675
7.669:690
7.669:699
7.669:707
7.670:715
7.670:730
7.672:760
7.672:794
7.672:787
7.672:776
7.673:786
7.673:809
7.673:838
7.673:847
7.673:833
7.676:805
7.676:766
7.676:720
7.676:688
7.677:644
7.677:574
7.677:501
7.677:433
7.677:367
7.677:306
7.692:306
7.696:260
7.696:231
7.696:211
7.696:182
7.697:165
7.697:168
7.697:184
7.697:213
7.697:252
7.701:291
7.701:330
7.701:374
7.702:419
7.702:478
7.702:537
7.702:567
7.702:578
7.702:568
7.702:552
7.704:531
7.704:507
7.705:491
7.705:466
7.705:420
7.705:383
7.705:377
7.706:386
7.706:406
7.708:431
7.725:457
7.725:485
7.725:507
7.725:531
7.725:571
7.725:600
7.726:608
7.729:598
7.729:580
7.729:554
7.730:528
7.730:508
7.730:489
7.730:465
7.731:428
7.731:404
7.734:398
7.734:405
7.734:425
7.734:452
7.735:479
7.735:504
7.736:523
7.736:547
7.736:592
7.736:617
7.737:621
7.737:620
7.738:611
7.738:582
7.753:582
7.754:561
7.754:535
7.754:502
7.754:475
7.754:436
7.758:412
7.758:411
7.758:418
7.758:440
7.758:470
7.759:493
7.759:518
7.759:551
7.759:573
7.759:612
7.762:634
7.762:634
7.762:624
7.762:609
7.762:587
7.762:560
7.763:534
7.763:513
7.763:490
7.766:453
7.766:430
7.766:429
7.766:438
7.767:454
7.782:480
7.782:509
7.782:533
7.787:551
7.787:577
7.787:621
7.788:646
7.788:654
7.788:648
7.788:630
7.788:600
7.788:573
7.791:546
7.791:519
7.791:499
7.791:460
7.791:433
7.791:429
7.791:440
7.792:461
7.792:492
7.792:516
7.795:538
7.795:562
7.795:591
7.795:632
7.796:640
7.796:631
7.796:628
7.796:615
7.811:615
7.811:591
7.815:567
7.816:544
7.816:524
7.816:483
7.816:433
7.816:416
7.817:415
7.817:441
7.817:465
7.819:494
7.819:520
7.819:531
7.819:546
7.819:589
7.819:635
7.820:661
7.820:671
7.820:657
7.820:637
7.824:602
7.824:571
7.825:548
7.825:535
7.825:513
7.825:479
7.825:462
7.826:459
7.826:458
7.844:474
7.844:518
7.844:550
7.844:574
7.844:597
7.845:628
7.845:668
7.845:687
7.848:700
7.848:692
7.848:675
7.848:649
7.848:619
7.849:595
7.849:568
7.849:539
7.849:511
7.849:491
7.852:489
7.852:509
7.853:528
7.853:552
7.853:577
7.853:586
7.854:602
7.854:627
7.854:669
7.856:695
7.856:704
7.856:699
7.873:699
7.873:683
7.873:658
7.873:636
7.873:618
7.874:602
7.874:578
7.877:544
7.877:532
7.877:537
7.877:551
7.877:573
7.878:599
7.878:623
7.878:645
7.878:666
7.878:700
7.881:744
7.881:762
7.881:757
7.881:742
7.882:726
7.882:704
7.882:677
7.882:655
7.882:635
7.885:604
7.885:569
7.886:557
7.886:563
7.901:584
7.901:608
7.901:635
7.902:658
7.905:684
7.905:712
7.905:749
7.905:787
7.906:802
7.906:799
7.906:783
7.906:764
7.906:735
7.907:709
7.909:688
7.909:671
7.909:640
7.909:604
7.909:589
7.910:591
7.910:605
7.910:624
7.910:643
7.914:666
7.914:684
7.914:702
7.914:739
7.915:773
7.915:782
7.915:774
7.929:774
7.929:754
7.930:731
7.934:699
7.935:671
7.935:650
7.935:627
7.935:586
7.936:546
7.936:529
7.936:528
7.936:540
7.936:559
7.938:579
7.938:601
7.938:616
7.938:625
7.938:653
7.939:682
7.939:687
7.939:676
7.939:649
7.942:612
7.942:575
7.942:546
7.942:521
7.943:492
7.943:448
7.943:406
7.943:388
7.963:379
7.963:386
7.963:400
7.963:420
7.964:440
7.964:453
7.964:465
7.964:494
7.964:521
7.966:522
7.967:508
7.967:480
7.967:452
7.967:419
7.967:390
7.968:366
7.968:345
7.968:307
7.968:270
7.971:255
7.971:254
7.971:263
7.971:279
7.972:299
7.972:321
7.972:337
7.972:350
7.972:382
7.973:414
7.974:417
7.991:417
7.991:405
7.991:385
7.991:359
7.992:329
7.992:301
7.992:279
7.992:257
7.992:217
7.995:186
7.995:177
7.995:184
7.995:203
7.995:229
7.996:249
7.996:274
7.996:299
7.996:320
7.999:359
7.999:388
7.999:399
8.000:396
8.000:376
8.000:351
8.000:320
8.001:293
8.001:270
8.002:253
8.004:220
8.004:199
8.020:201
8.020:215
8.020:242
8.021:275
8.021:299
8.024:322
8.024:339
8.024:359
8.024:399
8.025:427
8.025:427
8.025:415
8.025:397
8.025:371
8.025:346
8.028:324
8.028:310
8.028:296
8.028:270
8.029:251
8.029:247
8.029:261
8.029:283
8.029:310
8.032:340
8.032:365
8.032:383
8.032:402
8.033:443
8.033:467
8.048:467
8.048:473
8.049:468
8.049:454
8.049:435
8.052:414
8.053:391
8.053:373
8.053:351
8.053:309
8.053:280
8.053:273
8.054:287
8.054:309
8.057:341
8.057:372
8.057:399
8.058:423
8.058:448
8.058:492
8.058:520
8.058:526
8.058:511
8.059:489
8.060:455
8.061:427
8.061:402
8.061:383
8.061:360
8.061:321
8.077:303
8.082:301
8.082:314
8.082:337
8.082:368
8.083:396
8.083:421
8.083:441
8.083:468
8.083:509
8.084:532
8.086:539
8.086:530
8.086:512
8.086:485
8.086:458
8.087:433
8.087:412
8.087:387
8.087:347
8.089:322
8.089:313
8.089:322
8.090:343
8.090:369
8.090:392
8.090:416
8.090:438
8.091:468
8.091:512
8.110:512
8.110:534
8.110:534
8.110:516
8.110:489
8.111:459
8.111:427
8.111:399
8.111:379
8.111:353
8.114:314
8.114:296
8.115:297
8.115:313
8.115:335
8.115:365
8.116:391
8.116:416
8.116:439
8.116:466
8.119:512
8.119:535
8.119:536
8.119:520
8.119:496
8.119:470
8.119:445
8.119:421
8.119:399
8.122:373
8.138:338
8.138:321
8.138:318
8.138:335
8.138:359
8.138:394
8.139:424
8.143:447
8.143:469
8.143:501
8.143:540
8.144:561
8.144:561
8.144:543
8.144:526
8.144:496
8.147:465
8.147:437
8.147:418
8.148:387
8.148:350
8.148:331
8.148:328
8.148:344
8.149:367
8.149:395
8.151:419
8.152:439
8.152:459
8.153:493
8.167:493
8.167:533
8.168:552
8.168:554
8.168:537
8.168:514
8.172:481
8.172:452
8.172:427
8.172:405
8.173:372
8.173:332
8.173:315
8.173:316
8.173:331
8.176:351
8.176:381
8.176:403
8.176:423
8.176:442
8.177:474
8.177:511
8.177:528
8.177:528
8.177:512
8.179:489
8.179:460
8.179:432
8.179:407
8.180:391
8.195:365
8.196:336
8.196:327
8.200:332
8.200:350
8.200:369
8.201:389
8.202:405
8.202:417
8.202:433
8.203:465
8.203:498
8.204:508
8.204:504
8.204:485
8.204:458
8.205:429
8.205:403
8.205:379
8.205:358
8.205:323
8.206:283
8.208:269
8.208:274
8.208:294
8.209:322
8.209:356
8.209:387
8.209:412
8.209:434
8.224:434
8.225:471
8.229:512
8.229:529
8.229:529
8.229:514
8.229:491
8.230:468
8.230:444
8.230:424
8.230:405
8.233:376
8.233:346
8.233:339
8.233:343
8.234:363
8.234:388
8.234:416
8.234:445
8.235:467
8.235:490
8.237:530
8.237:566
8.237:580
8.238:576
8.238:554
8.238:532
8.238:511
8.238:483
8.238:461
8.257:444
8.257:408
8.257:380
8.257:372
8.258:379
8.258:398
8.258:422
8.259:452
8.262:479
8.262:500
8.262:519
8.262:558
8.263:593
8.263:603
8.263:597
8.263:576
8.263:551
8.263:521
8.265:490
8.266:466
8.266:447
8.266:413
8.266:381
8.266:372
8.267:377
8.267:394
8.267:419
8.269:444
8.269:468
8.269:488
8.285:488
8.286:508
8.286:546
8.286:577
8.286:584
8.286:577
8.287:560
8.290:529
8.290:501
8.290:475
8.290:455
8.291:434
8.291:394
8.291:362
8.291:352
8.291:357
8.291:374
8.294:398
8.294:428
8.295:453
8.295:472
8.295:495
8.295:536
8.295:565
8.295:574
8.296:565
8.298:546
8.298:518
8.298:491
8.298:464
8.314:444
8.314:424
8.315:386
8.315:357
8.319:353
8.319:365
8.319:383
8.319:409
8.319:435
8.319:460
8.319:481
8.319:506
8.319:545
8.319:578
8.322:591
8.322:581
8.323:560
8.323:531
8.323:502
8.323:477
8.323:457
8.324:434
8.324:395
8.327:369
8.327:364
8.327:374
8.328:397
8.328:427
8.328:455
8.328:478
8.343:478
8.343:497
8.343:521
8.348:563
8.348:588
8.348:592
8.348:582
8.348:561
8.349:530
8.349:501
8.349:471
8.349:448
8.349:423
8.351:384
8.352:361
8.352:359
8.352:374
8.352:395
8.354:422
8.354:449
8.354:475
8.354:495
8.356:517
8.356:559
8.356:582
8.356:588
8.356:580
8.356:558
8.356:526
8.357:498
8.377:473
8.377:451
8.377:426
8.377:389
8.377:371
8.377:373
8.377:388
8.378:407
8.378:431
8.380:455
8.380:480
8.380:501
8.380:532
8.381:575
8.381:596
8.381:597
8.381:582
8.381:561
8.382:533
8.385:505
8.385:478
8.386:458
8.386:434
8.386:394
8.386:372
8.387:367
8.387:384
8.387:406
8.387:434
8.388:455
8.405:455
8.405:477
8.405:497
8.405:526
8.406:567
8.406:587
8.406:590
8.406:575
8.406:554
8.409:525
8.409:496
8.410:468
8.410:448
8.410:425
8.410:398
8.410:390
8.410:397
8.411:413
8.413:432
8.413:452
8.413:466
8.413:477
8.414:483
8.414:499
8.414:522
8.414:527
8.414:522
8.415:506
8.416:488
8.416:472
8.433:457
8.433:444
8.433:436
8.433:417
8.434:384
8.438:367
8.438:365
8.438:380
8.438:399
8.438:422
8.439:446
8.439:467
8.439:485
8.439:517
8.439:557
8.442:575
8.442:577
8.442:564
8.442:539
8.443:509
8.443:481
8.443:456
8.443:434
8.443:404
8.446:369
8.446:353
8.446:352
8.446:369
8.447:392
8.447:417
8.462:417
8.462:440
8.462:462
8.463:481
8.467:516
8.467:556
8.467:573
8.468:577
8.468:561
8.468:537
8.468:508
8.468:480
8.468:458
8.468:438
8.471:408
8.471:367
8.471:352
8.471:361
8.472:380
8.472:403
8.472:434
8.472:462
