0.000:695
0.001:662
0.001:631
0.001:606
0.001:605
0.002:584
0.002:527
0.002:532
0.002:534
0.002:508
0.002:494
0.002:503
0.002:515
0.002:523
0.002:510
0.002:538
0.003:628
0.003:673
0.003:690
0.003:691
0.005:667
0.005:646
0.005:623
0.005:588
0.005:568
0.005:545
0.006:506
0.006:442
0.006:409
0.006:440
0.006:449
0.007:428
0.007:439
0.007:453
0.007:458
0.007:481
0.007:519
0.007:541
0.007:568
0.007:572
0.008:567
0.008:565
0.008:554
0.008:521
0.008:498
0.008:473
0.009:429
0.009:401
0.009:367
0.009:354
0.009:350
0.009:350
0.009:355
0.010:365
0.010:367
0.010:397
0.010:423
0.010:442
0.010:492
0.010:516
0.010:516
0.010:515
0.010:490
0.010:456
0.011:440
0.011:411
0.011:352
0.011:294
0.011:291
0.011:293
0.011:276
0.011:282
0.011:301
0.011:320
0.012:326
0.012:343
0.012:399
0.012:448
0.012:456
0.012:461
0.012:474
0.012:484
0.012:490
0.012:462
0.013:446
0.013:428
0.013:392
0.013:335
0.013:287
0.013:274
0.013:270
0.013:266
0.013:274
0.013:298
0.013:322
0.013:327
0.014:364
0.014:434
0.014:456
0.014:428
0.014:417
0.014:417
0.014:450
0.014:466
0.014:471
0.014:459
0.015:395
0.015:352
0.015:314
0.015:279
0.016:278
0.016:303
0.016:317
0.016:329
0.017:350
0.017:363
0.017:404
0.017:436
0.018:462
0.018:483
0.018:483
0.018:498
0.018:483
0.018:466
0.018:441
0.018:420
0.018:421
0.018:393
0.019:364
0.019:335
0.019:320
0.019:300
0.019:300
0.019:299
0.019:312
0.019:337
0.019:345
0.020:403
0.020:441
0.020:469
0.020:488
0.020:507
0.020:497
0.020:498
0.020:480
0.020:464
0.021:473
0.021:428
0.022:377
0.022:359
0.022:339
0.022:328
0.022:355
0.022:382
0.023:393
0.023:407
0.023:431
0.023:488
0.023:535
0.023:571
0.023:574
0.023:561
0.023:533
0.024:521
0.024:488
0.024:444
0.024:432
0.024:422
0.024:394
0.024:364
0.025:335
0.025:319
0.025:337
0.025:369
0.025:395
0.025:417
0.025:415
0.025:443
0.026:478
0.026:499
0.026:499
0.026:505
0.026:522
0.026:499
0.026:459
0.026:423
0.026:419
0.026:470
0.026:484
0.026:437
0.027:402
0.027:383
0.027:351
0.027:347
0.027:374
0.027:398
0.027:421
0.027:437
0.027:482
0.027:523
0.028:571
0.028:562
0.028:554
0.028:543
0.028:544
0.028:527
0.028:505
0.028:504
0.028:434
0.028:390
0.028:376
0.029:366
0.029:350
0.029:355
0.029:369
0.029:414
0.029:456
0.029:466
0.029:500
0.029:518
0.029:536
0.030:542
0.030:555
0.030:539
0.030:520
0.030:497
0.030:463
0.030:450
0.030:408
0.030:366
0.031:347
0.031:364
0.031:373
0.031:397
0.031:434
0.031:438
0.031:425
0.031:419
0.031:481
0.031:525
0.031:525
0.031:554
0.031:556
0.031:568
0.032:581
0.032:569
0.032:552
0.032:529
0.032:518
0.032:465
0.032:406
0.032:372
0.032:391
0.032:392
0.032:407
0.032:419
0.032:433
0.032:426
0.032:424
0.033:485
0.033:523
0.033:549
0.033:559
0.033:573
0.033:559
0.033:541
0.033:519
0.033:497
0.033:487
0.033:444
0.033:408
0.033:381
0.033:360
0.033:353
0.033:372
0.034:412
0.034:428
0.034:428
0.034:431
0.034:473
0.034:512
0.034:544
0.034:544
0.034:558
0.034:560
0.034:542
0.034:525
0.034:498
0.034:480
0.034:442
0.035:424
0.035:409
0.035:420
0.035:412
0.035:404
0.035:389
0.035:397
0.035:406
0.035:436
0.035:490
0.035:490
0.035:542
0.035:583
0.035:568
0.035:557
0.036:543
0.036:531
0.036:515
0.036:484
0.036:466
0.036:425
0.036:407
0.036:404
0.036:407
0.036:383
0.036:384
0.036:403
0.036:416
0.036:420
0.036:417
0.037:463
0.037:526
0.037:561
0.038:559
0.038:570
0.038:553
0.038:518
0.038:489
0.038:485
0.038:472
0.038:444
0.039:436
0.039:419
0.039:423
0.039:401
0.039:398
0.039:423
0.039:442
0.039:460
0.039:470
0.039:512
0.039:539
0.039:575
0.039:577
0.039:568
0.039:563
0.040:554
0.040:535
0.040:507
0.040:490
0.040:449
0.040:428
0.040:413
0.040:402
0.040:389
0.040:395
0.040:427
0.040:435
0.040:430
0.040:451
0.040:451
0.040:501
0.040:528
0.040:552
0.041:557
0.041:557
0.041:546
0.041:526
0.041:501
0.041:495
0.041:506
0.041:467
0.041:447
0.041:422
0.041:393
0.041:383
0.041:402
0.041:417
0.041:431
0.041:437
0.041:457
0.041:515
0.041:528
0.041:543
0.041:552
0.041:549
0.042:536
0.042:512
0.042:501
0.042:500
0.042:473
0.042:439
0.042:422
0.042:401
0.042:401
0.042:389
0.042:394
0.042:417
0.042:417
0.042:411
0.042:454
0.042:522
0.042:551
0.042:566
0.042:564
0.042:565
0.043:560
0.043:538
0.043:523
0.043:507
0.043:474
0.043:432
0.043:419
0.043:422
0.043:421
0.043:412
0.043:402
0.043:403
0.043:415
0.043:433
0.043:433
0.043:457
0.043:498
0.043:526
0.043:554
0.043:578
0.043:580
0.044:570
0.044:550
0.044:536
0.044:528
0.044:489
0.044:442
0.044:425
0.044:408
0.044:402
0.044:410
0.044:411
0.044:418
0.044:427
0.044:437
0.044:480
0.044:531
0.044:568
0.044:597
0.044:614
0.044:606
0.044:595
0.045:576
0.045:547
0.045:532
0.045:497
0.045:443
0.045:394
0.045:363
0.045:347
0.045:359
0.045:379
0.045:389
0.045:400
0.045:417
0.045:465
0.045:520
0.045:549
0.045:582
0.045:601
0.045:588
0.045:570
0.045:552
0.046:543
0.046:542
0.046:497
0.046:441
0.046:403
0.046:385
0.046:375
0.046:392
0.046:419
0.046:450
0.046:454
0.047:454
0.047:448
0.047:465
0.047:501
0.047:526
0.047:545
0.047:570
0.047:555
0.047:541
0.047:543
0.047:538
0.047:541
0.047:483
0.047:411
0.047:369
0.047:361
0.047:340
0.047:346
0.047:364
0.047:389
0.047:392
0.047:394
0.048:439
0.048:493
0.048:544
0.048:576
0.048:626
0.048:623
0.048:599
0.048:562
0.048:526
0.048:516
0.048:470
0.048:433
0.048:411
0.048:391
0.048:373
0.048:399
0.048:421
0.048:448
0.048:472
0.048:481
0.048:531
0.049:577
0.049:573
0.049:561
0.049:593
0.049:599
0.049:585
0.049:527
0.049:481
0.049:453
0.049:410
0.049:402
0.049:397
0.049:415
0.049:419
0.049:433
0.049:456
0.049:462
0.049:462
0.049:474
0.049:469
0.049:503
0.050:525
0.050:526
0.050:540
0.050:565
0.050:536
0.050:513
0.050:512
0.050:513
0.050:531
0.050:497
0.050:445
0.050:399
0.050:371
0.050:335
0.050:347
0.050:365
0.050:395
0.050:436
0.050:463
0.050:525
0.050:542
0.051:553
0.051:564
0.051:606
0.051:613
0.051:616
0.051:591
0.051:532
0.051:471
0.051:420
0.051:390
0.051:367
0.051:372
0.051:360
0.051:391
0.051:425
0.051:475
0.051:505
0.051:529
0.051:570
0.051:570
0.051:552
0.052:531
0.052:540
0.052:547
0.052:563
0.052:519
0.052:481
0.052:476
0.052:444
0.052:447
0.052:419
0.052:396
0.052:368
0.052:350
0.052:364
0.052:364
0.052:381
0.052:369
0.052:381
0.052:476
0.052:556
0.052:602
0.053:545
0.053:552
0.053:588
0.053:575
0.053:534
0.053:506
0.053:519
0.053:492
0.053:431
0.053:382
0.053:367
0.053:337
0.053:339
0.053:377
0.055:413
0.055:458
0.055:505
0.055:582
0.055:663
0.055:739
0.056:737
0.056:700
0.056:647
0.056:619
0.056:616
0.056:596
0.056:582
0.056:542
0.056:501
0.056:465
0.056:453
0.057:432
0.057:421
0.057:431
0.057:458
0.057:484
0.057:465
0.057:493
0.057:516
0.057:562
0.057:586
0.057:611
0.057:608
0.058:600
0.058:547
0.058:524
0.058:516
0.058:430
0.058:364
0.058:368
0.058:376
0.058:386
0.058:425
0.058:425
0.058:426
0.058:396
0.058:427
0.058:471
0.059:537
0.059:582
0.059:609
0.059:605
0.059:593
0.059:585
0.059:582
0.059:570
0.059:540
0.059:513
0.059:465
0.059:433
0.059:395
0.059:352
0.060:328
0.060:325
0.060:319
0.060:337
0.060:351
0.060:406
0.060:493
0.060:535
0.060:559
0.060:554
0.060:553
0.060:554
0.060:526
0.060:482
0.060:472
0.061:472
0.061:426
0.061:456
0.061:461
0.061:446
0.061:414
0.061:388
0.061:410
0.061:466
0.061:528
0.061:582
0.061:655
0.061:669
0.061:689
0.061:677
0.062:642
0.062:588
0.062:524
0.062:477
0.062:444
0.062:425
0.062:418
0.062:408
0.062:409
0.062:437
0.062:440
0.062:440
0.062:431
0.062:437
0.062:468
0.062:482
0.063:527
0.063:592
0.063:585
0.063:593
0.063:613
0.063:612
0.063:588
0.063:570
0.063:564
0.063:572
0.063:531
0.063:473
0.063:435
0.063:427
0.063:445
0.063:448
0.063:445
0.063:445
0.063:474
0.063:485
0.064:481
0.064:493
0.064:524
0.064:583
0.064:616
0.064:645
0.064:643
0.064:612
0.064:612
0.064:603
0.064:596
0.064:555
0.064:470
0.064:383
0.064:340
0.064:371
0.064:413
0.064:480
0.064:477
0.064:450
0.064:461
0.064:510
0.065:530
0.065:541
0.065:553
0.065:570
0.065:545
0.065:489
0.065:458
0.065:463
0.065:453
0.065:423
0.065:419
0.065:405
0.065:385
0.065:385
0.065:395
0.065:395
0.065:390
0.065:384
0.065:390
0.065:399
0.066:457
0.066:532
0.066:593
0.066:627
0.066:641
0.066:648
0.066:625
0.066:590
0.066:546
0.066:500
0.066:421
0.066:385
0.066:383
0.066:365
0.066:355
0.066:359
0.066:383
0.066:406
0.066:420
0.066:459
0.066:509
0.067:526
0.067:522
0.067:532
0.067:529
0.067:533
0.067:532
0.067:518
0.067:502
0.067:459
0.067:387
0.067:365
0.067:385
0.067:392
0.067:411
0.067:445
0.067:469
0.067:467
0.067:454
0.067:502
0.067:608
0.067:661
0.068:674
0.068:649
0.068:638
0.068:625
0.068:605
0.068:573
0.068:512
0.068:405
0.068:332
0.068:306
0.068:318
0.068:318
0.068:342
0.068:354
0.068:357
0.068:371
0.068:397
0.068:398
0.068:442
0.068:464
0.069:475
0.069:488
0.069:506
0.069:506
0.069:522
0.069:528
0.069:574
0.069:652
0.069:653
0.069:613
0.069:565
0.069:540
0.069:502
0.069:474
0.069:474
0.069:513
0.069:565
0.069:574
0.069:657
0.070:752
0.070:792
0.070:802
0.070:800
0.070:785
0.070:805
0.070:814
0.070:805
0.070:809
0.070:802
0.070:798
0.070:827
0.070:893
0.070:967
0.070:989
0.070:989
0.070:989
0.070:988
0.070:989
0.071:988
0.072:988
0.072:988
0.072:989
0.072:982
0.072:889
0.072:778
0.072:670
0.073:575
0.073:481
0.073:377
0.073:297
0.073:245
0.073:245
0.073:212
0.073:196
0.073:230
0.073:269
0.073:286
0.073:302
0.073:295
0.074:324
0.074:367
0.074:419
0.074:478
0.074:500
0.074:490
0.074:485
0.074:461
0.074:450
0.074:450
0.074:402
0.074:366
0.074:340
0.074:300
0.074:260
0.074:283
0.074:296
0.074:303
0.074:307
0.074:333
0.074:385
0.075:427
0.075:458
0.075:477
0.075:502
0.075:490
0.075:475
0.075:460
0.075:460
0.075:445
0.075:398
0.075:372
0.075:358
0.075:372
0.075:357
0.075:372
0.075:374
0.075:423
0.075:432
0.075:364
0.075:334
0.076:355
0.076:378
0.076:424
0.076:488
0.076:496
0.076:474
0.076:445
0.076:433
0.076:418
0.076:370
0.076:334
0.076:334
0.076:320
0.076:341
0.076:332
0.076:337
0.076:366
0.076:399
0.076:408
0.076:405
0.076:475
0.077:536
0.077:551
0.077:562
0.077:549
0.077:512
0.077:502
0.077:484
0.077:479
0.077:480
0.077:432
0.077:404
0.077:385
0.077:357
0.077:324
0.077:332
0.077:354
0.077:381
0.077:402
0.077:397
0.077:436
0.077:450
0.078:488
0.078:528
0.078:548
0.078:558
0.078:570
0.078:572
0.078:555
0.078:545
0.078:500
0.078:455
0.078:416
0.078:388
0.078:361
0.078:374
0.078:409
0.078:441
0.078:470
0.079:500
0.079:550
0.079:579
0.079:599
0.079:592
0.079:591
0.079:565
0.079:538
0.079:511
0.079:488
0.079:468
0.079:420
0.079:420
0.079:396
0.079:376
0.079:370
0.079:374
0.079:387
0.079:419
0.079:476
0.080:517
0.080:517
0.080:571
0.080:585
0.080:580
0.080:578
0.080:604
0.080:605
0.080:591
0.080:582
0.080:552
0.080:541
0.080:514
0.080:473
0.080:471
0.080:486
0.080:487
0.080:473
0.080:436
0.080:450
0.081:475
0.081:476
0.081:523
0.081:552
0.081:579
0.081:605
0.081:628
0.081:636
0.081:631
0.081:609
0.081:591
0.081:575
0.081:521
0.081:478
0.081:449
0.081:463
0.081:471
0.081:480
0.081:459
0.081:435
0.081:433
0.082:459
0.082:511
0.082:556
0.082:600
0.082:614
0.082:619
0.082:619
0.082:622
0.082:597
0.082:574
0.082:545
0.082:545
0.082:507
0.082:502
0.082:510
0.082:528
0.082:521
0.082:517
0.082:528
0.082:531
0.082:540
0.083:564
0.083:593
0.083:599
0.083:614
0.083:634
0.083:655
0.083:646
0.083:641
0.083:646
0.083:659
0.083:633
0.083:578
0.083:572
0.083:562
0.083:534
0.083:489
0.083:470
0.083:499
0.083:531
0.083:540
0.084:553
0.084:599
0.084:629
0.084:656
0.084:699
0.084:734
0.084:730
0.084:724
0.084:722
0.084:690
0.084:638
0.084:559
0.084:497
0.084:480
0.084:506
0.084:529
0.084:565
0.084:615
0.084:635
0.084:634
0.084:660
0.085:692
0.085:690
0.085:699
0.085:675
0.085:673
0.085:680
0.085:666
0.085:675
0.085:680
0.085:680
0.085:652
0.085:576
0.085:530
0.085:502
0.085:500
0.085:489
0.085:476
0.085:467
0.085:454
0.086:480
0.086:535
0.086:619
0.086:648
0.086:665
0.086:676
0.086:684
0.086:673
0.086:653
0.086:637
0.086:618
0.086:595
0.086:560
0.086:540
0.086:510
0.086:488
0.086:502
0.086:513
0.086:515
0.086:490
0.087:471
0.087:485
0.087:523
0.087:564
0.087:607
0.087:623
0.087:618
0.087:591
0.087:554
0.087:533
0.087:538
0.088:499
0.088:429
0.088:387
0.088:369
0.088:357
0.088:357
0.089:359
0.089:364
0.089:357
0.089:340
0.089:369
0.089:436
0.089:473
0.089:498
0.089:524
0.089:502
0.089:476
0.089:476
0.089:505
0.089:505
0.090:499
0.090:457
0.090:388
0.090:349
0.090:358
0.090:348
0.090:354
0.090:350
0.090:357
0.090:360
0.090:346
0.090:368
0.090:418
0.090:456
0.090:473
0.091:481
0.091:486
0.091:478
0.091:464
0.091:478
0.091:512
0.091:489
0.091:436
0.091:390
0.091:343
0.091:298
0.091:274
0.091:274
0.091:303
0.091:326
0.091:316
0.091:344
0.091:411
0.091:464
0.092:480
0.092:490
0.092:495
0.092:472
0.092:430
0.092:404
0.092:415
0.092:380
0.092:351
0.092:349
0.092:361
0.092:384
0.092:412
0.092:399
0.092:371
0.092:355
0.092:348
0.092:375
0.092:406
0.092:434
0.092:459
0.093:472
0.093:459
0.093:448
0.093:456
0.093:456
0.093:465
0.093:472
0.093:427
0.093:385
0.093:358
0.093:349
0.093:318
0.093:290
0.093:294
0.093:323
0.093:355
0.094:378
0.094:434
0.094:478
0.094:526
0.094:549
0.094:577
0.094:595
0.094:579
0.094:537
0.094:528
0.094:550
0.094:506
0.094:432
0.094:375
0.094:368
0.094:386
0.094:409
0.094:441
0.094:462
0.094:464
0.095:459
0.095:497
0.095:542
0.095:606
0.095:627
0.095:592
0.095:561
0.095:542
0.095:511
0.095:468
0.095:449
0.095:381
0.095:315
0.095:274
0.095:271
0.095:262
0.095:271
0.095:309
0.095:384
0.095:416
0.096:403
0.096:396
0.096:430
0.096:492
0.096:524
0.096:553
0.096:532
0.096:532
0.096:532
0.096:559
0.096:578
0.096:609
0.096:551
0.096:491
0.096:465
0.096:480
0.096:434
0.096:378
0.096:377
0.096:413
0.097:447
0.097:455
0.097:513
0.097:537
0.097:529
0.097:514
0.097:492
0.097:479
0.097:509
0.097:540
0.097:553
0.097:540
0.097:460
0.097:363
0.097:308
0.097:300
0.097:313
0.097:371
0.097:447
0.097:494
0.098:508
0.098:484
0.098:521
0.098:592
0.098:664
0.098:638
0.098:608
0.098:566
0.098:519
0.098:501
0.098:479
0.098:432
0.098:375
0.098:357
0.098:346
0.098:370
0.098:370
0.098:350
0.098:327
0.098:353
0.099:380
0.099:396
0.099:444
0.099:493
0.099:519
0.099:546
0.099:585
0.099:574
0.099:574
0.099:570
0.099:547
0.099:475
0.099:427
0.099:390
0.099:386
0.099:337
0.099:310
0.099:316
0.099:335
0.099:336
0.100:373
0.100:421
0.100:419
0.100:413
0.100:437
0.100:453
0.100:470
0.100:498
0.100:520
0.100:542
0.100:532
0.100:506
0.100:515
0.100:457
0.100:391
0.100:359
0.100:360
0.100:381
0.100:431
0.100:454
0.101:457
0.101:446
0.101:452
0.101:490
0.101:476
0.101:475
0.101:500
0.101:515
0.101:523
0.101:515
0.101:513
0.101:484
0.101:425
0.101:368
0.101:349
0.101:348
0.101:335
0.101:325
0.101:383
0.101:425
0.102:460
0.102:479
0.102:535
0.102:622
0.102:634
0.102:619
0.102:551
0.102:517
0.102:517
0.102:476
0.102:418
0.102:377
0.102:401
0.102:389
0.102:362
0.102:351
0.102:372
0.102:405
0.102:398
0.102:402
0.103:401
0.103:408
0.103:418
0.103:459
0.103:518
0.103:541
0.103:554
0.103:552
0.103:547
0.103:547
0.103:509
0.103:458
0.103:458
0.103:475
0.103:445
0.103:423
0.103:405
0.105:416
0.105:463
0.105:519
0.105:575
0.105:606
0.105:625
0.105:638
0.106:673
0.106:681
0.106:722
0.106:711
0.106:671
0.106:624
0.106:591
0.106:593
0.106:582
0.106:544
0.107:485
0.107:465
0.107:458
0.107:498
0.107:528
0.107:515
0.107:498
0.107:525
0.107:559
0.107:616
0.107:665
0.107:676
0.107:709
0.108:753
0.108:753
0.108:779
0.108:761
0.108:714
0.108:713
0.108:730
0.108:702
0.108:588
0.108:534
0.108:517
0.108:528
0.108:537
0.108:519
0.109:518
0.109:532
0.109:566
0.109:642
0.109:734
0.109:764
0.109:780
0.109:777
0.109:774
0.109:755
0.110:671
0.110:576
0.110:507
0.110:482
0.110:468
0.110:492
0.110:490
0.110:463
0.110:486
0.110:561
0.110:582
0.110:528
0.110:497
0.110:549
0.110:636
0.111:638
0.111:661
0.111:737
0.111:801
0.111:843
0.111:857
0.111:829
0.111:822
0.111:726
0.111:580
0.111:498
0.111:435
0.112:419
0.112:482
0.112:552
0.112:634
0.112:610
0.112:499
0.112:436
0.112:465
0.112:513
0.112:570
0.112:570
0.112:615
0.112:602
0.112:578
0.113:552
0.113:565
0.113:586
0.113:546
0.113:486
0.113:442
0.113:431
0.113:456
0.113:474
0.113:412
0.113:398
0.113:405
0.113:389
0.113:464
0.113:571
0.114:664
0.114:684
0.114:657
0.114:648
0.114:660
0.114:677
0.114:673
0.114:682
0.114:623
0.114:532
0.114:438
0.114:418
0.114:445
0.114:495
0.114:496
0.115:491
0.115:463
0.115:432
0.115:481
0.115:497
0.115:497
0.115:504
0.115:481
0.115:459
0.115:462
0.115:471
0.115:477
0.115:530
0.115:534
0.115:497
0.115:445
0.116:447
0.116:410
0.116:446
0.116:527
0.116:521
0.116:451
0.116:409
0.116:447
0.116:515
0.116:575
0.116:575
0.116:601
0.116:612
0.116:590
0.116:586
0.116:549
0.117:498
0.117:500
0.117:502
0.117:478
0.117:408
0.117:352
0.117:333
0.117:346
0.117:387
0.117:408
0.117:431
0.117:411
0.117:439
0.117:474
0.117:569
0.117:666
0.117:743
0.118:710
0.118:655
0.118:579
0.118:544
0.118:583
0.118:525
0.118:457
0.118:428
0.118:444
0.118:434
0.118:471
0.118:428
0.118:416
0.118:452
0.118:404
0.118:470
0.118:538
0.118:635
0.118:698
0.118:716
0.119:619
0.119:591
0.119:580
0.119:555
0.119:558
0.119:511
0.119:489
0.119:470
0.119:503
0.119:548
0.119:619
0.119:654
0.119:658
0.119:639
0.119:615
0.119:663
0.119:711
0.119:711
0.119:704
0.119:655
0.119:682
0.120:697
0.120:620
0.120:571
0.120:571
0.120:606
0.120:597
0.120:534
0.120:457
0.120:496
0.120:528
0.120:540
0.120:574
0.121:667
0.121:725
0.121:671
0.121:641
0.121:612
0.121:635
0.121:665
0.121:710
0.121:732
0.122:696
0.122:652
0.122:641
0.122:647
0.122:598
0.122:558
0.122:521
0.122:484
0.122:447
0.122:405
0.123:406
0.123:459
0.123:496
0.123:518
0.123:603
0.123:633
0.123:662
0.123:662
0.123:710
0.123:756
0.123:757
0.123:731
0.123:773
0.124:834
0.124:784
0.124:779
0.124:809
0.124:833
0.124:717
0.124:616
0.124:655
0.124:716
0.124:678
0.124:594
0.124:593
0.124:593
0.124:590
0.124:624
0.125:689
0.125:730
0.125:739
0.125:744
0.125:730
0.125:741
0.125:771
0.125:671
0.125:601
0.125:530
0.125:489
0.125:456
0.125:533
0.126:638
0.126:666
0.126:661
0.126:683
0.126:691
0.126:668
0.126:680
0.126:705
0.126:789
0.126:785
0.126:713
0.126:704
0.126:688
0.126:690
0.126:610
0.127:539
0.127:518
0.127:524
0.127:503
0.127:439
0.127:418
0.127:406
0.127:382
0.127:348
0.127:380
0.127:393
0.127:436
0.127:419
0.127:426
0.127:482
0.128:494
0.128:422
0.128:377
0.128:295
0.128:129
0.128:30
0.128:17
0.128:17
0.128:17
0.128:17
0.128:18
0.128:18
0.128:19
0.128:19
0.128:19
0.128:19
0.128:19
0.128:19
0.129:19
0.129:19
0.129:19
0.129:20
0.129:21
0.129:21
0.129:21
0.129:21
0.129:22
0.129:22
0.129:23
0.129:23
0.129:24
0.130:23
0.130:23
0.130:24
0.130:24
0.130:24
0.130:24
0.130:24
0.130:25
0.130:25
0.130:25
0.130:25
0.130:24
0.130:25
0.131:26
0.131:26
0.131:26
0.131:26
0.131:26
0.131:26
0.131:26
0.131:26
0.131:26
0.131:26
0.131:26
0.131:26
0.131:26
0.131:26
0.132:26
0.132:26
0.132:26
0.132:26
0.132:27
0.132:26
0.132:26
0.132:26
0.132:26
0.132:26
0.132:26
0.132:26
0.132:26
0.133:26
0.133:26
0.133:26
0.133:26
0.133:26
0.133:26
0.133:25
0.133:26
0.133:26
0.133:26
0.133:26
0.133:26
0.133:26
0.134:26
0.134:26
0.134:26
0.134:26
0.134:26
0.134:26
0.134:26
0.134:26
0.134:26
0.134:26
0.134:26
0.134:26
0.134:26
0.134:26
0.134:26
0.134:26
0.134:26
0.135:26
0.135:26
0.135:26
0.135:26
0.135:26
0.135:26
0.135:26
0.135:26
0.135:26
0.135:26
0.135:26
0.135:26
0.135:26
0.135:26
0.135:26
0.135:26
0.135:26
0.135:26
0.136:26
0.136:26
0.136:26
0.136:26
0.136:26
0.136:26
0.136:26
0.136:26
0.136:26
0.136:26
0.136:26
0.136:26
0.136:26
0.136:26
0.136:26
0.136:26
0.136:26
0.137:26
0.137:26
0.137:26
0.137:26
0.137:26
0.137:26
0.138:25
0.138:26
0.138:26
0.138:26
0.138:26
0.138:26
0.138:26
0.138:26
0.139:26
0.139:26
0.139:26
0.139:26
0.139:26
0.139:26
0.139:26
0.139:26
0.139:26
0.139:26
0.139:26
0.140:26
0.140:26
0.140:26
0.140:26
0.140:26
0.140:26
0.140:27
0.140:26
0.140:26
0.140:26
0.140:26
0.140:26
0.140:26
0.140:26
0.140:26
0.140:26
0.141:26
0.141:26
0.141:26
0.141:26
0.141:26
0.141:26
0.141:26
0.141:26
0.142:26
0.142:26
0.142:26
0.142:26
0.142:26
0.142:26
0.142:26
0.142:26
0.142:26
0.142:26
0.142:26
0.142:26
0.142:26
0.143:26
0.143:26
0.143:26
0.143:26
0.143:26
0.143:26
0.143:26
0.143:26
0.143:26
0.143:26
0.143:26
0.143:26
0.143:26
0.144:26
0.144:26
0.144:26
0.144:26
0.144:26
0.144:26
0.144:26
0.144:26
0.144:26
0.144:26
0.144:26
0.144:26
0.144:26
0.144:26
0.145:26
0.145:26
0.145:26
0.145:26
0.145:26
0.145:26
0.145:26
0.145:26
0.145:26
0.145:26
0.145:26
0.145:26
0.145:26
0.146:26
0.146:26
0.146:26
0.146:26
0.146:26
0.146:26
0.146:26
0.146:26
0.146:26
0.146:26
0.146:26
0.146:26
0.146:26
0.146:26
0.146:26
0.146:26
0.147:26
0.147:26
0.147:26
0.147:26
0.147:27
0.147:26
0.147:26
0.147:26
0.147:26
0.147:26
0.147:26
0.147:26
0.147:26
0.147:26
0.147:26
0.147:26
0.147:26
0.148:26
0.148:26
0.148:26
0.148:26
0.148:26
0.148:26
0.148:26
0.148:26
0.148:26
0.148:26
0.148:26
0.148:26
0.148:26
0.148:26
0.148:26
0.148:26
0.148:26
0.148:26
0.149:26
0.149:26
0.149:26
0.149:26
0.149:26
0.149:26
0.149:26
0.149:26
0.149:26
0.149:26
0.149:26
0.149:26
0.149:26
0.149:26
0.149:26
0.149:26
0.149:26
0.149:26
0.149:26
0.149:26
0.149:26
0.150:26
0.150:26
0.150:26
0.150:26
0.150:26
0.150:26
0.150:26
0.150:26
0.150:26
0.150:26
0.150:26
0.150:26
0.150:26
0.150:26
0.150:26
0.150:26
0.150:26
0.150:26
0.150:26
0.150:26
0.150:26
0.150:26
0.150:26
0.151:26
0.151:26
0.151:26
0.151:26
0.151:26
0.151:26
0.151:26
0.151:26
0.151:26
0.151:26
0.151:26
0.151:26
0.151:26
0.151:26
0.151:27
0.151:26
0.151:26
0.151:26
0.151:26
0.151:26
0.151:26
0.151:26
0.151:26
0.151:26
0.152:26
0.152:26
0.152:26
0.152:26
0.152:26
0.152:26
0.152:26
0.152:26
0.152:26
0.152:26
0.152:26
0.152:26
0.152:26
0.152:26
0.152:26
0.152:26
0.152:26
0.152:26
0.152:26
0.152:26
0.152:25
0.152:25
0.152:23
0.152:23
0.152:23
0.153:23
0.153:24
0.153:25
0.153:25
0.153:24
0.153:24
0.153:24
0.153:25
0.153:25
0.153:25
0.153:26
0.153:26
0.153:25
0.153:24
0.153:24
0.153:25
0.153:25
0.153:25
0.153:24
0.153:24
0.154:23
0.154:22
0.154:21
0.154:20
0.154:20
0.154:20
0.154:20
0.155:21
0.155:23
0.155:24
0.155:25
0.155:25
0.155:24
0.155:24
0.155:24
0.155:24
0.155:24
0.155:23
0.155:21
0.155:21
0.156:21
0.156:22
0.156:21
0.156:20
0.156:19
0.156:20
0.156:21
0.156:21
0.156:21
0.156:21
0.156:21
0.156:22
0.157:22
0.157:22
0.157:22
0.157:20
0.157:21
0.157:21
0.157:20
0.157:19
0.157:19
0.158:19
0.158:19
0.158:19
0.158:19
0.158:19
0.158:19
0.158:20
0.158:20
0.158:20
0.158:20
0.158:20
0.158:20
0.158:20
0.158:20
0.158:20
0.158:19
0.158:19
0.158:19
0.158:19
0.158:18
0.158:17
0.158:19
0.158:20
0.159:20
0.159:20
0.159:19
0.159:20
0.159:20
0.159:20
0.159:20
0.159:19
0.159:19
0.159:19
0.159:19
0.159:19
0.159:20
0.159:20
0.159:19
0.159:18
0.159:18
0.159:17
0.159:31
0.159:37
0.159:17
0.159:18
0.159:18
0.159:19
0.159:20
0.160:20
0.160:19
0.160:18
0.160:18
0.160:18
0.160:18
0.160:18
0.160:17
0.160:63
0.160:26
0.160:16
0.160:18
0.160:18
0.160:17
0.160:17
0.160:17
0.160:17
0.160:17
0.160:17
0.160:18
0.160:18
0.160:17
0.160:17
0.160:17
0.160:18
0.161:19
0.161:19
0.161:19
0.161:18
0.161:18
0.161:17
0.161:32
0.161:59
0.161:131
0.161:233
0.161:244
0.161:156
0.161:20
0.161:17
0.161:18
0.161:18
0.161:17
0.161:17
0.161:104
0.161:97
0.161:17
0.161:18
0.161:17
0.161:17
0.162:87
0.162:33
0.162:19
0.162:69
0.162:140
0.162:293
0.162:267
0.162:125
0.162:17
0.162:17
0.162:17
0.162:17
0.162:18
0.162:18
0.162:18
0.162:17
0.162:40
0.162:19
0.162:21
0.162:36
0.162:18
0.162:17
0.162:17
0.162:149
0.163:491
0.163:558
0.163:489
0.163:328
0.163:263
0.163:159
0.163:54
0.163:133
0.163:219
0.163:265
0.163:87
0.163:17
0.163:18
0.163:18
0.163:18
0.163:18
0.163:17
0.163:286
0.163:453
0.163:401
0.163:242
0.163:158
0.164:156
0.164:115
0.164:178
0.164:205
0.164:181
0.164:117
0.164:121
0.164:231
0.164:392
0.164:400
0.164:299
0.164:145
0.164:50
0.164:134
0.164:281
0.164:298
0.164:315
0.164:431
0.164:422
0.164:275
0.164:416
0.165:523
0.165:493
0.165:321
0.165:166
0.165:163
0.165:80
0.165:121
0.165:121
0.165:73
0.165:62
0.165:56
0.165:85
0.165:257
0.165:344
0.165:313
0.165:333
0.165:397
0.165:507
0.165:577
0.165:725
0.165:832
0.166:766
0.166:471
0.166:236
0.166:156
0.166:149
0.166:199
0.166:231
0.166:228
0.166:179
0.166:142
0.166:176
0.166:194
0.166:162
0.166:227
0.166:262
0.166:382
0.166:432
0.166:365
0.166:282
0.166:412
0.166:532
0.167:473
0.167:404
0.167:397
0.167:399
0.167:292
0.167:327
0.167:459
0.167:471
0.167:395
0.167:283
0.167:292
0.167:327
0.167:323
0.167:490
0.167:623
0.167:592
0.167:496
0.167:412
0.167:489
0.167:624
0.167:695
0.167:651
0.168:515
0.168:464
0.168:329
0.168:329
0.168:233
0.168:159
0.168:71
0.168:62
0.168:238
0.168:483
0.168:658
0.168:697
0.168:603
0.168:637
0.168:697
0.168:920
0.168:990
0.168:851
0.168:630
0.168:534
0.168:491
0.169:487
0.169:343
0.169:166
0.169:166
0.169:142
0.169:208
0.169:400
0.169:515
0.169:612
0.169:647
0.169:609
0.169:657
0.170:597
0.170:629
0.170:754
0.170:659
0.170:557
0.170:485
0.170:466
0.171:408
0.171:349
0.171:254
0.171:241
0.171:344
0.171:393
0.171:402
0.172:500
0.172:560
0.172:534
0.172:510
0.172:600
0.172:716
0.172:757
0.172:884
0.172:949
0.173:898
0.173:757
0.173:652
0.173:576
0.173:475
0.173:425
0.173:360
0.173:360
0.174:287
0.174:381
0.174:434
0.174:412
0.174:394
0.174:402
0.174:402
0.174:405
0.174:460
0.174:590
0.174:789
0.174:894
0.174:990
0.174:984
0.174:948
0.174:863
0.174:735
0.174:555
0.174:471
0.174:528
0.174:539
0.175:601
0.175:734
0.175:719
0.175:651
0.175:635
0.175:625
0.175:522
0.175:478
0.175:487
0.175:615
0.175:768
0.175:834
0.175:870
0.175:844
0.175:762
0.175:651
0.175:659
0.175:621
0.175:558
0.175:495
0.176:438
0.176:360
0.176:345
0.176:462
0.176:609
0.176:711
0.176:676
0.176:716
0.176:819
0.176:897
0.176:916
0.176:909
0.176:922
0.176:892
0.176:848
0.176:775
0.176:750
0.176:747
0.176:465
0.176:477
0.176:474
0.177:475
0.177:473
0.177:489
0.177:492
0.177:490
0.177:457
0.177:411
0.177:373
0.177:381
0.177:383
0.177:384
0.177:382
0.177:366
0.177:399
0.177:415
0.177:446
0.177:459
0.177:488
0.177:495
0.177:492
0.178:493
0.178:3
0.178:435
0.178:465
0.178:477
0.178:474
0.178:475
0.178:473
0.178:489
0.178:492
0.178:490
0.178:457
0.178:411
0.178:373
0.178:381
0.178:383
0.178:384
0.178:382
0.178:366
0.178:399
0.178:415
0.178:446
0.179:459
0.179:488
0.179:495
0.179:492
0.179:493
0.179:489
0.179:499
0.179:500
0.179:483
0.179:444
0.179:424
0.179:406
0.179:397
0.179:395
0.179:405
0.179:396
0.179:365
0.179:398
0.179:432
0.179:458
0.180:484
0.180:534
0.180:544
0.180:526
0.180:511
0.180:497
0.180:509
0.180:498
0.180:477
0.180:454
0.180:444
0.180:426
0.180:419
0.180:416
0.180:421
0.180:421
0.180:414
0.180:409
0.180:440
0.180:451
0.180:471
0.181:483
0.181:501
0.181:502
0.181:510
0.181:505
0.181:492
0.181:503
0.181:500
0.181:514
0.181:506
0.181:479
0.181:451
0.181:448
0.181:436
0.181:420
0.181:414
0.181:410
0.181:452
0.181:491
0.182:513
0.182:521
0.182:536
0.182:544
0.182:539
0.182:526
0.182:525
0.182:533
0.182:526
0.182:509
0.182:476
0.182:453
0.182:425
0.182:413
0.182:426
0.182:446
0.182:450
0.182:437
0.182:461
0.182:475
0.182:499
0.183:509
0.183:510
0.183:505
0.183:504
0.183:495
0.183:491
0.183:546
0.183:554
0.183:535
0.183:497
0.183:485
0.183:472
0.183:472
0.183:478
0.183:478
0.183:467
0.183:453
0.183:446
0.183:468
0.183:482
0.183:510
0.184:537
0.184:563
0.184:568
0.184:555
0.184:547
0.184:558
0.184:574
0.184:567
0.184:555
0.184:514
0.184:494
0.184:461
0.184:466
0.184:484
0.184:480
0.184:470
0.184:465
0.184:482
0.184:496
0.184:528
0.185:547
0.185:573
0.185:587
0.198:593
0.198:596
0.198:604
0.198:602
0.198:583
0.198:562
0.198:538
0.203:523
0.203:503
0.203:486
0.203:489
0.203:490
0.203:474
0.203:466
0.203:495
0.203:508
0.207:534
0.207:548
0.207:562
0.207:603
0.207:616
0.207:606
0.207:596
0.208:608
0.208:591
0.208:564
0.211:536
0.211:528
0.211:516
0.211:507
0.227:507
0.227:517
0.227:516
0.227:502
0.227:496
0.227:529
0.231:556
0.231:576
0.231:581
0.231:598
0.231:611
0.231:608
0.231:610
0.231:639
0.231:638
0.235:595
0.235:564
0.235:550
0.235:538
0.235:544
0.235:533
0.235:518
0.235:504
0.235:500
0.235:499
0.239:511
0.240:522
0.240:553
0.240:582
0.240:600
0.255:608
0.255:600
0.256:604
0.260:610
0.260:605
0.260:582
0.260:567
0.260:514
0.260:473
0.260:483
0.260:502
0.260:511
0.264:505
0.264:486
0.264:479
0.264:498
0.264:509
0.264:537
0.264:554
0.264:567
0.264:574
0.264:560
0.268:543
0.268:548
0.268:552
0.268:525
0.268:497
0.268:473
0.268:459
0.268:444
0.283:444
0.284:414
0.288:406
0.289:408
0.289:406
0.289:398
0.289:410
0.289:423
0.289:435
0.289:447
0.289:451
0.293:458
0.293:460
0.293:462
0.293:469
0.293:490
0.293:451
0.293:403
0.293:399
0.293:387
0.293:376
0.297:376
0.297:373
0.297:366
0.297:336
0.297:340
0.297:367
0.297:377
0.297:384
0.298:408
0.317:424
0.317:434
0.317:435
0.317:417
0.317:416
0.317:406
0.318:377
0.318:355
0.321:326
0.321:299
0.321:299
0.321:305
0.321:327
0.321:346
0.321:339
0.321:343
0.321:366
0.323:391
0.325:409
0.325:430
0.326:442
0.326:446
0.326:437
0.326:421
0.326:439
0.326:441
0.326:418
0.329:395
0.329:371
0.329:340
0.345:340
0.346:323
0.346:321
0.346:336
0.346:334
0.346:304
0.346:317
0.350:356
0.350:373
0.350:388
0.350:415
0.350:430
0.350:442
0.350:437
0.350:432
0.351:436
0.351:449
0.354:446
0.354:422
0.354:392
0.354:378
0.354:370
0.354:368
0.355:365
0.355:345
0.355:320
0.357:317
0.357:341
0.357:372
0.357:390
0.374:417
0.374:447
0.374:466
0.374:464
0.379:455
0.379:453
0.379:440
0.379:429
0.379:429
0.379:426
0.379:400
0.379:387
0.379:369
0.379:350
0.383:360
0.383:348
0.383:373
0.383:408
0.383:422
0.383:429
0.383:453
0.383:472
0.383:484
0.387:476
0.388:467
0.388:485
0.388:479
0.388:454
0.388:423
0.388:401
0.402:401
0.402:381
0.402:365
0.407:376
0.407:390
0.407:401
0.407:374
0.407:376
0.407:395
0.407:436
0.407:454
0.407:469
0.407:470
0.411:471
0.411:459
0.411:475
0.411:504
0.411:515
0.411:491
0.411:454
0.411:425
0.411:388
0.416:373
0.416:380
0.416:398
0.416:396
0.416:357
0.416:370
0.416:403
0.416:435
0.436:456
0.436:479
0.436:473
0.436:483
0.436:489
0.436:485
0.436:508
0.436:503
0.436:480
0.439:450
0.440:424
0.440:402
0.440:401
0.440:398
0.440:408
0.440:424
0.440:408
0.440:409
0.440:437
0.444:435
0.444:446
0.444:478
0.445:484
0.445:480
0.445:479
0.445:478
0.445:495
0.445:486
0.445:484
0.448:464
0.464:464
0.464:443
0.464:434
0.464:425
0.464:417
0.464:425
0.464:438
0.464:406
0.464:400
0.469:428
0.469:448
0.469:451
0.469:478
0.469:481
0.469:494
0.469:502
0.469:494
0.469:515
0.472:520
0.472:503
0.472:454
0.472:435
0.473:414
0.473:407
0.473:402
0.473:408
0.473:431
0.473:407
0.476:401
0.476:425
0.493:439
0.493:451
0.493:488
0.493:495
0.493:504
0.497:500
0.497:505
0.497:534
0.497:523
0.497:476
0.497:442
0.497:431
0.497:412
0.497:401
0.497:393
0.502:394
0.502:402
0.502:390
0.502:411
0.502:441
0.502:469
0.502:490
0.502:517
0.502:522
0.505:529
0.505:524
0.506:513
0.506:533
0.506:520
0.506:487
0.522:487
0.522:460
0.522:428
0.522:409
0.526:414
0.526:403
0.526:392
0.526:384
0.526:386
0.526:407
0.527:419
0.527:447
0.527:470
0.527:510
0.530:524
0.530:534
0.530:538
0.530:532
0.530:530
0.530:512
0.530:502
0.530:473
0.530:439
0.534:419
0.534:424
0.534:404
0.534:409
0.534:428
0.534:416
0.534:430
0.550:445
0.554:447
0.555:471
0.555:503
0.555:515
0.555:514
0.555:502
0.555:502
0.555:534
0.556:518
0.556:492
0.558:476
0.558:453
0.558:430
0.559:427
0.559:427
0.559:425
0.559:418
0.559:391
0.559:412
0.563:426
0.563:448
0.563:472
0.563:493
0.563:495
0.563:505
0.563:509
0.563:508
0.563:526
0.563:513
0.583:513
0.583:494
0.583:476
0.583:463
0.583:432
0.583:417
0.583:414
0.584:419
0.584:420
0.584:402
0.587:425
0.588:443
0.588:485
0.588:508
0.588:513
0.589:491
0.589:487
0.589:508
0.589:508
0.592:511
0.592:489
0.592:479
0.592:460
0.592:437
0.592:403
0.592:398
0.592:413
0.592:431
0.592:427
0.595:408
0.611:430
0.611:443
0.611:468
0.611:488
0.611:502
0.612:498
0.612:501
0.616:512
0.616:526
0.616:558
0.616:538
0.616:523
0.616:496
0.616:480
0.616:456
0.616:443
0.621:436
0.622:420
0.622:412
0.622:394
0.622:421
0.622:437
0.622:441
0.622:475
0.622:510
0.622:524
0.623:536
0.623:532
0.624:506
0.624:512
0.640:512
0.640:509
0.640:495
0.641:474
0.641:469
0.641:443
0.645:410
0.645:418
0.645:417
0.645:398
0.645:373
0.645:397
0.645:410
0.646:441
0.646:475
0.649:509
0.649:536
0.649:545
0.649:539
0.649:522
0.649:514
0.649:493
0.649:476
0.649:461
0.649:458
0.653:425
0.653:410
0.653:407
0.653:423
0.654:437
0.668:426
0.668:441
0.668:444
0.673:470
0.673:499
0.674:528
0.674:521
0.674:504
0.674:512
0.674:530
0.674:542
0.674:517
0.677:508
0.677:482
0.677:453
0.677:423
0.677:425
0.677:443
0.677:441
0.678:421
0.678:415
0.678:442
0.681:464
0.681:477
0.681:477
0.681:499
0.681:509
0.681:495
0.681:491
0.681:497
0.698:497
0.698:508
0.702:496
0.702:493
0.702:482
0.702:469
0.702:443
0.702:434
0.702:439
0.702:444
0.702:429
0.706:413
0.706:439
0.706:441
0.706:451
0.706:467
0.706:497
0.706:503
0.706:495
0.706:491
0.706:510
0.710:538
0.710:513
0.710:491
0.710:465
0.710:450
0.710:438
0.710:422
0.710:424
0.710:418
0.730:412
0.730:402
0.730:419
0.730:436
0.730:478
0.730:492
0.730:511
0.730:519
0.734:512
0.734:499
0.734:502
0.734:536
0.734:540
0.734:525
0.734:486
0.734:454
0.734:419
0.734:399
0.739:416
0.739:424
0.739:413
0.740:412
0.740:437
0.740:447
0.740:468
0.740:489
0.740:512
0.742:528
0.742:542
0.742:544
0.759:544
0.759:541
0.759:545
0.759:525
0.759:514
0.759:484
0.759:456
0.762:436
0.763:428
0.763:427
0.763:420
0.763:384
0.763:367
0.763:421
0.763:450
0.763:477
0.763:509
0.767:515
0.768:511
0.768:520
0.768:519
0.768:530
0.768:543
0.768:516
0.768:485
0.768:451
0.771:414
0.772:388
0.772:377
0.772:400
0.788:425
0.788:421
0.788:426
0.788:456
0.792:466
0.792:492
0.792:520
0.792:531
0.792:535
0.792:539
0.792:541
0.793:544
0.793:537
0.795:507
0.795:495
0.795:476
0.796:460
0.796:442
0.796:431
0.796:427
0.796:415
0.796:411
0.796:409
0.799:436
0.799:451
0.799:460
0.800:479
0.800:504
0.800:514
0.800:509
0.816:509
0.816:512
0.816:527
0.820:539
0.820:519
0.820:491
0.820:463
0.820:446
0.821:419
0.821:419
0.821:426
0.821:425
0.821:423
0.825:419
0.825:425
0.825:444
0.825:474
0.825:500
0.825:508
0.825:511
0.825:514
0.825:517
0.828:517
0.828:503
0.828:490
0.828:485
0.828:463
0.828:443
0.828:441
0.828:435
0.849:428
0.849:431
0.849:419
0.849:409
0.850:422
0.850:448
0.850:486
0.850:506
0.850:506
0.853:524
0.853:527
0.853:533
0.853:552
0.853:564
0.853:513
0.853:478
0.853:466
0.853:464
0.854:457
0.857:439
0.857:448
0.857:432
0.857:395
0.857:386
0.857:419
0.857:444
0.857:470
0.858:507
0.861:517
0.861:531
0.878:531
0.878:517
0.878:515
0.878:533
0.878:538
0.878:510
0.878:489
0.878:468
0.882:446
0.882:430
0.882:423
0.882:434
0.882:422
0.882:396
0.882:404
0.882:430
0.882:460
0.882:487
0.885:516
0.885:525
0.885:507
0.885:498
0.887:509
0.887:540
0.887:548
0.887:518
0.887:489
0.887:471
0.890:458
0.890:441
0.906:435
0.906:439
0.906:437
0.906:417
0.906:418
0.911:456
0.911:477
0.911:489
0.911:513
0.911:520
0.911:515
0.911:514
0.911:515
0.911:519
0.911:518
0.915:495
0.915:453
0.915:432
0.915:443
0.915:445
0.915:450
0.915:461
0.915:446
0.915:431
0.918:438
0.919:474
0.919:515
0.919:531
0.919:554
0.919:554
0.934:554
0.935:553
0.935:534
0.935:523
0.939:547
0.939:547
0.939:525
0.940:499
0.940:478
0.940:464
0.940:459
0.940:452
0.940:467
0.940:476
0.943:462
0.943:465
0.943:477
0.943:489
0.943:484
0.943:492
0.944:506
0.944:527
0.944:542
0.947:549
0.947:585
0.947:591
0.947:547
0.947:503
0.947:474
0.948:461
0.963:476
0.968:488
0.968:488
0.968:474
0.968:436
0.968:444
0.968:463
0.968:472
0.968:479
0.968:494
0.969:515
0.972:529
0.973:516
0.973:500
0.973:512
0.973:510
0.973:486
0.973:467
0.973:455
0.973:436
0.976:424
0.976:422
0.976:426
0.976:425
0.976:401
0.976:380
0.976:396
0.976:449
0.976:473
0.976:486
0.996:486
0.996:484
0.996:493
0.996:488
0.996:469
0.996:486
0.996:488
0.996:462
0.996:450
0.996:441
1.000:435
1.000:438
1.000:421
1.000:406
1.001:405
1.001:389
1.001:401
1.001:413
1.001:433
1.005:440
1.005:455
1.005:479
1.005:495
1.005:486
1.006:470
1.006:482
1.006:475
1.006:468
1.006:469
1.009:476
1.025:451
1.025:428
1.025:422
1.025:414
1.025:400
1.025:384
1.025:396
1.030:429
1.030:480
1.030:511
1.030:534
1.030:541
1.030:539
1.030:532
1.030:526
1.030:536
1.033:521
1.033:492
1.033:468
1.033:456
1.033:446
1.033:426
1.033:429
1.033:445
1.034:424
1.034:412
1.037:440
1.037:446
1.037:475
1.037:493
1.054:493
1.054:519
1.054:536
1.054:550
1.054:551
1.055:529
1.058:536
1.058:521
1.058:501
1.058:489
1.058:480
1.058:458
1.058:454
1.058:489
1.058:528
1.062:541
1.062:513
1.062:510
1.062:554
1.062:618
1.062:661
1.062:700
1.062:701
1.062:705
1.063:725
1.066:737
1.066:782
1.066:806
1.066:803
1.067:800
1.083:824
1.083:838
1.086:852
1.086:872
1.086:913
1.086:947
1.087:953
1.087:976
1.087:990
1.087:990
1.087:989
1.087:989
1.091:990
1.091:952
1.091:887
1.091:802
1.091:723
1.091:615
1.091:511
1.091:431
1.091:385
1.091:333
1.095:296
1.095:260
1.095:236
1.095:247
1.095:248
1.095:260
1.095:286
1.095:299
1.111:299
1.111:311
1.115:340
1.115:356
1.115:399
1.115:432
1.115:443
1.115:465
1.115:452
1.115:430
1.115:415
1.120:399
1.120:378
1.120:390
1.120:383
1.120:382
1.120:375
1.120:346
1.120:359
1.120:369
1.120:386
1.123:407
1.123:458
1.123:486
1.123:473
1.123:456
1.123:439
1.124:471
1.124:467
1.124:439
1.144:415
1.144:417
1.144:398
1.144:375
1.144:359
1.144:363
1.144:371
1.144:354
1.148:372
1.148:393
1.148:427
1.148:449
1.148:487
1.148:497
1.148:507
1.148:507
1.148:486
1.153:489
1.153:458
1.154:444
1.154:435
1.154:438
1.154:422
1.154:403
1.154:383
1.155:393
1.155:409
1.156:392
1.156:410
1.156:414
1.172:414
1.173:424
1.173:440
1.173:473
1.173:495
1.173:514
1.173:516
1.177:506
1.177:514
1.177:490
1.177:480
1.177:453
1.177:433
1.177:423
1.177:444
1.177:460
1.177:446
1.180:426
1.181:400
1.181:422
1.181:450
1.181:471
1.181:476
1.181:496
1.181:513
1.181:522
1.185:527
1.185:535
1.185:546
1.185:528
1.201:505
1.201:480
1.201:461
1.201:441
1.205:436
1.205:425
1.205:415
1.205:412
1.205:411
1.205:438
1.205:458
1.205:482
1.205:491
1.210:487
1.210:488
1.210:515
1.210:535
1.210:542
1.210:568
1.210:547
1.210:503
1.210:466
1.210:461
1.214:439
1.214:434
1.214:443
1.214:433
1.214:433
1.214:428
1.214:438
1.229:438
1.230:452
1.230:482
1.234:501
1.234:516
1.234:507
1.234:522
1.234:547
1.234:556
1.234:554
1.234:526
1.234:518
1.234:489
1.239:471
1.239:446
1.239:445
1.239:460
1.239:464
1.239:468
1.239:461
1.239:485
1.239:504
1.243:521
1.243:532
1.243:562
1.243:576
1.243:569
1.243:567
1.243:558
1.243:554
1.263:538
1.263:525
1.263:501
1.263:478
1.263:450
1.263:458
1.263:468
1.263:467
1.263:460
1.267:443
1.267:463
1.267:482
1.267:507
1.267:522
1.267:553
1.267:562
1.267:564
1.267:559
1.267:580
1.271:615
1.271:593
1.271:558
1.272:526
1.272:483
1.272:462
1.272:475
1.272:474
1.272:477
1.275:495
1.275:500
1.292:500
1.292:526
1.292:542
1.292:568
1.292:592
1.292:600
1.292:580
1.292:582
1.295:597
1.295:600
1.295:611
1.295:605
1.295:575
1.295:550
1.295:539
1.295:512
1.295:498
1.295:491
1.300:487
1.300:482
1.300:493
1.300:543
1.300:566
1.300:588
1.300:614
1.300:630
1.301:633
1.304:611
1.304:589
1.304:608
1.320:621
1.320:601
1.320:591
1.320:583
1.320:575
1.324:540
1.325:519
1.325:513
1.325:494
1.325:506
1.325:513
1.325:531
1.325:542
1.325:562
1.325:574
1.328:598
1.328:617
1.328:633
1.328:629
1.328:624
1.328:608
1.328:568
1.328:557
1.328:542
1.332:528
1.332:520
1.332:522
1.332:533
1.332:543
1.332:535
1.348:535
1.348:524
1.349:533
1.349:531
1.353:546
1.353:559
1.354:570
1.354:568
1.354:562
1.354:563
1.354:580
1.354:589
1.354:546
1.354:511
1.357:485
1.357:474
1.357:464
1.357:461
1.357:460
1.357:458
1.357:435
1.357:413
1.357:444
1.361:473
1.361:493
1.361:497
1.361:509
1.361:513
1.361:500
1.361:493
1.377:502
1.382:501
1.382:465
1.382:439
1.382:409
1.382:382
1.382:358
1.382:349
1.382:335
1.382:325
1.382:317
1.386:316
1.386:347
1.386:377
1.386:390
1.387:390
1.387:405
1.387:418
1.387:420
1.387:425
1.390:434
1.390:445
1.390:411
1.390:376
1.390:350
1.390:314
1.390:295
1.390:295
1.390:288
1.390:279
1.411:279
1.411:281
1.411:284
1.411:305
1.411:332
1.411:358
1.411:392
1.411:409
1.411:431
1.411:433
1.414:428
1.414:449
1.414:452
1.414:409
1.414:371
1.414:343
1.414:306
1.414:282
1.414:282
1.419:312
1.419:330
1.419:318
1.419:323
1.419:358
1.420:385
1.420:406
1.420:436
1.420:444
1.420:431
1.422:431
1.439:446
1.439:463
1.439:463
1.439:442
1.439:420
1.439:388
1.439:369
1.443:362
1.443:361
1.443:364
1.443:363
1.443:349
1.443:338
1.443:342
1.443:373
1.443:399
1.447:411
1.447:430
1.447:446
1.447:441
1.447:437
1.447:448
1.447:450
1.447:431
1.447:427
1.447:420
1.450:393
1.450:370
1.450:348
1.451:355
1.467:355
1.467:365
1.467:355
1.467:362
1.467:383
1.467:404
1.471:418
1.471:440
1.472:450
1.472:454
1.472:445
1.472:440
1.472:443
1.472:455
1.472:442
1.476:429
1.476:410
1.476:392
1.476:381
1.476:365
1.476:368
1.476:376
1.476:370
1.476:373
1.476:399
1.480:425
1.480:420
1.480:433
1.480:450
1.480:469
1.496:480
1.496:486
1.501:504
1.501:502
1.501:487
1.501:455
1.501:419
1.501:383
1.501:364
1.501:351
1.501:373
1.501:389
1.504:377
1.504:381
1.504:405
1.504:435
1.504:460
1.504:489
1.504:489
1.506:497
1.506:502
1.506:502
1.508:515
1.508:505
1.508:486
1.508:454
1.508:427
1.509:404
1.509:386
1.509:380
1.524:380
1.524:409
1.528:421
1.528:383
1.528:378
1.528:398
1.528:407
1.528:406
1.529:458
1.529:503
1.529:527
1.533:519
1.533:501
1.533:511
1.533:488
1.533:467
1.533:463
1.533:467
1.533:454
1.533:428
1.533:401
1.537:396
1.537:396
1.537:390
1.537:395
1.537:390
1.537:417
1.537:448
1.537:484
1.537:501
1.557:512
1.557:522
1.558:509
1.558:522
1.558:517
1.558:485
1.558:464
1.558:441
1.562:408
1.562:403
1.562:403
1.562:407
1.562:410
1.562:390
1.562:389
1.562:405
1.562:440
1.566:472
1.566:499
1.566:516
1.566:528
1.566:519
1.567:510
1.567:520
1.567:504
1.567:482
1.567:462
1.570:445
1.570:414
1.570:407
1.586:407
1.586:401
1.586:404
1.586:415
1.586:394
1.586:413
1.586:451
1.591:478
1.591:494
1.591:511
1.591:502
1.591:498
1.591:485
1.591:483
1.591:527
1.591:546
1.591:511
1.594:461
1.594:432
1.594:426
1.594:424
1.594:407
1.594:422
1.594:435
1.594:406
1.594:404
1.599:425
1.599:451
1.599:482
1.599:524
1.614:531
1.614:520
1.614:502
1.614:479
1.619:485
1.620:490
1.620:480
1.620:454
1.620:444
1.620:407
1.620:398
1.620:403
1.621:416
1.623:422
1.623:391
1.623:412
1.623:438
1.623:463
1.623:481
1.623:501
1.624:509
1.624:512
1.624:508
1.627:510
1.627:524
1.627:520
1.627:498
1.627:477
1.627:446
1.627:420
1.643:420
1.643:421
1.643:437
1.647:462
1.647:461
1.647:427
1.647:412
1.647:420
1.647:434
1.647:460
1.647:497
1.648:506
1.652:523
1.653:534
1.653:506
1.653:509
1.653:509
1.653:495
1.653:463
1.653:433
1.653:410
1.653:413
1.656:409
1.656:421
1.656:436
1.656:423
1.656:444
1.656:467
1.656:495
1.656:504
1.675:499
1.675:484
1.675:488
1.675:506
1.675:509
1.677:518
1.677:492
1.677:471
1.677:460
1.680:455
1.680:439
1.680:425
1.680:411
1.681:416
1.681:433
1.681:414
1.681:430
1.681:447
1.681:467
1.685:497
1.685:523
1.685:529
1.685:526
1.685:521
1.685:514
1.685:532
1.685:513
1.685:481
1.688:459
1.689:437
1.705:437
1.705:432
1.705:440
1.705:423
1.705:418
1.705:414
1.705:381
1.705:396
1.709:422
1.709:455
1.709:465
1.709:480
1.709:501
1.710:524
1.710:525
1.710:519
1.710:536
1.710:520
1.714:498
1.714:484
1.714:474
1.714:447
1.714:431
1.714:415
1.714:427
1.714:423
1.714:399
1.717:432
1.717:439
1.717:444
1.733:469
1.733:527
1.733:537
1.733:539
1.733:531
1.738:505
1.738:515
1.738:519
1.738:511
1.738:499
1.738:481
1.738:439
1.738:418
1.738:405
1.738:411
1.741:422
1.741:408
1.741:425
1.741:444
1.742:463
1.742:477
1.742:504
1.742:513
1.742:516
1.745:517
1.745:519
1.745:545
1.746:535
1.746:516
1.746:495
1.762:495
1.762:469
1.762:455
1.762:465
1.767:445
1.767:408
1.767:375
1.767:369
1.767:402
1.767:434
1.767:475
1.767:499
1.767:525
1.767:545
1.771:551
1.771:532
1.771:507
1.771:511
1.771:493
1.771:472
1.771:443
1.771:429
1.771:415
1.774:422
1.774:423
1.774:422
1.774:398
1.775:410
1.775:441
1.775:448
1.790:484
1.795:505
1.795:531
1.795:538
1.795:523
1.795:507
1.795:519
1.795:543
1.795:525
1.795:505
1.795:486
1.798:466
1.798:429
1.798:406
1.799:404
1.799:406
1.799:417
1.799:428
1.799:452
1.799:465
1.802:480
1.804:483
1.804:498
1.804:515
1.804:534
1.804:508
1.804:489
1.804:491
1.804:481
1.804:482
1.824:482
1.824:472
1.824:463
1.824:443
1.824:431
1.824:422
1.824:422
1.824:414
1.824:408
1.824:443
1.827:472
1.827:492
1.827:481
1.827:499
1.828:516
1.828:532
1.828:537
1.828:532
1.828:531
1.832:508
1.832:490
1.832:466
1.832:455
1.832:432
1.832:416
1.832:425
1.832:418
1.832:413
1.832:396
1.835:411
1.853:435
1.853:480
1.853:525
1.853:544
1.853:529
1.853:523
1.857:516
1.857:518
1.857:528
1.857:507
1.857:495
1.857:479
1.857:463
1.857:431
1.857:425
1.857:416
1.861:431
1.861:435
1.861:437
1.861:479
1.861:488
1.861:488
1.861:500
1.861:527
1.861:535
1.861:543
1.864:529
1.864:538
1.864:546
1.864:513
1.881:513
1.881:482
1.881:438
1.881:417
1.881:422
1.881:409
1.885:414
1.886:429
1.886:424
1.886:406
1.886:426
1.886:454
1.886:486
1.886:505
1.886:514
1.890:511
1.890:515
1.890:522
1.890:542
1.890:550
1.890:515
1.890:496
1.890:473
1.890:453
1.890:448
1.893:434
1.893:431
1.893:437
1.893:419
1.893:412
1.910:433
1.910:441
1.914:471
1.914:499
1.914:531
1.914:537
1.914:527
1.914:522
1.914:515
1.914:503
1.914:469
1.914:464
1.918:446
1.918:433
1.918:434
1.918:427
1.918:422
1.918:398
1.919:404
1.919:414
1.919:458
1.922:481
1.922:497
1.922:505
1.922:514
1.922:536
1.922:546
1.922:539
1.922:536
1.922:552
1.937:552
1.938:540
1.942:517
1.942:488
1.942:466
1.942:452
1.942:459
1.942:454
1.942:448
1.942:437
1.942:426
1.947:446
1.947:477
1.947:510
1.947:534
1.947:549
1.947:532
1.947:515
1.947:505
1.947:514
1.947:536
1.950:533
1.950:519
1.950:488
1.950:475
1.950:464
1.950:462
1.950:453
1.950:451
1.950:446
1.971:440
1.971:460
1.971:479
1.971:521
1.971:559
1.971:581
1.971:581
1.972:581
1.975:571
1.976:561
1.976:547
1.976:528
1.976:532
1.976:504
1.976:478
1.976:461
1.976:441
1.980:440
1.980:445
1.980:433
1.980:435
1.980:477
1.980:508
1.980:533
1.980:525
1.980:509
1.980:491
1.984:489
1.984:499
1.984:517
2.000:517
2.000:532
2.000:515
2.000:489
2.000:467
2.000:446
2.000:423
2.004:415
2.004:409
2.004:398
2.004:391
2.004:392
2.004:410
2.004:423
2.005:457
2.005:484
2.008:497
2.008:503
2.008:501
2.008:508
2.008:511
2.008:503
2.009:484
2.009:475
2.009:452
2.009:430
2.012:439
2.012:433
2.012:428
2.012:414
2.028:395
2.028:381
2.028:406
2.028:451
2.033:510
2.033:544
2.033:538
2.033:516
2.033:520
2.033:513
2.033:511
2.033:515
2.033:499
2.037:492
2.037:459
2.037:434
2.037:430
2.037:439
2.037:440
2.037:415
2.038:394
2.038:401
2.038:430
2.041:466
2.041:487
2.041:482
2.041:483
2.041:498
2.041:531
2.041:525
2.056:525
2.057:535
2.057:533
2.062:530
2.062:520
2.062:485
2.062:443
2.062:413
2.062:390
2.062:400
2.062:419
2.062:421
2.065:431
2.065:442
2.065:459
2.065:483
2.065:500
2.065:510
2.066:519
2.066:525
2.066:521
2.066:536
2.069:531
2.069:515
2.069:523
2.070:521
2.070:504
2.070:488
2.070:490
2.070:508
2.090:543
2.090:544
2.090:559
2.090:588
2.090:623
2.090:660
2.090:704
2.090:752
2.090:775
2.094:777
2.094:783
2.094:801
2.094:821
2.094:838
2.094:862
2.094:870
2.094:885
2.094:887
2.094:900
2.098:934
2.098:953
2.098:936
2.098:937
2.098:966
2.098:979
2.098:965
2.098:933
2.098:874
2.102:807
2.103:740
2.118:740
2.120:671
2.120:628
2.120:563
2.120:489
2.120:421
2.120:363
2.120:307
2.123:285
2.123:279
2.123:281
2.123:278
2.123:245
2.123:236
2.123:254
2.123:283
2.123:320
2.123:366
2.127:389
2.127:410
2.127:408
2.127:409
2.127:442
2.127:449
2.127:428
2.127:397
2.127:388
2.131:374
2.131:383
2.131:376
2.147:360
2.147:346
2.147:326
2.147:332
2.147:369
2.152:407
2.152:430
2.153:445
2.153:462
2.153:484
2.153:496
2.153:513
2.153:535
2.153:504
2.153:464
2.156:424
2.156:407
2.156:388
2.156:374
2.156:371
2.156:381
2.157:386
2.157:353
2.157:356
2.160:381
2.160:422
2.160:446
2.160:455
2.161:473
2.161:502
2.175:502
2.175:517
2.175:514
2.175:528
2.180:518
2.180:481
2.180:462
2.180:455
2.181:439
2.181:427
2.181:406
2.181:396
2.181:396
2.182:378
2.184:392
2.184:419
2.185:445
2.185:470
2.187:496
2.187:510
2.187:515
2.187:502
2.187:495
2.188:514
2.188:507
2.188:483
2.188:459
2.188:430
2.188:399
2.190:402
2.205:409
2.209:410
2.209:416
2.209:417
2.209:440
2.210:449
2.210:467
2.210:483
2.210:510
2.210:524
2.213:539
2.213:557
2.213:542
2.213:542
2.213:522
2.214:506
2.214:469
2.214:436
2.214:407
2.214:411
2.217:422
2.217:454
2.217:473
2.217:450
2.218:439
2.218:438
2.219:455
2.219:467
2.219:475
2.219:487
2.237:487
2.237:529
2.238:539
2.238:515
2.238:545
2.238:558
2.238:535
2.238:521
2.239:494
2.239:461
2.241:440
2.241:427
2.242:440
2.242:458
2.242:440
2.242:471
2.242:500
2.242:504
2.243:503
2.245:518
2.245:520
2.245:534
2.246:527
2.246:512
2.246:528
2.246:546
2.247:553
2.247:532
2.247:508
2.250:468
2.266:449
2.266:442
2.266:445
2.266:448
2.266:437
2.266:465
2.270:494
2.270:519
2.270:543
2.270:560
2.270:565
2.270:582
2.270:576
2.270:562
2.270:586
2.270:591
2.274:573
2.274:514
2.274:482
2.274:473
2.274:468
2.274:474
2.274:487
2.274:476
2.276:450
2.278:471
2.278:490
2.278:515
2.278:537
2.279:565
2.294:565
2.294:570
2.294:569
2.294:583
2.296:600
2.296:616
2.299:595
2.299:556
2.299:525
2.299:521
2.300:501
2.300:481
2.300:475
2.300:480
2.301:494
2.302:483
2.303:494
2.303:519
2.303:554
2.303:580
2.304:607
2.304:606
2.304:610
2.304:616
2.305:620
2.307:632
2.307:605
2.307:581
2.307:553
2.307:538
2.323:538
2.324:547
2.328:552
2.328:565
2.328:569
2.328:544
2.329:540
2.329:542
2.329:554
2.329:575
2.329:624
2.330:650
2.332:644
2.332:615
2.332:615
2.332:639
2.333:630
2.333:607
2.333:583
2.333:586
2.333:569
2.336:547
2.336:535
2.336:526
2.336:514
2.336:499
2.338:517
2.338:533
2.338:556
2.338:583
2.352:583
2.355:630
2.356:648
2.356:646
2.356:644
2.356:624
2.356:633
2.357:614
2.357:599
2.357:587
2.357:557
2.360:524
2.360:522
2.360:499
2.360:490
2.361:511
2.361:498
2.361:519
2.361:550
2.361:572
2.362:578
2.364:587
2.364:589
2.365:594
2.365:588
2.365:568
2.365:576
2.365:568
2.365:551
2.366:520
2.385:499
2.385:478
2.385:472
2.385:444
2.385:430
2.385:436
2.387:426
2.387:447
2.389:449
2.389:452
2.389:467
2.389:503
2.390:504
2.390:501
2.390:491
2.390:475
2.390:483
2.393:467
2.393:449
2.393:417
2.393:395
2.393:365
2.395:336
2.395:343
2.395:343
2.395:338
2.396:343
2.397:368
2.397:378
2.397:399
2.413:399
2.413:415
2.413:419
2.413:422
2.413:431
2.414:431
2.414:429
2.418:435
2.419:411
2.419:380
2.419:343
2.419:340
2.419:334
2.419:332
2.419:324
2.420:316
2.421:296
2.422:274
2.422:306
2.422:327
2.422:349
2.422:369
2.423:397
2.423:402
2.423:397
2.424:395
2.425:396
2.425:404
2.425:389
2.425:384
2.442:370
2.442:350
2.442:317
2.442:319
2.446:330
2.446:317
2.446:300
2.447:288
2.447:324
2.447:348
2.447:368
2.447:364
2.448:381
2.451:399
2.451:419
2.451:417
2.452:428
2.452:440
2.452:403
2.452:375
2.453:373
2.453:378
2.453:341
2.455:326
2.455:315
2.455:325
2.455:323
2.455:323
2.455:349
2.456:372
2.470:372
2.470:409
2.472:438
2.475:463
2.475:451
2.475:436
2.475:424
2.475:434
2.476:450
2.476:428
2.476:414
2.476:394
2.479:376
2.479:353
2.479:347
2.479:349
2.480:348
2.480:339
2.480:331
2.480:355
2.480:371
2.481:397
2.483:429
2.483:450
2.483:443
2.483:441
2.484:461
2.484:482
2.484:487
2.485:461
2.503:444
2.503:411
2.504:372
2.505:341
2.505:340
2.505:353
2.505:356
2.506:352
2.506:361
2.508:401
2.508:425
2.508:460
2.508:457
2.509:474
2.509:489
2.509:478
2.509:471
2.509:477
2.510:489
2.512:463
2.512:446
2.512:421
2.512:413
2.512:395
2.512:370
2.513:356
2.513:358
2.513:367
2.515:380
2.515:422
2.532:422
2.532:438
2.533:459
2.533:477
2.533:492
2.533:483
2.533:465
2.533:468
2.536:480
2.537:492
2.537:462
2.537:434
2.538:407
2.538:397
2.538:400
2.539:403
2.539:415
2.539:410
2.541:397
2.541:382
2.541:413
2.541:435
2.542:469
2.542:498
2.542:518
2.542:524
2.542:516
2.544:496
2.544:487
2.544:495
2.561:484
2.561:463
2.561:430
2.561:404
2.561:395
2.565:397
2.565:415
2.565:412
2.565:392
2.565:379
2.565:385
2.565:392
2.567:437
2.567:479
2.567:517
2.569:538
2.569:535
2.570:544
2.570:538
2.570:512
2.571:479
2.571:478
2.571:471
2.571:438
2.573:404
2.573:393
2.573:399
2.573:411
2.574:404
2.574:394
2.589:394
2.589:413
2.589:450
2.589:467
2.594:479
2.594:494
2.594:495
2.594:491
2.594:489
2.595:494
2.595:508
2.595:503
2.595:494
2.595:468
2.597:448
2.597:432
2.598:406
2.598:395
2.598:398
2.598:384
2.598:400
2.599:434
2.599:457
2.602:477
2.603:496
2.603:498
2.603:504
2.603:510
2.603:504
2.603:509
2.618:497
2.622:473
2.622:467
2.623:463
2.623:435
2.623:419
2.623:412
2.624:411
2.624:399
2.624:387
2.625:405
2.627:441
2.627:465
2.627:475
2.627:495
2.628:497
2.628:503
2.628:500
2.628:506
2.628:521
2.631:503
2.631:469
2.631:456
2.631:434
2.632:417
2.632:417
2.632:405
2.632:403
2.632:407
2.633:413
2.651:413
2.651:420
2.652:448
2.652:473
2.653:480
2.653:486
2.653:498
2.653:537
2.653:541
2.654:528
2.655:533
2.655:537
2.656:518
2.656:504
2.657:483
2.657:445
2.657:412
2.657:392
2.658:382
2.659:381
2.659:374
2.659:404
2.659:462
2.660:474
2.660:482
2.660:494
2.660:496
2.660:514
2.661:497
2.662:478
2.680:487
2.680:507
2.680:501
2.680:480
2.680:449
2.681:426
2.684:421
2.684:430
2.685:440
2.686:433
2.686:404
2.686:408
2.686:429
2.686:458
2.686:477
2.687:490
2.687:492
2.688:496
2.688:493
2.688:476
2.688:488
2.688:481
2.690:471
2.690:477
2.690:448
2.692:422
2.692:422
2.692:431
2.692:431
2.692:427
2.708:427
2.708:403
2.708:411
2.709:439
2.709:456
2.713:476
2.713:506
2.713:508
2.713:514
2.714:512
2.714:504
2.714:529
2.714:543
2.714:528
2.714:501
2.717:486
2.717:456
2.717:438
2.717:426
2.718:427
2.718:421
2.718:380
2.719:382
2.719:419
2.719:449
2.721:455
2.721:475
2.721:519
2.722:530
2.722:530
2.737:538
2.737:554
2.741:509
2.741:472
2.741:456
2.741:442
2.742:427
2.742:435
2.742:439
2.742:438
2.742:422
2.742:389
2.745:388
2.745:417
2.745:456
2.745:503
2.746:549
2.746:558
2.746:556
2.746:536
2.747:519
2.749:535
2.750:532
2.750:498
2.750:469
2.751:469
2.751:446
2.751:421
2.752:402
2.752:416
2.765:416
2.769:437
2.770:403
2.770:387
2.771:400
2.771:425
2.771:449
2.772:476
2.772:476
2.772:480
2.773:474
2.773:473
2.773:507
2.775:528
2.775:522
2.775:495
2.775:476
2.775:452
2.776:438
2.776:434
2.778:425
2.778:415
2.778:406
2.778:438
2.778:462
2.779:485
2.779:491
2.779:505
2.779:507
2.779:512
2.798:503
2.798:516
2.798:538
2.798:534
2.799:504
2.799:467
2.799:456
2.799:457
2.802:447
2.802:432
2.802:430
2.802:422
2.803:400
2.803:411
2.803:423
2.803:447
2.804:476
2.806:506
2.806:519
2.806:518
2.806:520
2.806:518
2.806:535
2.806:515
2.806:491
2.806:477
2.806:457
2.810:429
2.811:428
2.811:435
2.827:435
2.827:430
2.827:426
2.828:411
2.828:430
2.828:445
2.828:466
2.831:477
2.831:501
2.831:518
2.831:516
2.832:508
2.832:498
2.832:519
2.832:505
2.832:486
2.835:475
2.835:473
2.835:452
2.835:443
2.835:438
2.836:436
2.836:440
2.836:416
2.836:424
2.836:453
2.838:472
2.838:498
2.839:524
2.839:527
2.856:522
2.856:528
2.856:527
2.856:538
2.859:515
2.860:504
2.860:490
2.860:480
2.860:444
2.860:424
2.861:416
2.861:419
2.861:437
2.863:395
2.863:391
2.863:420
2.863:447
2.863:475
2.863:508
2.865:512
2.865:514
2.865:531
2.865:545
2.868:564
2.868:536
2.868:512
2.869:486
2.869:468
2.869:442
2.869:440
2.884:440
2.884:436
2.884:437
2.888:453
2.889:431
2.889:431
2.889:469
2.889:513
2.889:530
2.890:539
2.890:532
2.890:533
2.893:538
2.893:534
2.893:559
2.893:544
2.894:522
2.894:506
2.894:476
2.894:458
2.894:463
2.895:452
2.897:444
2.897:441
2.897:418
2.897:445
2.898:476
2.898:501
2.898:511
2.898:539
2.917:560
2.917:572
2.917:566
2.918:560
2.918:571
2.918:542
2.918:516
2.918:497
2.919:482
2.921:455
2.921:440
2.921:437
2.922:464
2.922:466
2.922:429
2.922:437
2.922:446
2.923:469
2.923:491
2.925:504
2.926:511
2.926:518
2.926:516
2.926:517
2.926:533
2.926:505
2.927:481
2.927:449
2.929:442
2.929:436
2.945:436
2.945:435
2.945:414
2.945:413
2.945:413
2.945:398
2.945:409
2.946:426
2.950:455
2.950:480
2.950:492
2.951:481
2.951:489
2.951:498
2.952:502
2.952:517
2.952:495
2.952:485
2.953:457
2.955:440
2.955:412
2.955:403
2.955:396
2.955:419
2.956:430
2.956:423
2.956:437
2.958:444
2.958:463
2.958:485
2.974:513
2.974:522
2.974:520
2.974:524
2.974:529
2.979:542
2.979:520
2.979:501
2.979:470
2.980:458
2.980:432
2.980:426
2.980:431
2.980:431
2.981:426
2.983:408
2.983:421
2.983:445
2.983:466
2.983:470
2.983:495
2.983:500
2.983:504
2.985:504
2.987:507
2.987:519
2.988:486
2.988:470
2.988:457
2.988:457
3.003:457
3.003:440
3.003:427
3.004:435
3.007:440
3.007:442
3.007:425
3.007:441
3.008:464
3.008:484
3.008:500
3.008:537
3.008:554
3.008:564
3.011:551
3.011:544
3.011:581
3.011:586
3.012:585
3.012:552
3.012:530
3.012:521
3.012:536
3.015:551
3.015:571
3.016:579
3.016:588
3.016:632
3.016:668
3.016:706
3.031:723
3.036:742
3.036:757
3.037:817
3.037:875
3.037:892
3.037:911
3.038:913
3.038:899
3.038:871
3.040:893
3.040:914
3.040:934
3.040:929
3.041:917
3.041:900
3.041:843
3.041:810
3.041:773
3.041:744
3.044:694
3.044:643
3.044:581
3.044:524
3.044:469
3.045:441
3.045:425
3.045:379
3.045:352
3.048:334
3.065:334
3.065:312
3.065:274
3.066:259
3.066:265
3.066:266
3.066:258
3.066:264
3.066:308
3.069:332
3.069:356
3.069:369
3.069:403
3.069:439
3.069:458
3.070:454
3.070:459
3.070:476
3.070:472
3.073:452
3.073:396
3.073:360
3.073:365
3.073:379
3.073:393
3.073:403
3.074:394
3.074:376
3.074:394
3.076:412
3.093:429
3.093:437
3.093:472
3.093:498
3.093:514
3.093:512
3.097:508
3.097:515
3.097:485
3.097:456
3.098:417
3.098:406
3.098:393
3.098:388
3.098:394
3.098:383
3.101:370
3.102:380
3.102:409
3.102:420
3.102:447
3.103:475
3.103:506
3.103:516
3.103:510
3.105:509
3.105:525
3.106:539
3.106:499
3.106:461
3.121:461
3.122:437
3.122:419
3.122:399
3.122:398
3.125:398
3.125:403
3.125:395
3.126:386
3.126:405
3.126:426
3.126:472
3.126:498
3.127:531
3.127:537
3.130:521
3.130:516
3.130:535
3.130:548
3.131:528
3.131:503
3.131:462
3.131:438
3.131:426
3.134:438
3.135:457
3.135:443
3.135:431
3.135:432
3.136:461
3.150:465
3.150:479
3.154:494
3.154:512
3.156:521
3.156:530
3.156:532
3.156:550
3.157:561
3.157:524
3.157:480
3.157:448
3.159:435
3.159:424
3.159:419
3.159:434
3.160:432
3.160:418
3.160:430
3.160:470
3.160:493
3.163:515
3.163:538
3.163:536
3.163:530
3.163:548
3.164:543
3.164:531
3.164:539
3.164:501
3.179:501
3.183:483
3.183:484
3.185:494
3.185:492
3.185:473
3.186:452
3.186:443
3.186:427
3.186:427
3.187:449
3.187:478
3.188:511
3.188:538
3.188:556
3.188:562
3.189:542
3.189:537
3.189:547
3.189:547
3.192:539
3.192:540
3.192:532
3.192:498
3.192:455
3.192:435
3.193:443
3.193:439
3.193:434
3.193:449
3.212:490
3.212:511
3.212:536
3.212:547
3.213:559
3.213:579
3.213:577
3.213:576
3.216:584
3.216:573
3.216:534
3.216:506
3.216:490
3.217:477
3.217:467
3.217:461
3.218:466
3.220:475
3.220:476
3.221:485
3.221:502
3.221:527
3.221:556
3.222:581
3.222:601
3.222:615
3.222:611
3.224:594
3.224:598
3.224:583
3.240:583
3.240:567
3.241:562
3.241:539
3.241:517
3.241:497
3.241:470
3.245:469
3.245:483
3.245:482
3.245:487
3.245:512
3.245:533
3.245:559
3.245:578
3.245:597
3.249:618
3.249:618
3.249:614
3.249:633
3.250:648
3.250:609
3.250:587
3.250:574
3.250:548
3.251:545
3.252:530
3.252:523
3.252:528
3.252:507
3.269:505
3.269:539
3.270:565
3.270:590
3.273:617
3.273:618
3.273:616
3.273:610
3.273:609
3.275:624
3.275:621
3.275:612
3.275:609
3.277:585
3.277:553
3.277:550
3.277:556
3.277:565
3.278:558
3.278:531
3.278:537
3.278:557
3.278:579
3.281:598
3.281:614
3.281:620
3.281:634
3.281:631
3.282:631
3.282:646
3.297:646
3.297:628
3.297:598
3.301:568
3.302:544
3.302:525
3.302:512
3.302:506
3.302:493
3.303:476
3.303:451
3.303:464
3.306:505
3.306:533
3.306:548
3.306:550
3.307:561
3.307:587
3.307:591
3.307:575
3.307:573
3.307:557
3.310:529
3.311:505
3.311:487
3.311:470
3.311:433
3.311:388
3.311:382
3.312:384
3.330:365
3.330:379
3.330:416
3.330:437
3.331:433
3.331:465
3.331:488
3.331:494
3.331:478
3.335:465
3.335:490
3.335:485
3.335:440
3.335:403
3.335:392
3.337:372
3.337:362
3.337:346
3.337:327
3.339:328
3.339:322
3.339:333
3.339:361
3.339:374
3.339:363
3.339:381
3.339:411
3.339:428
3.343:420
3.343:411
3.359:411
3.359:417
3.359:413
3.359:395
3.359:367
3.360:358
3.360:329
3.360:292
3.364:285
3.364:306
3.364:311
3.364:298
3.364:325
3.364:357
3.364:366
3.365:368
3.365:393
3.365:401
3.367:397
3.367:397
3.367:401
3.368:425
3.368:411
3.368:385
3.368:362
3.368:347
3.368:325
3.371:318
3.371:320
3.372:317
3.387:317
3.388:313
3.388:331
3.388:343
3.388:365
3.391:393
3.391:434
3.393:422
3.393:415
3.393:412
3.393:406
3.393:449
3.393:461
3.394:436
3.396:397
3.396:369
3.396:357
3.396:356
3.396:334
3.397:330
3.397:337
3.397:322
3.397:343
3.397:363
3.400:376
3.400:391
3.400:416
3.401:425
3.401:444
3.401:469
3.416:469
3.417:470
3.417:479
3.417:459
3.421:425
3.421:382
3.421:361
3.421:351
3.422:367
3.422:369
3.422:374
3.422:369
3.422:346
3.422:356
3.424:377
3.424:405
3.425:423
3.425:441
3.425:449
3.425:443
3.425:439
3.425:437
3.425:471
3.429:480
3.429:458
3.429:427
3.429:402
3.430:379
3.430:379
3.430:371
3.445:379
3.450:387
3.450:354
3.450:367
3.451:393
3.451:415
3.451:419
3.451:463
3.452:485
3.452:480
3.454:458
3.454:470
3.454:504
3.454:486
3.454:467
3.454:451
3.454:423
3.454:398
3.454:397
3.455:387
3.458:387
3.458:387
3.458:371
3.458:395
3.459:418
3.459:434
3.459:433
3.459:468
3.459:497
3.462:508
3.478:508
3.478:496
3.478:486
3.478:511
3.479:500
3.479:482
3.479:473
3.479:459
3.479:421
3.482:406
3.482:408
3.482:412
3.482:400
3.482:370
3.484:384
3.485:423
3.485:444
3.485:451
3.485:473
3.486:496
3.486:509
3.486:494
3.487:466
3.487:494
3.487:505
3.487:501
3.487:477
3.488:463
3.488:415
3.490:388
3.506:389
3.506:394
3.507:402
3.507:392
3.507:414
3.507:438
3.511:464
3.511:475
3.511:496
3.512:500
3.512:513
3.512:514
3.512:491
3.512:512
3.512:497
3.513:476
3.515:444
3.515:434
3.515:418
3.515:422
3.515:413
3.516:409
3.516:415
3.516:398
3.516:410
3.518:442
3.518:479
3.518:498
3.518:518
3.519:505
3.535:505
3.535:506
3.536:497
3.536:486
3.536:501
3.540:486
3.540:477
3.540:460
3.540:446
3.541:424
3.541:407
3.541:387
3.541:377
3.541:388
3.541:384
3.544:419
3.544:457
3.544:492
3.544:504
3.544:522
3.545:519
3.545:525
3.545:529
3.545:529
3.548:539
3.548:502
3.548:476
3.548:442
3.549:445
3.549:435
3.563:427
3.563:419
3.569:394
3.569:393
3.569:389
3.570:408
3.570:427
3.570:440
3.571:450
3.571:476
3.571:501
3.571:535
3.572:546
3.572:541
3.572:553
3.573:534
3.573:513
3.573:467
3.573:430
3.574:411
3.574:409
3.576:411
3.576:421
3.576:421
3.576:403
3.576:436
3.578:459
3.578:485
3.578:492
3.578:517
3.593:517
3.597:517
3.597:503
3.597:506
3.597:517
3.598:517
3.598:487
3.598:464
3.598:448
3.598:448
3.599:431
3.602:426
3.602:425
3.602:413
3.603:385
3.603:360
3.603:380
3.603:414
3.603:445
3.603:463
3.605:510
3.605:525
3.605:523
3.605:528
3.606:536
3.606:548
3.606:520
3.606:503
3.606:479
3.606:456
3.625:430
3.625:428
3.625:415
3.625:414
3.625:407
3.625:387
3.625:397
3.626:420
3.629:468
3.630:499
3.630:515
3.630:500
3.630:501
3.630:502
3.630:510
3.631:518
3.631:496
3.634:498
3.634:474
3.634:456
3.635:450
3.635:439
3.635:423
3.635:420
3.635:407
3.635:402
3.636:417
3.637:432
3.637:472
3.637:500
3.654:500
3.654:537
3.654:544
3.655:534
3.655:518
3.655:516
3.655:524
3.658:507
3.658:491
3.658:462
3.658:433
3.659:408
3.659:408
3.659:423
3.659:439
3.659:438
3.663:426
3.663:447
3.663:451
3.663:470
3.664:478
3.664:508
3.664:535
3.664:539
3.664:522
3.664:511
3.666:514
3.666:504
3.666:493
3.666:461
3.682:447
3.683:421
3.683:414
3.687:414
3.687:417
3.687:412
3.687:410
3.688:441
3.688:457
3.688:465
3.688:475
3.688:505
3.688:537
3.691:532
3.691:514
3.691:530
3.691:536
3.691:508
3.692:483
3.692:450
3.692:444
3.692:448
3.692:437
3.695:428
3.695:422
3.695:401
3.695:410
3.696:458
3.696:482
3.696:506
3.711:506
3.711:505
3.712:503
3.715:515
3.715:514
3.715:521
3.715:520
3.716:527
3.716:509
3.716:486
3.716:456
3.716:434
3.720:416
3.720:410
3.720:418
3.720:416
3.720:397
3.720:385
3.720:414
3.721:437
3.721:469
3.721:482
3.724:495
3.724:525
3.724:546
3.724:536
3.725:525
3.725:521
3.725:495
3.725:506
3.743:493
3.745:466
3.745:439
3.745:423
3.745:421
3.745:419
3.745:420
3.746:420
3.746:443
3.749:440
3.749:456
3.749:464
3.749:490
3.749:510
3.749:515
3.749:522
3.751:542
3.751:575
3.752:559
3.752:525
3.752:476
3.752:439
3.753:418
3.753:420
3.753:436
3.753:430
3.753:405
3.754:406
3.755:445
3.755:465
3.773:465
3.773:489
3.773:506
3.773:525
3.773:547
3.773:546
3.774:525
3.774:539
3.777:558
3.777:536
3.777:499
3.777:461
3.778:431
3.778:412
3.778:413
3.778:413
3.778:408
3.779:377
3.780:366
3.781:403
3.781:438
3.781:471
3.781:508
3.781:544
3.782:554
3.782:549
3.782:534
3.785:521
3.785:513
3.785:498
3.801:489
3.801:469
3.801:448
3.802:420
3.802:416
3.805:444
3.805:450
3.805:420
3.805:410
3.806:436
3.806:461
3.806:482
3.806:513
3.806:531
3.810:529
3.810:511
3.810:501
3.810:524
3.811:536
3.811:524
3.811:495
3.811:472
3.811:453
3.812:431
3.814:419
3.814:429
3.814:421
3.814:400
3.814:411
3.815:449
3.830:449
3.830:470
3.830:476
3.830:495
3.834:513
3.834:529
3.834:538
3.834:544
3.834:554
3.835:549
3.835:526
3.835:503
3.835:488
3.838:468
3.838:448
3.838:431
3.838:439
3.839:454
3.839:444
3.839:444
3.839:455
3.839:467
3.840:491
3.843:526
3.843:541
3.843:550
3.843:531
3.844:519
3.844:542
3.844:571
3.858:566
3.863:541
3.863:515
3.863:466
3.863:460
3.864:449
3.864:425
3.864:434
3.864:437
3.864:432
3.867:446
3.868:483
3.868:527
3.868:560
3.868:568
3.868:564
3.868:544
3.869:546
3.869:564
3.869:551
3.871:533
3.871:522
3.871:502
3.871:477
3.871:459
3.872:451
3.872:459
3.872:463
3.873:441
3.875:435
3.892:435
3.892:440
3.892:451
3.892:468
3.892:490
3.893:521
3.893:546
3.893:530
3.893:522
3.896:519
3.896:490
3.896:484
3.896:476
3.896:453
3.896:420
3.897:413
3.897:416
3.897:426
3.897:421
3.901:393
3.902:403
3.902:440
3.902:471
3.902:488
3.902:503
3.903:498
3.903:503
3.903:509
3.903:500
3.903:519
3.920:527
3.920:494
3.921:461
3.921:450
3.921:432
3.921:411
3.925:397
3.925:407
3.925:414
3.925:387
3.926:389
3.926:412
3.926:448
3.926:482
3.926:512
3.926:518
3.929:528
3.929:523
3.929:521
3.929:544
3.929:519
3.930:475
3.930:444
3.930:430
3.930:418
3.933:425
3.933:426
3.933:437
3.934:440
3.934:419
3.949:419
3.949:421
3.949:434
3.949:459
3.949:484
3.953:501
3.953:492
3.953:516
3.953:536
3.953:544
3.953:550
3.953:526
3.954:503
3.954:496
3.954:478
3.957:454
3.957:442
3.957:425
3.957:415
3.958:411
3.958:398
3.958:417
3.958:449
3.958:475
3.961:489
3.961:516
3.961:533
3.961:546
3.962:551
3.962:558
3.977:581
3.977:571
3.982:557
3.982:535
3.982:513
3.982:498
3.983:511
3.983:518
3.983:531
3.984:556
3.984:561
3.984:601
3.985:634
3.985:663
3.985:662
3.985:683
3.987:719
3.987:761
3.987:779
3.987:816
3.987:867
3.990:886
3.990:902
3.990:908
3.990:924
3.991:912
3.991:923
3.991:940
3.991:950
3.992:935
4.006:935
4.011:892
4.011:881
4.011:859
4.011:839
4.012:810
4.012:753
4.012:659
4.012:587
4.012:531
4.013:482
4.014:467
4.014:421
4.014:396
4.015:369
4.015:312
4.015:261
4.015:253
4.015:247
4.016:269
4.019:271
4.019:228
4.019:235
4.019:265
4.020:323
4.020:360
4.020:398
4.020:422
4.020:447
4.021:459
4.039:460
4.039:475
4.039:484
4.040:490
4.040:468
4.040:431
4.040:378
4.040:378
4.043:378
4.043:368
4.043:366
4.043:347
4.043:347
4.043:378
4.044:406
4.044:426
4.044:461
4.047:469
4.047:487
4.047:493
4.047:477
4.048:492
4.048:495
4.048:495
4.048:480
4.048:444
4.049:380
4.051:358
4.051:363
4.051:378
4.067:378
4.067:395
4.067:392
4.068:420
4.068:439
4.068:446
4.068:452
4.071:470
4.072:494
4.072:508
4.072:499
4.072:503
4.072:525
4.073:504
4.073:469
4.073:440
4.075:418
4.076:398
4.076:412
4.076:417
4.076:405
4.076:402
4.077:379
4.077:410
4.078:445
4.078:474
4.080:501
4.080:510
4.080:523
4.081:532
4.096:509
4.096:487
4.097:512
4.101:512
4.101:495
4.101:465
4.102:459
4.102:451
4.102:443
4.102:444
4.102:430
4.102:410
4.103:388
4.105:406
4.105:434
4.105:478
4.105:516
4.106:556
4.106:552
4.106:547
4.106:531
4.106:523
4.106:538
4.108:521
4.109:489
4.109:451
4.109:439
4.109:416
4.109:419
4.110:417
4.125:417
4.125:418
4.125:418
4.129:400
4.129:419
4.129:443
4.129:472
4.129:493
4.129:524
4.130:539
4.130:560
4.130:568
4.133:571
4.135:569
4.135:533
4.135:490
4.135:461
4.135:464
4.135:456
4.135:441
4.135:424
4.135:432
4.137:463
4.137:464
4.137:460
4.138:463
4.138:486
4.138:522
4.138:548
4.138:542
4.157:539
4.158:563
4.158:564
4.158:574
4.158:566
4.158:536
4.158:493
4.159:485
4.159:467
4.162:445
4.162:446
4.162:402
4.163:409
4.163:423
4.163:471
4.163:469
4.163:482
4.163:520
4.165:566
4.165:581
4.167:583
4.167:584
4.168:576
4.168:590
4.168:582
4.168:554
4.169:524
4.169:519
4.170:502
4.170:488
4.186:488
4.186:478
4.186:472
4.186:482
4.187:475
4.187:499
4.187:509
4.187:528
4.191:549
4.191:565
4.191:551
4.191:551
4.192:566
4.192:579
4.192:602
4.192:590
4.192:564
4.193:534
4.194:511
4.194:488
4.195:483
4.195:479
4.195:475
4.195:485
4.195:486
4.195:519
4.195:543
4.199:564
4.199:586
4.199:611
4.215:625
4.215:625
4.215:627
4.215:625
4.216:631
4.219:594
4.219:570
4.219:549
4.219:541
4.220:517
4.220:505
4.220:504
4.220:498
4.220:495
4.223:483
4.223:522
4.223:549
4.224:584
4.224:603
4.224:629
4.224:637
4.225:630
4.225:628
4.225:622
4.227:636
4.227:616
4.227:594
4.227:557
4.228:548
4.228:528
4.244:528
4.244:522
4.244:525
4.244:520
4.248:501
4.248:481
4.248:527
4.248:551
4.248:565
4.248:595
4.249:633
4.249:641
4.249:620
4.252:601
4.252:586
4.252:602
4.252:592
4.253:579
4.253:561
4.253:555
4.253:525
4.253:499
4.253:492
4.256:481
4.256:471
4.256:471
4.256:517
4.256:542
4.256:545
4.256:553
4.272:574
4.277:573
4.277:569
4.277:554
4.277:557
4.277:550
4.277:517
4.277:497
4.278:486
4.278:470
4.281:455
4.281:449
4.281:440
4.281:423
4.282:396
4.282:400
4.282:448
4.282:453
4.282:454
4.283:465
4.284:489
4.284:488
4.284:465
4.285:459
4.285:453
4.285:461
4.285:452
4.285:435
4.285:401
4.289:379
4.305:379
4.305:368
4.305:365
4.305:358
4.305:356
4.305:344
4.305:341
4.305:369
4.305:379
4.309:393
4.309:404
4.309:422
4.309:439
4.310:444
4.310:431
4.310:423
4.310:428
4.310:407
4.310:402
4.314:374
4.314:336
4.314:297
4.314:274
4.314:288
4.314:311
4.315:322
4.315:331
4.315:341
4.317:353
4.317:369
4.333:391
4.333:424
4.333:431
4.335:419
4.335:431
4.335:443
4.338:445
4.338:414
4.338:404
4.338:377
4.339:357
4.339:341
4.339:349
4.339:353
4.339:348
4.340:332
4.342:334
4.342:367
4.342:379
4.342:405
4.342:406
4.343:398
4.343:419
4.343:440
4.343:437
4.345:440
4.345:455
4.345:432
4.347:410
4.347:367
4.362:367
4.362:348
4.362:343
4.362:338
4.363:327
4.367:356
4.367:362
4.367:338
4.367:344
4.368:357
4.368:390
4.368:426
4.368:456
4.369:474
4.369:469
4.371:444
4.371:445
4.371:467
4.371:461
4.372:442
4.372:415
4.372:403
4.372:391
4.372:368
4.375:373
4.375:361
4.375:345
4.376:349
4.376:359
4.376:380
4.391:410
4.391:443
4.395:458
4.395:458
4.395:439
4.396:448
4.396:470
4.396:471
4.396:456
4.396:465
4.396:452
4.398:416
4.399:388
4.400:374
4.400:382
4.400:383
4.401:344
4.401:317
4.401:344
4.401:395
4.401:444
4.404:488
4.404:495
4.404:490
4.404:473
4.404:476
4.404:488
4.404:501
4.405:486
4.405:452
4.419:452
4.424:422
4.424:409
4.424:413
4.424:420
4.425:415
4.425:401
4.425:383
4.425:396
4.425:414
4.425:419
4.427:457
4.427:495
4.428:509
4.428:514
4.428:502
4.428:494
4.428:518
4.429:511
4.429:473
4.432:452
4.432:433
4.433:408
4.433:397
4.433:385
4.433:394
4.433:394
4.434:382
4.434:391
4.434:416
4.452:429
4.452:450
4.453:472
4.453:494
4.453:522
4.453:516
4.453:507
4.457:530
4.457:538
4.457:506
4.457:473
4.458:448
4.458:429
4.458:409
4.458:402
4.458:410
4.458:410
4.461:390
4.461:383
4.461:404
4.461:441
4.462:468
4.462:494
4.462:512
4.462:514
4.462:513
4.463:501
4.465:522
4.465:516
4.465:488
4.481:488
4.481:476
4.482:456
4.482:441
4.482:430
4.482:401
4.482:399
4.485:413
4.485:396
4.485:380
4.485:400
4.485:435
4.485:467
4.485:496
4.487:517
4.487:541
4.490:523
4.490:505
4.490:519
4.490:527
4.490:517
4.491:484
4.491:444
4.491:417
4.491:407
4.491:401
4.493:409
4.493:404
4.493:392
4.493:409
4.510:432
4.510:446
4.510:476
4.514:508
4.514:523
4.514:526
4.515:513
4.515:493
4.515:493
4.515:503
4.515:505
4.515:500
4.515:492
4.518:460
4.518:443
4.518:418
4.518:417
4.519:425
4.519:402
4.519:403
4.519:437
4.519:457
4.522:464
4.522:487
4.522:492
4.522:499
4.523:511
4.523:531
4.523:553
4.523:542
4.538:542
4.538:512
4.543:467
4.543:429
4.543:393
4.543:385
4.543:393
4.543:410
4.544:426
4.544:414
4.544:423
4.544:447
4.547:470
4.547:489
4.547:506
4.547:514
4.547:520
4.548:510
4.548:509
4.548:539
4.548:528
4.548:506
4.550:478
4.550:460
4.550:434
4.551:405
4.551:394
4.551:413
4.551:419
4.552:385
4.571:381
4.572:416
4.572:458
4.572:488
4.572:518
4.572:523
4.573:522
4.573:536
4.573:540
4.575:553
4.575:537
4.575:504
4.575:468
4.575:454
4.576:436
4.576:417
4.576:398
4.576:391
4.580:405
4.580:396
4.580:406
4.580:434
4.581:457
4.581:469
4.581:490
4.581:496
4.581:528
4.582:532
4.583:523
4.583:557
4.600:557
4.600:547
4.600:519
4.600:500
4.600:479
4.601:444
4.601:437
4.601:413
4.604:402
4.604:426
4.604:408
4.604:401
4.604:406
4.606:441
4.606:461
4.606:491
4.606:519
4.608:526
4.608:509
4.608:501
4.608:528
4.609:530
4.609:514
4.609:494
4.609:462
4.609:434
4.609:421
4.612:404
4.612:422
4.612:445
4.628:428
4.628:426
4.629:434
4.629:461
4.629:472
4.633:496
4.634:527
4.634:533
4.634:524
4.635:508
4.635:521
4.635:518
4.635:495
4.636:461
4.637:442
4.637:418
4.637:413
4.637:407
4.637:406
4.638:397
4.638:372
4.638:384
4.638:433
4.638:478
4.641:497
4.641:525
4.641:530
4.641:529
4.642:539
4.642:521
4.657:521
4.657:551
4.657:534
4.657:504
4.662:467
4.662:448
4.662:437
4.662:435
4.663:417
4.663:415
4.663:411
4.663:388
4.663:397
4.665:423
4.665:456
4.665:486
4.665:527
4.666:540
4.666:550
4.666:546
4.668:544
4.668:572
4.668:547
4.670:511
4.670:472
4.670:458
4.670:441
4.671:422
4.671:409
4.671:418
4.684:421
4.690:401
4.690:421
4.690:448
4.691:479
4.691:495
4.691:527
4.691:530
4.691:537
4.691:534
4.694:520
4.694:545
4.694:537
4.694:513
4.694:482
4.695:467
4.695:454
4.695:459
4.695:455
4.695:433
4.698:406
4.698:408
4.698:411
4.698:421
4.698:462
4.699:503
4.699:518
4.699:519
4.699:515
4.702:505
4.719:505
4.719:505
4.719:524
4.719:506
4.720:495
4.720:485
4.720:480
4.720:454
4.720:438
4.723:431
4.723:429
4.723:415
4.723:387
4.725:401
4.725:409
4.725:425
4.725:453
4.725:491
4.725:505
4.727:519
4.727:531
4.727:527
4.727:529
4.728:491
4.728:476
4.728:477
4.728:472
4.728:444
4.731:428
4.731:426
4.747:428
4.747:429
4.748:410
4.748:415
4.748:420
4.748:455
4.752:490
4.752:504
4.752:514
4.752:521
4.753:513
4.753:527
4.753:536
4.753:517
4.753:523
4.753:507
4.755:495
4.756:464
4.756:454
4.756:447
4.756:436
4.756:426
4.756:412
4.756:435
4.756:464
4.760:490
4.760:493
4.760:509
4.760:511
4.761:508
4.776:508
4.776:502
4.776:512
4.776:541
4.776:542
4.780:528
4.780:485
4.780:464
4.780:447
4.781:438
4.781:422
4.781:424
4.781:428
4.781:424
4.782:444
4.784:439
4.784:462
4.784:485
4.784:511
4.784:516
4.786:521
4.786:540
4.786:541
4.786:539
4.788:516
4.788:491
4.788:458
4.788:451
4.789:452
4.789:451
4.805:452
4.805:445
4.809:420
4.809:382
4.809:415
4.809:444
4.810:458
4.810:460
4.810:490
4.810:512
4.810:503
4.813:511
4.813:532
4.813:540
4.813:521
4.814:501
4.814:479
4.814:449
4.814:415
4.814:404
4.814:407
4.816:403
4.816:397
4.816:400
4.816:435
4.816:457
4.816:484
4.816:506
4.816:533
4.818:544
4.832:544
4.838:543
4.838:536
4.838:540
4.838:546
4.839:522
4.839:511
4.839:491
4.839:465
4.839:440
4.839:438
4.842:441
4.842:444
4.842:421
4.842:416
4.842:449
4.843:484
4.843:499
4.843:497
4.843:511
4.845:520
4.845:518
4.845:510
4.845:521
4.845:532
4.845:508
4.845:489
4.845:470
4.845:449
4.845:434
4.866:441
4.866:444
4.867:445
4.867:433
4.867:414
4.867:433
4.867:460
4.870:509
4.870:536
4.870:553
4.870:561
4.871:559
4.871:552
4.871:547
4.871:547
4.871:521
4.871:506
4.874:488
4.874:457
4.874:441
4.874:445
4.875:449
4.875:450
4.875:438
4.875:432
4.875:462
4.878:479
4.878:486
4.878:506
4.878:536
4.894:536
4.894:544
4.894:566
4.894:592
4.896:599
4.896:597
4.896:547
4.899:522
4.900:491
4.900:459
4.900:430
4.900:432
4.900:439
4.901:431
4.901:429
4.901:451
4.903:497
4.903:502
4.903:530
4.903:542
4.903:536
4.904:533
4.904:520
4.904:515
4.904:527
4.904:540
4.906:512
4.906:495
4.907:466
4.907:443
4.923:413
4.923:397
4.923:409
4.928:421
4.928:415
4.928:415
4.928:435
4.929:450
4.929:463
4.929:474
4.929:488
4.929:503
4.929:511
4.932:512
4.933:514
4.933:529
4.934:509
4.934:490
4.934:461
4.935:433
4.935:410
4.935:406
4.935:410
4.936:406
4.936:392
4.936:379
4.936:418
4.936:461
4.937:492
4.937:495
4.951:495
4.951:510
4.956:520
4.956:516
4.956:519
4.956:527
4.956:523
4.957:494
4.957:479
4.957:463
4.957:452
4.958:436
4.960:424
4.960:417
4.960:420
4.960:412
4.960:397
4.961:420
4.961:444
4.961:494
4.961:514
4.961:514
4.964:522
4.964:514
4.964:515
4.965:525
4.965:503
4.965:469
4.965:455
4.966:444
4.985:437
4.985:432
4.985:427
4.985:435
4.986:452
4.986:446
4.986:425
4.986:427
4.986:449
4.989:471
4.989:478
4.989:501
4.989:518
4.990:508
4.990:506
4.990:528
4.990:559
4.990:528
4.993:496
4.993:480
4.993:488
4.994:482
4.994:480
4.994:500
4.994:513
4.994:490
4.994:481
4.995:524
4.997:580
4.997:631
5.013:631
5.013:664
5.013:675
5.014:677
5.014:676
5.014:686
5.014:717
5.014:739
5.018:738
5.018:748
5.018:775
5.018:778
5.019:771
5.019:755
5.019:793
5.019:846
5.019:868
5.022:874
5.022:918
5.022:971
5.022:990
5.023:990
5.023:990
5.023:974
5.023:928
5.023:878
5.023:824
5.025:733
5.025:613
5.025:527
5.042:468
5.042:410
5.042:366
5.042:317
5.043:292
5.045:275
5.045:256
5.046:231
5.046:246
5.046:267
5.046:305
5.046:344
5.047:362
5.047:389
5.050:400
5.050:408
5.050:448
5.050:458
5.050:441
5.050:432
5.051:411
5.051:372
5.051:366
5.051:389
5.054:388
5.054:382
5.054:360
5.054:346
5.055:368
5.055:399
5.070:399
5.070:427
5.071:458
5.071:472
5.075:464
5.075:449
5.075:453
5.075:479
5.075:494
5.076:482
5.076:441
5.076:387
5.076:376
5.079:382
5.079:379
5.079:391
5.080:395
5.080:370
5.080:380
5.080:407
5.080:425
5.081:443
5.081:457
5.083:465
5.083:478
5.083:485
5.084:495
5.084:525
5.084:523
5.084:490
5.099:458
5.103:437
5.103:418
5.103:419
5.104:404
5.104:399
5.104:409
5.104:402
5.105:410
5.105:417
5.108:414
5.108:435
5.108:471
5.108:494
5.109:494
5.109:496
5.109:517
5.109:540
5.109:539
5.110:514
5.112:490
5.112:462
5.112:430
5.112:417
5.112:422
5.112:417
5.113:417
5.113:406
5.113:412
5.116:426
5.133:426
5.133:447
5.133:477
5.133:512
5.133:510
5.133:509
5.133:536
5.135:548
5.135:552
5.136:525
5.136:497
5.136:492
5.136:479
5.136:450
5.137:427
5.137:410
5.137:415
5.137:430
5.137:423
5.141:441
5.141:459
5.141:471
5.141:495
5.142:530
5.142:549
5.142:562
5.142:547
5.142:538
5.144:551
5.144:534
5.160:507
5.160:486
5.161:471
5.161:446
5.161:434
5.161:424
5.165:433
5.166:442
5.166:403
5.166:394
5.166:421
5.166:462
5.166:498
5.166:524
5.166:535
5.166:554
5.169:554
5.170:537
5.170:571
5.170:578
5.170:561
5.170:516
5.171:490
5.171:458
5.171:453
5.173:431
5.173:432
5.173:444
5.173:424
5.174:429
5.189:429
5.189:456
5.189:485
5.190:514
5.190:541
5.194:551
5.194:564
5.194:553
5.194:542
5.194:568
5.195:566
5.195:536
5.195:505
5.195:490
5.195:486
5.197:487
5.198:473
5.198:470
5.198:480
5.198:456
5.198:464
5.199:473
5.199:502
5.200:544
5.202:574
5.202:564
5.202:565
5.202:573
5.202:572
5.203:584
5.218:560
5.218:540
5.222:528
5.222:514
5.222:489
5.223:488
5.223:483
5.223:487
5.224:491
5.224:467
5.225:476
5.227:498
5.227:529
5.227:573
5.227:615
5.228:632
5.228:628
5.228:606
5.228:597
5.228:622
5.228:617
5.231:598
5.231:578
5.231:566
5.231:539
5.232:530
5.232:518
5.233:517
5.233:515
5.233:493
5.247:493
5.251:500
5.251:505
5.252:525
5.252:544
5.252:583
5.252:606
5.252:608
5.253:587
5.253:582
5.253:633
5.255:651
5.255:625
5.255:592
5.255:580
5.256:543
5.256:508
5.256:490
5.256:497
5.256:505
5.259:484
5.259:521
5.259:547
5.259:570
5.260:584
5.260:617
5.260:625
5.260:605
5.260:595
5.260:598
5.279:631
5.279:640
5.279:623
5.279:574
5.280:546
5.280:525
5.280:524
5.283:508
5.283:495
5.283:476
5.285:447
5.285:464
5.285:498
5.285:541
5.286:571
5.286:595
5.286:594
5.288:583
5.288:575
5.288:567
5.288:576
5.289:548
5.289:530
5.289:520
5.289:514
5.289:474
5.292:447
5.292:438
5.292:433
5.292:434
5.308:434
5.308:423
5.308:441
5.308:458
5.309:490
5.309:500
5.313:498
5.313:488
5.313:495
5.313:492
5.314:486
5.314:503
5.314:493
5.314:458
5.314:427
5.314:408
5.316:392
5.316:381
5.316:364
5.317:357
5.317:349
5.317:318
5.317:347
5.317:366
5.317:395
5.317:419
5.320:444
5.320:460
5.320:472
5.320:468
5.336:447
5.336:452
5.337:437
5.341:415
5.341:384
5.341:364
5.341:336
5.342:329
5.342:323
5.342:322
5.342:327
5.342:311
5.343:337
5.345:372
5.345:398
5.345:398
5.346:412
5.346:431
5.346:432
5.346:425
5.346:414
5.346:421
5.349:382
5.349:360
5.349:338
5.349:334
5.349:347
5.349:350
5.351:329
5.351:318
5.366:318
5.366:312
5.370:293
5.370:324
5.370:349
5.370:379
5.371:396
5.371:425
5.371:430
5.371:443
5.371:459
5.371:460
5.374:473
5.374:459
5.374:445
5.374:414
5.375:373
5.375:329
5.375:314
5.375:326
5.376:344
5.378:339
5.378:321
5.378:330
5.378:346
5.378:390
5.379:420
5.379:450
5.379:453
5.379:459
5.398:464
5.398:447
5.398:445
5.398:405
5.398:387
5.398:385
5.400:386
5.400:375
5.400:374
5.402:371
5.403:378
5.403:360
5.403:329
5.403:363
5.403:411
5.403:425
5.403:419
5.404:440
5.406:468
5.406:477
5.406:475
5.408:488
5.408:487
5.408:449
5.408:429
5.408:422
5.409:414
5.409:374
5.411:360
5.411:362
5.427:362
5.427:369
5.428:385
5.428:385
5.428:391
5.428:404
5.428:435
5.428:465
5.431:497
5.432:508
5.432:500
5.433:480
5.433:474
5.433:482
5.433:473
5.433:463
5.435:440
5.435:414
5.435:371
5.436:378
5.436:389
5.436:393
5.436:386
5.437:363
5.437:374
5.437:399
5.438:435
5.439:466
5.439:496
5.440:510
5.455:525
5.455:526
5.455:522
5.456:527
5.456:492
5.459:466
5.459:438
5.460:429
5.460:390
5.460:380
5.460:390
5.460:397
5.461:387
5.461:377
5.464:403
5.464:429
5.464:456
5.464:488
5.464:512
5.466:523
5.466:520
5.466:508
5.467:498
5.467:510
5.467:490
5.467:473
5.468:448
5.468:456
5.468:462
5.468:448
5.484:448
5.484:437
5.484:428
5.485:417
5.488:392
5.488:376
5.488:387
5.488:416
5.489:458
5.489:504
5.489:506
5.489:498
5.489:478
5.493:469
5.493:501
5.493:511
5.493:491
5.493:454
5.493:429
5.494:420
5.494:436
5.494:439
5.494:416
5.497:394
5.497:390
5.497:420
5.497:436
5.498:476
5.498:494
5.498:521
5.513:532
5.516:522
5.517:511
5.517:536
5.517:558
5.517:554
5.517:535
5.517:501
5.519:488
5.519:445
5.521:402
5.521:383
5.521:379
5.521:380
5.522:381
5.522:415
5.522:443
5.522:467
5.522:483
5.523:511
5.525:522
5.525:512
5.525:509
5.526:517
5.526:537
5.526:507
5.526:480
5.526:465
5.527:451
5.529:439
5.545:439
5.545:424
5.545:428
5.545:437
5.545:436
5.545:408
5.545:399
5.546:411
5.546:431
5.550:460
5.550:503
5.550:533
5.550:541
5.550:539
5.550:545
5.550:538
5.550:511
5.550:494
5.550:472
5.553:441
5.553:433
5.555:415
5.555:399
5.555:397
5.555:371
5.555:354
5.555:399
5.556:418
5.558:464
5.558:490
5.574:513
5.575:520
5.575:507
5.575:487
5.575:496
5.575:503
5.579:491
5.579:474
5.579:458
5.579:443
5.580:423
5.580:420
5.580:432
5.580:433
5.580:418
5.581:410
5.583:428
5.583:448
5.583:476
5.583:512
5.583:510
5.583:515
5.583:518
5.583:515
5.583:526
5.587:528
5.587:503
5.587:486
5.587:457
5.588:430
5.602:430
5.603:406
5.603:413
5.603:427
5.603:427
5.607:408
5.607:401
5.607:440
5.607:458
5.608:473
5.608:491
5.608:506
5.608:535
5.608:551
5.609:539
5.611:533
5.611:525
5.611:503
5.611:482
5.611:457
5.612:432
5.612:410
5.612:399
5.612:404
5.616:405
5.616:404
5.616:414
5.616:427
5.617:435
5.617:459
5.631:490
5.631:515
5.636:526
5.636:547
5.636:549
5.636:550
5.637:547
5.637:516
5.637:482
5.637:433
5.637:410
5.640:411
5.640:421
5.640:427
5.640:415
5.641:391
5.641:392
5.641:433
5.641:469
5.641:498
5.641:516
5.644:523
5.644:515
5.644:518
5.645:534
5.645:547
5.645:520
5.645:493
5.645:475
5.645:459
5.660:459
5.665:432
5.666:423
5.666:434
5.666:453
5.666:452
5.666:428
5.666:419
5.666:435
5.666:442
5.669:450
5.669:473
5.669:489
5.669:507
5.669:501
5.670:502
5.670:526
5.670:543
5.670:524
5.671:494
5.673:457
5.673:412
5.673:385
5.673:385
5.673:397
5.674:413
5.674:395
5.674:412
5.674:454
5.674:477
5.693:503
5.693:530
5.693:533
5.693:541
5.693:538
5.694:526
5.694:535
5.697:527
5.697:499
5.697:477
5.697:462
5.697:441
5.699:432
5.700:424
5.700:428
5.700:423
5.700:404
5.702:400
5.702:419
5.702:448
5.702:473
5.703:510
5.703:531
5.703:538
5.703:530
5.703:525
5.705:539
5.705:529
5.705:484
5.705:460
5.721:460
5.721:437
5.722:422
5.722:432
5.722:413
5.722:417
5.726:427
5.726:403
5.727:412
5.727:445
5.727:473
5.727:458
5.727:486
5.727:510
5.728:523
5.728:522
5.730:510
5.730:523
5.730:517
5.730:497
5.731:470
5.731:449
5.731:429
5.732:423
5.732:424
5.734:439
5.734:435
5.734:403
5.734:413
5.734:446
5.750:470
5.751:472
5.751:479
5.754:500
5.754:525
5.754:526
5.754:515
5.754:540
5.754:538
5.755:509
5.755:478
5.755:455
5.755:428
5.759:421
5.759:428
5.759:443
5.759:438
5.759:399
5.760:395
5.760:407
5.760:432
5.760:448
5.763:482
5.763:503
5.763:525
5.763:533
5.763:507
5.764:519
5.764:524
5.764:511
5.778:511
5.778:492
5.783:469
5.783:440
5.783:435
5.783:425
5.783:434
5.783:449
5.783:428
5.783:432
5.783:441
5.784:460
5.787:485
5.788:517
5.788:532
5.788:532
5.788:513
5.789:496
5.789:523
5.789:531
5.789:494
5.791:477
5.791:469
5.791:450
5.792:437
5.792:413
5.792:423
5.792:430
5.792:401
5.793:416
5.811:451
5.812:460
5.812:455
5.812:474
5.812:489
5.812:510
5.812:519
5.813:509
5.813:526
5.816:531
5.816:513
5.816:492
5.817:477
5.817:444
5.817:416
5.817:396
5.817:401
5.817:405
5.820:377
5.820:386
5.820:411
5.820:445
5.821:473
5.821:509
5.821:533
5.821:548
5.821:545
5.822:533
5.824:528
5.824:506
5.841:506
5.841:493
5.841:477
5.841:458
5.842:430
5.842:425
5.842:427
5.842:434
5.845:425
5.845:399
5.845:408
5.845:445
5.846:485
5.846:493
5.846:511
5.847:519
5.847:520
5.849:517
5.849:513
5.849:532
5.850:517
5.850:493
5.850:474
5.850:453
5.850:424
5.851:418
5.851:404
5.853:398
5.853:400
5.853:406
5.869:426
5.869:458
5.869:496
5.870:517
5.870:528
5.873:497
5.873:482
5.873:486
5.873:491
5.873:511
5.873:500
5.875:483
5.875:466
5.875:463
5.878:435
5.878:436
5.878:441
5.878:442
5.878:428
5.878:415
5.879:447
5.879:471
5.879:489
5.879:514
5.882:546
5.882:536
5.882:535
5.883:535
5.883:518
5.883:532
5.897:532
5.897:510
5.898:473
5.898:443
5.902:432
5.902:403
5.902:391
5.903:402
5.903:417
5.903:434
5.903:421
5.903:429
5.903:444
5.906:470
5.906:494
5.906:537
5.906:561
5.907:580
5.907:579
5.907:559
5.907:558
5.907:538
5.907:518
5.910:489
5.910:474
5.910:434
5.910:418
5.911:413
5.911:421
5.911:428
5.931:427
5.931:449
5.932:469
5.932:497
5.933:526
5.933:559
5.933:565
5.933:570
5.934:572
5.934:576
5.935:599
5.935:585
5.935:549
5.935:532
5.936:507
5.936:465
5.936:455
5.936:445
5.936:459
5.937:463
5.938:442
5.939:453
5.939:466
5.939:500
5.939:513
5.939:526
5.940:539
5.940:543
5.940:524
5.943:505
5.959:505
5.959:503
5.959:481
5.959:464
5.959:455
5.959:450
5.961:434
5.961:424
5.961:419
5.963:427
5.963:426
5.963:392
5.964:396
5.965:414
5.966:445
5.966:462
5.966:491
5.966:504
5.966:508
5.967:505
5.967:516
5.968:539
5.968:516
5.968:493
5.968:465
5.968:445
5.969:417
5.969:400
5.971:396
5.971:411
5.988:399
5.988:386
5.988:410
5.988:435
5.989:465
5.989:483
5.992:518
5.993:525
5.993:526
5.996:521
5.996:518
5.996:547
5.997:527
5.997:487
5.997:449
5.997:452
5.997:441
5.998:439
5.998:439
5.998:436
5.998:422
5.999:395
5.999:407
5.999:422
6.000:445
6.000:472
6.000:516
6.000:529
6.000:532
6.001:531
6.017:531
6.017:531
6.017:528
6.017:512
6.017:493
6.021:469
6.021:434
6.021:388
6.021:394
6.022:406
6.022:421
6.022:418
6.022:399
6.022:411
6.023:433
6.025:457
6.025:469
6.025:496
6.026:517
6.026:536
6.026:537
6.026:533
6.026:545
6.026:536
6.029:526
6.029:500
6.029:470
6.029:456
6.029:477
6.029:486
6.045:486
6.045:488
6.049:466
6.049:488
6.050:528
6.050:586
6.050:613
6.050:646
6.050:681
6.051:700
6.051:714
6.054:736
6.054:770
6.054:759
6.054:745
6.054:732
6.055:729
6.055:735
6.055:774
6.056:807
6.056:826
6.058:842
6.058:847
6.058:884
6.058:926
6.059:967
6.059:990
6.059:989
6.059:990
6.059:984
6.074:984
6.078:921
6.078:857
6.078:791
6.078:682
6.078:590
6.079:486
6.079:421
6.079:366
6.079:326
6.082:296
6.082:269
6.083:241
6.083:207
6.083:226
6.083:249
6.084:287
6.084:331
6.084:372
6.084:394
6.086:401
6.086:415
6.086:416
6.087:433
6.087:425
6.087:424
6.087:401
6.087:393
6.088:379
6.088:365
6.107:345
6.107:355
6.107:363
6.107:361
6.107:392
6.107:410
6.108:432
6.111:447
6.111:455
6.111:475
6.111:491
6.112:491
6.112:502
6.112:522
6.112:504
6.112:477
6.113:439
6.115:405
6.116:381
6.116:370
6.116:369
6.116:369
6.117:356
6.117:353
6.117:378
6.117:396
6.119:429
6.119:457
6.119:489
6.119:506
6.135:506
6.135:514
6.135:508
6.135:522
6.135:532
6.136:503
6.140:474
6.140:440
6.140:420
6.140:408
6.140:413
6.140:406
6.141:397
6.141:382
6.141:377
6.141:418
6.144:437
6.144:461
6.144:490
6.144:518
6.145:515
6.145:488
6.145:490
6.145:510
6.145:538
6.148:515
6.149:482
6.149:457
6.149:435
6.149:411
6.163:401
6.163:405
6.163:415
6.168:406
6.168:386
6.168:390
6.168:413
6.169:457
6.169:495
6.169:535
6.169:544
6.169:540
6.169:545
6.172:543
6.172:541
6.172:510
6.172:477
6.172:451
6.172:450
6.173:437
6.173:430
6.173:431
6.176:438
6.176:428
6.176:421
6.176:450
6.177:466
6.177:489
6.177:498
6.177:508
6.193:508
6.193:524
6.197:525
6.197:526
6.197:550
6.198:587
6.198:576
6.199:532
6.199:495
6.199:468
6.200:444
6.200:424
6.201:412
6.201:426
6.201:425
6.201:425
6.202:457
6.202:481
6.202:509
6.202:528
6.202:549
6.206:545
6.206:528
6.206:539
6.206:550
6.206:564
6.206:531
6.206:509
6.206:489
6.207:471
6.225:449
6.225:435
6.225:437
6.225:454
6.225:457
6.225:451
6.225:456
6.225:462
6.225:489
6.229:515
6.229:528
6.230:542
6.230:551
6.230:545
6.230:557
6.230:568
6.230:560
6.231:553
6.234:538
6.234:521
6.234:496
6.234:461
6.234:444
6.235:442
6.235:451
6.235:459
6.235:481
6.235:496
6.237:517
6.237:540
6.254:540
6.254:565
6.254:575
6.254:582
6.254:583
6.255:601
6.255:609
6.255:577
6.259:548
6.259:520
6.259:490
6.259:483
6.259:489
6.259:502
6.260:507
6.260:482
6.260:470
6.263:495
6.263:515
6.263:545
6.263:570
6.264:592
6.264:614
6.264:622
6.264:598
6.264:591
6.265:584
6.265:564
6.266:561
6.266:550
6.282:518
6.282:491
6.282:479
6.282:504
6.287:525
6.287:520
6.287:519
6.287:543
6.288:561
6.288:596
6.288:622
6.288:630
6.288:637
6.288:615
6.291:602
6.291:618
6.291:615
6.291:589
6.292:580
6.292:565
6.292:542
6.292:514
6.292:504
6.293:517
6.295:500
6.295:468
6.295:467
6.295:514
6.295:576
6.296:631
6.311:631
6.311:648
6.311:641
6.312:643
6.315:641
6.316:647
6.316:657
6.316:643
6.316:617
6.316:580
6.316:552
6.317:519
6.317:506
6.320:502
6.320:514
6.320:511
6.320:490
6.321:499
6.321:500
6.321:506
6.321:531
6.321:561
6.322:563
6.323:567
6.323:565
6.323:565
6.324:587
6.324:587
6.324:555
6.324:542
6.344:525
6.344:491
6.344:465
6.345:456
6.345:456
6.345:448
6.345:425
6.345:431
6.345:446
6.345:457
6.348:470
6.349:503
6.349:509
6.349:515
6.349:514
6.349:499
6.350:511
6.350:500
6.350:456
6.353:415
6.353:406
6.353:397
6.353:400
6.353:394
6.354:389
6.354:377
6.354:344
6.354:334
6.354:363
6.356:391
6.373:391
6.373:412
6.373:435
6.373:450
6.373:465
6.373:461
6.373:447
6.373:464
6.375:455
6.377:434
6.377:399
6.377:373
6.377:353
6.378:350
6.378:327
6.378:308
6.378:307
6.378:280
6.379:296
6.381:332
6.381:352
6.381:370
6.381:417
6.381:427
6.382:434
6.382:440
6.382:443
6.382:454
6.385:426
6.385:382
6.401:383
6.402:377
6.402:353
6.402:339
6.402:335
6.402:335
6.405:337
6.405:308
6.405:303
6.405:327
6.405:348
6.406:376
6.406:417
6.406:420
6.406:433
6.410:435
6.410:436
6.410:452
6.410:436
6.410:405
6.411:377
6.411:358
6.411:337
6.411:333
6.411:335
6.414:334
6.414:333
6.415:327
6.415:349
6.416:380
6.430:380
6.431:399
6.431:411
6.431:434
6.432:450
6.434:458
6.434:447
6.435:424
6.435:460
6.435:473
6.435:443
6.436:406
6.436:381
6.436:349
6.436:334
6.438:340
6.438:349
6.438:339
6.438:331
6.439:359
6.439:377
6.439:409
6.439:438
6.439:458
6.443:471
6.443:471
6.443:446
6.443:446
6.443:479
6.444:476
6.458:454
6.459:411
6.463:393
6.463:378
6.463:386
6.463:390
6.463:384
6.463:373
6.463:348
6.464:348
6.464:351
6.467:387
6.467:420
6.467:469
6.467:475
6.468:459
6.468:447
6.468:461
6.468:506
6.468:510
6.469:490
6.471:457
6.471:428
6.471:397
6.471:393
6.472:395
6.472:401
6.472:411
6.472:398
6.472:411
6.487:411
6.492:425
6.492:450
6.492:467
6.492:474
6.493:479
6.493:491
6.493:487
6.493:499
6.493:525
6.495:511
6.495:468
6.495:436
6.496:424
6.496:415
6.496:401
6.496:393
6.496:402
6.497:412
6.497:381
6.500:384
6.500:405
6.500:415
6.500:427
6.501:466
6.501:493
6.501:508
6.501:493
6.501:475
6.504:495
6.520:499
6.520:487
6.520:456
6.520:438
6.521:422
6.521:430
6.521:424
6.524:419
6.524:414
6.524:377
6.524:390
6.525:426
6.525:467
6.525:491
6.525:508
6.525:504
6.525:510
6.529:517
6.529:503
6.529:516
6.529:502
6.529:474
6.530:453
6.530:448
6.530:426
6.530:416
6.532:406
6.532:402
6.532:411
6.533:386
6.549:386
6.549:406
6.549:441
6.550:465
6.550:460
6.550:465
6.553:454
6.553:490
6.553:529
6.553:527
6.554:551
6.554:532
6.554:505
6.554:456
6.554:423
6.554:404
6.557:412
6.557:418
6.557:431
6.557:424
6.558:395
6.558:423
6.558:455
6.558:470
6.558:478
6.561:506
6.561:508
6.561:512
6.561:510
6.562:514
6.577:535
6.577:499
6.577:488
6.582:465
6.582:442
6.582:428
6.583:438
6.583:424
6.583:414
6.583:410
6.583:389
6.583:404
6.583:437
6.586:471
6.586:500
6.586:524
6.586:518
6.586:516
6.587:508
6.587:511
6.587:550
6.587:524
6.590:498
6.590:473
6.590:458
6.590:440
6.591:440
6.591:435
6.591:423
6.591:391
6.605:391
6.605:358
6.611:383
6.611:409
6.611:442
6.611:479
6.612:520
6.612:522
6.612:506
6.612:513
6.612:527
6.612:553
6.614:526
6.615:498
6.615:470
6.615:447
6.615:420
6.617:425
6.617:431
6.617:420
6.617:426
6.619:407
6.619:418
6.619:435
6.619:460
6.620:485
6.620:519
6.620:520
6.620:518
6.620:531
6.639:540
6.639:549
6.640:527
6.640:516
6.640:485
6.640:471
6.640:451
6.640:427
6.641:420
6.643:435
6.643:438
6.644:413
6.644:429
6.644:439
6.644:443
6.644:458
6.644:472
6.644:482
6.647:499
6.649:497
6.649:489
6.650:522
6.650:521
6.650:512
6.650:493
6.650:472
6.650:419
6.651:400
6.651:415
6.651:432
6.668:432
6.668:437
6.668:419
6.668:436
6.668:457
6.668:483
6.669:491
6.669:513
6.672:506
6.672:510
6.672:510
6.672:509
6.672:531
6.673:515
6.673:504
6.673:466
6.673:423
6.676:398
6.676:408
6.676:420
6.676:417
6.677:402
6.677:376
6.677:409
6.677:447
6.677:485
6.677:495
6.680:521
6.680:536
6.680:529
6.695:520
6.697:526
6.697:548
6.697:514
6.700:489
6.701:463
6.701:440
6.701:414
6.702:402
6.702:406
6.702:409
6.703:431
6.703:438
6.703:460
6.704:469
6.704:482
6.705:506
6.705:533
6.705:538
6.705:525
6.706:508
6.706:523
6.706:543
6.708:510
6.708:491
6.709:466
6.709:438
6.709:395
6.710:398
6.710:405
6.724:405
6.725:416
6.725:420
6.725:409
6.729:429
6.730:447
6.730:451
6.730:462
6.730:523
6.731:542
6.732:542
6.732:544
6.732:560
6.733:567
6.733:526
6.733:495
6.733:462
6.734:459
6.734:442
6.734:426
6.734:426
6.734:430
6.735:411
6.737:371
6.737:389
6.737:438
6.738:479
6.738:473
6.738:497
6.738:528
6.757:541
6.757:553
6.758:556
6.758:560
6.758:537
6.758:513
6.758:482
6.759:468
6.759:435
6.759:423
6.761:418
6.762:407
6.762:381
6.762:377
6.762:410
6.762:447
6.763:482
6.763:503
6.763:534
6.766:548
6.766:527
6.766:513
6.767:525
6.767:540
6.767:531
6.768:525
6.768:492
6.768:471
6.769:450
6.769:429
6.787:429
6.787:414
6.787:404
6.787:399
6.787:396
6.788:424
6.788:433
6.788:469
6.788:510
6.791:542
6.791:540
6.791:537
6.791:527
6.792:522
6.792:516
6.792:494
6.792:479
6.792:460
6.793:447
6.795:419
6.795:413
6.795:419
6.795:433
6.795:432
6.796:414
6.796:437
6.796:452
6.796:476
6.799:490
6.799:513
6.815:531
6.815:535
6.815:529
6.815:522
6.815:544
6.816:521
6.819:490
6.819:463
6.819:442
6.819:419
6.819:414
6.820:416
6.820:415
6.820:409
6.820:407
6.823:441
6.823:462
6.823:483
6.823:509
6.823:533
6.824:546
6.824:543
6.824:541
6.825:544
6.825:541
6.827:510
6.827:490
6.827:468
6.828:454
6.828:427
6.843:427
6.844:410
6.844:416
6.844:418
6.845:412
6.847:411
6.848:432
6.848:450
6.848:474
6.848:496
6.848:525
6.848:528
6.848:514
6.848:504
6.851:517
6.852:523
6.852:491
6.852:467
6.852:458
6.852:468
6.852:473
6.853:466
6.853:453
6.853:446
6.856:447
6.856:443
6.856:455
6.856:465
6.856:489
6.856:500
6.872:518
6.873:520
6.876:505
6.876:514
6.877:533
6.877:542
6.877:512
6.877:487
6.878:461
6.878:453
6.878:433
6.881:422
6.881:433
6.881:437
6.882:419
6.882:413
6.882:447
6.883:474
6.883:484
6.883:500
6.883:522
6.884:529
6.884:545
6.885:555
6.885:547
6.885:543
6.885:534
6.885:527
6.885:502
6.885:488
6.900:488
6.905:463
6.906:440
6.906:431
6.906:423
6.906:407
6.906:399
6.907:419
6.907:436
6.908:455
6.909:486
6.909:530
6.909:568
6.910:561
6.910:534
6.910:538
6.911:542
6.911:509
6.911:488
6.912:465
6.913:442
6.913:422
6.915:409
6.915:416
6.915:426
6.915:412
6.915:419
6.915:445
6.915:466
6.917:505
6.933:536
6.933:539
6.934:547
6.934:541
6.934:517
6.934:532
6.934:542
6.937:523
6.938:504
6.938:485
6.938:477
6.938:456
6.938:422
6.938:424
6.939:428
6.939:420
6.939:432
6.941:466
6.942:501
6.942:548
6.942:568
6.942:580
6.942:592
6.942:576
6.943:559
6.943:569
6.945:570
6.945:559
6.945:526
6.946:486
6.962:486
6.963:473
6.963:479
6.963:484
6.963:488
6.963:474
6.967:444
6.967:434
6.967:454
6.967:471
6.968:489
6.968:515
6.968:521
6.968:528
6.968:537
6.969:551
6.971:567
6.971:559
6.972:513
6.972:483
6.972:477
6.973:461
6.973:442
6.973:429
6.973:429
6.975:414
6.975:397
6.975:402
6.975:417
6.975:425
6.991:434
6.991:467
6.992:501
6.995:521
6.995:513
6.995:495
6.995:507
6.996:511
6.996:498
6.996:488
6.996:481
6.996:452
6.997:417
6.999:386
6.999:390
7.000:392
7.000:385
7.000:409
7.001:440
7.001:447
7.001:484
7.002:523
7.003:519
7.003:513
7.003:509
7.004:514
7.004:533
7.005:520
7.005:484
7.005:457
7.020:457
7.020:436
7.024:421
7.024:448
7.024:441
7.024:435
7.024:421
7.025:383
7.025:385
7.025:418
7.025:455
7.025:486
7.027:508
7.028:512
7.028:534
7.028:527
7.028:528
7.028:543
7.029:530
7.029:500
7.029:484
7.032:466
7.032:447
7.032:438
7.032:423
7.032:426
7.033:426
7.033:402
7.033:410
7.033:435
7.053:455
7.053:476
7.053:512
7.053:530
7.053:544
7.053:543
7.053:539
7.053:558
7.056:547
7.057:517
7.057:501
7.057:479
7.058:461
7.058:468
7.058:471
7.059:484
7.059:494
7.059:478
7.060:497
7.061:527
7.061:554
7.061:587
7.062:639
7.062:676
7.062:691
7.062:708
7.063:725
7.063:744
7.065:727
7.065:724
7.081:724
7.081:715
7.081:702
7.081:714
7.081:759
7.082:783
7.082:820
7.082:863
7.085:864
7.085:889
7.085:940
7.085:978
7.085:989
7.086:989
7.086:989
7.086:989
7.086:990
7.090:960
7.090:916
7.090:824
7.090:700
7.091:588
7.091:491
7.091:404
7.091:354
7.091:316
7.092:285
7.093:278
7.093:254
7.093:258
7.109:262
7.109:286
7.110:296
7.110:308
7.114:331
7.114:351
7.114:374
7.114:380
7.114:427
7.114:430
7.114:421
7.114:416
7.114:395
7.114:390
7.118:387
7.118:366
7.118:349
7.119:342
7.119:340
7.119:370
7.120:397
7.120:416
7.120:443
7.122:474
7.122:481
7.122:503
7.122:504
7.123:480
7.123:490
7.123:476
7.138:476
7.139:454
7.139:430
7.142:409
7.143:382
7.143:372
7.144:359
7.144:370
7.144:367
7.144:340
7.144:371
7.145:404
7.145:429
7.147:463
7.148:501
7.148:515
7.148:524
7.148:515
7.148:492
7.148:501
7.148:486
7.149:456
7.149:429
7.151:419
7.151:394
7.151:386
7.151:378
7.152:377
7.152:378
7.152:356
7.172:365
7.172:384
7.172:428
7.172:495
7.173:525
7.173:507
7.173:517
7.174:529
7.174:526
7.174:539
7.175:523
7.175:504
7.176:481
7.176:460
7.176:433
7.177:419
7.177:396
7.177:383
7.178:390
7.179:395
7.179:428
7.179:463
7.179:497
7.181:515
7.181:524
7.181:524
7.181:533
7.181:519
7.181:501
7.183:524
7.200:524
7.200:525
7.200:489
7.201:469
7.201:471
7.201:454
7.201:445
7.202:418
7.202:403
7.204:413
7.204:406
7.205:432
7.205:443
7.205:465
7.205:500
7.205:532
7.205:538
7.205:548
7.208:551
7.208:528
7.209:539
7.209:528
7.209:509
7.209:468
7.209:451
7.209:451
7.210:448
7.210:438
7.212:447
7.212:446
7.228:398
7.229:416
7.229:454
7.229:478
7.230:492
7.230:522
7.232:544
7.233:557
7.233:560
7.233:582
7.233:609
7.233:572
7.233:531
7.233:496
7.233:467
7.237:442
7.237:448
7.237:455
7.237:473
7.238:473
7.238:432
7.238:433
7.238:460
7.238:494
7.239:520
7.241:545
7.241:554
7.241:548
7.241:539
7.242:539
7.257:539
7.257:574
7.257:577
7.257:562
7.257:524
7.261:492
7.261:483
7.262:483
7.262:475
7.262:485
7.262:492
7.263:458
7.263:467
7.263:487
7.265:518
7.266:538
7.266:560
7.266:570
7.266:579
7.266:565
7.266:559
7.266:592
7.267:567
7.267:542
7.269:535
7.269:531
7.270:512
7.270:500
7.270:492
7.270:489
7.286:471
7.286:450
7.290:466
7.290:480
7.290:518
7.291:547
7.291:584
7.291:601
7.291:615
7.291:619
7.292:609
7.294:632
7.294:611
7.294:607
7.294:571
7.295:551
7.295:525
7.295:516
7.295:506
7.295:508
7.295:508
7.298:479
7.298:499
7.298:517
7.298:560
7.298:585
7.299:610
7.299:620
7.299:623
7.299:620
7.314:620
7.318:626
7.319:644
7.319:619
7.319:601
7.319:580
7.319:552
7.320:522
7.320:520
7.320:536
7.322:535
7.323:518
7.323:492
7.323:514
7.323:529
7.323:534
7.324:558
7.324:601
7.324:637
7.325:645
7.327:624
7.327:624
7.327:643
7.327:610
7.328:582
7.328:571
7.328:571
7.328:544
7.328:529
7.330:511
7.348:503
7.348:497
7.348:483
7.348:510
7.348:521
7.349:528
7.349:543
7.352:578
7.352:596
7.352:590
7.352:589
7.352:588
7.353:605
7.353:580
7.353:560
7.353:543
7.353:521
7.355:505
7.355:478
7.355:453
7.356:453
7.356:451
7.356:429
7.356:430
7.356:436
7.356:463
7.360:500
7.360:524
7.360:527
7.360:516
7.376:516
7.376:497
7.376:484
7.376:483
7.377:455
7.377:450
7.380:440
7.381:435
7.381:409
7.381:396
7.381:386
7.383:378
7.383:353
7.383:332
7.383:347
7.383:371
7.385:391
7.385:393
7.385:420
7.385:445
7.385:453
7.385:446
7.385:452
7.385:463
7.385:429
7.388:392
7.388:372
7.388:345
7.388:305
7.389:290
7.404:295
7.404:309
7.404:298
7.409:292
7.409:331
7.409:357
7.409:380
7.410:390
7.410:402
7.410:403
7.410:417
7.410:438
7.413:438
7.414:438
7.415:389
7.415:366
7.415:360
7.415:345
7.416:324
7.416:316
7.416:322
7.416:333
7.417:327
7.417:304
7.417:319
7.417:341
7.418:375
7.418:388
7.418:403
7.418:401
7.433:401
7.433:403
7.437:392
7.438:397
7.438:420
7.438:416
7.439:405
7.439:397
7.439:388
7.439:351
7.440:328
7.440:340
7.441:353
7.441:350
7.442:334
7.442:362
7.442:394
7.442:413
7.442:419
7.443:438
7.443:447
7.445:433
7.445:431
7.445:444
7.445:467
7.445:452
7.446:433
7.446:413
7.446:388
7.446:355
7.466:337
7.466:336
7.466:359
7.466:350
7.466:337
7.466:361
7.467:369
7.467:392
7.471:411
7.471:438
7.471:463
7.471:475
7.472:458
7.472:459
7.472:466
7.472:442
7.472:423
7.473:406
7.474:407
7.474:397
7.474:378
7.475:369
7.475:383
7.475:372
7.475:367
7.475:398
7.475:430
7.478:456
7.478:461
7.479:473
7.495:473
7.495:483
7.495:483
7.495:478
7.495:497
7.495:494
7.495:466
7.496:436
7.499:413
7.499:401
7.499:376
7.499:370
7.500:388
7.500:385
7.500:361
7.500:352
7.500:386
7.503:414
7.503:437
7.503:462
7.504:487
7.504:485
7.504:482
7.504:460
7.504:473
7.504:485
7.505:447
7.507:428
7.507:432
7.507:440
7.523:438
7.523:434
7.523:415
7.523:400
7.528:387
7.528:381
7.528:413
7.528:433
7.529:450
7.529:466
7.529:494
7.529:514
7.529:509
7.530:493
7.532:493
7.532:494
7.532:471
7.532:454
7.533:440
7.533:432
7.533:433
7.533:425
7.533:425
7.535:424
7.535:408
7.535:390
7.536:406
7.536:425
7.536:453
7.536:469
7.552:469
7.552:491
7.552:515
7.556:513
7.556:509
7.556:518
7.556:511
7.557:479
7.557:458
7.557:442
7.557:421
7.557:400
7.557:399
7.561:418
7.561:420
7.561:413
7.561:405
7.562:425
7.562:441
7.562:450
7.562:454
7.562:473
7.563:496
7.564:517
7.565:532
7.565:540
7.565:529
7.565:503
7.565:478
7.565:440
7.585:408
7.585:382
7.585:375
7.585:392
7.586:418
7.586:420
7.586:423
7.586:447
7.586:479
7.587:496
7.589:508
7.589:514
7.589:513
7.589:503
7.590:492
7.590:494
7.590:508
7.590:493
7.590:481
7.593:457
7.594:424
7.594:408
7.594:393
7.594:400
7.594:408
7.594:394
7.595:396
7.595:434
7.596:454
7.598:459
7.613:459
7.614:470
7.614:477
7.614:501
7.614:522
7.614:537
7.615:566
7.615:565
7.615:512
7.618:467
7.618:435
7.618:426
7.618:421
7.619:413
7.619:404
7.619:406
7.619:412
7.619:427
7.622:459
7.622:493
7.622:505
7.622:503
7.623:495
7.623:494
7.623:500
7.623:506
7.623:532
7.623:531
7.625:499
7.625:470
7.642:453
7.642:418
7.642:406
7.643:403
7.643:416
7.643:410
7.646:384
7.647:384
7.648:412
7.648:437
7.648:464
7.648:495
7.648:513
7.648:526
7.649:519
7.651:536
7.651:560
7.651:543
7.651:505
7.652:484
7.652:465
7.652:445
7.652:426
7.652:412
7.653:432
7.654:443
7.654:414
7.654:424
7.655:440
7.655:447
7.671:447
7.671:475
7.671:505
7.671:504
7.672:497
7.675:495
7.675:492
7.675:507
7.675:522
7.676:513
7.676:491
7.676:469
7.676:454
7.676:441
7.679:412
7.679:400
7.679:416
7.680:400
7.680:402
7.680:423
7.681:437
7.681:453
7.681:510
7.681:536
7.683:532
7.683:534
7.683:530
7.683:543
7.684:529
7.684:486
7.699:476
7.700:470
7.703:463
7.703:459
7.704:442
7.704:443
7.704:432
7.704:387
7.704:384
7.704:416
7.705:451
7.708:475
7.708:513
7.708:540
7.708:565
7.709:567
7.709:545
7.709:542
7.709:531
7.710:506
7.710:477
7.712:463
7.712:456
7.712:441
7.712:412
7.712:414
7.712:432
7.713:408
7.713:407
7.713:428
7.727:428
7.732:455
7.732:471
7.732:491
7.732:496
7.733:538
7.733:553
7.733:535
7.733:545
7.733:537
7.736:522
7.736:502
7.736:488
7.736:460
7.737:434
7.737:419
7.737:424
7.737:413
7.737:385
7.737:395
7.741:430
7.741:451
7.741:480
7.741:515
7.742:543
7.742:557
7.742:548
7.742:535
7.742:551
7.744:542
7.760:512
7.761:476
7.761:463
7.761:440
7.761:437
7.761:439
7.762:457
7.765:469
7.765:453
7.765:454
7.765:465
7.766:475
7.766:468
7.766:489
7.766:512
7.766:526
7.766:521
7.769:503
7.769:517
7.769:519
7.769:491
7.769:469
7.769:461
7.769:439
7.771:422
7.771:421
7.773:442
7.773:450
7.773:424
7.774:417
7.790:417
7.790:461
7.790:498
7.790:505
7.791:517
7.791:527
7.794:532
7.794:529
7.794:521
7.794:534
7.795:517
7.795:490
7.795:473
7.795:458
7.796:433
7.796:447
7.797:454
7.797:447
7.798:443
7.798:410
7.798:413
7.798:432
7.798:471
7.799:512
7.799:529
7.802:533
7.802:530
7.802:534
7.802:529
7.803:542
7.818:535
7.818:505
7.818:477
7.823:462
7.823:436
7.823:411
7.823:385
7.823:401
7.823:438
7.823:425
7.824:433
7.824:455
7.827:486
7.827:520
7.827:560
7.827:568
7.828:575
7.828:565
7.828:547
7.828:551
7.828:548
7.828:528
7.830:501
7.831:467
7.831:431
7.831:426
7.831:417
7.831:419
7.831:416
7.831:392
7.847:392
7.847:414
7.851:443
7.851:475
7.851:493
7.851:500
7.852:498
7.852:527
7.852:544
7.852:542
7.852:557
7.853:548
7.855:523
7.855:498
7.856:476
7.856:457
7.856:452
7.856:424
7.856:416
7.857:418
7.857:410
7.859:432
7.859:454
7.859:491
7.859:510
7.860:533
7.860:541
7.860:561
7.860:550
7.860:517
7.880:525
7.880:519
7.880:504
7.881:471
7.881:450
7.881:443
7.881:437
7.881:430
7.884:435
7.884:448
7.884:413
7.884:402
7.884:414
7.885:451
7.885:488
7.885:522
7.885:530
7.886:556
7.888:565
7.888:554
7.888:558
7.888:542
7.889:505
7.889:467
7.889:438
7.889:413
7.889:422
7.892:431
7.892:445
7.892:462
7.908:462
7.909:451
7.909:463
7.909:479
7.909:503
7.909:521
7.909:534
7.913:531
7.913:539
7.914:551
7.914:549
7.914:564
7.915:551
7.915:513
7.915:500
7.915:488
7.915:469
7.917:476
7.917:472
7.917:465
7.917:472
7.918:457
7.918:473
7.918:491
7.918:513
7.918:524
7.919:538
7.920:542
7.921:561
7.921:583
7.936:575
7.936:577
7.937:543
7.937:530
7.941:516
7.941:495
7.941:462
7.941:445
7.942:463
7.942:468
7.942:459
7.942:437
7.942:463
7.942:489
7.945:503
7.945:504
7.945:526
7.946:544
7.946:552
7.948:546
7.948:512
7.948:508
7.948:500
7.950:481
7.950:456
7.950:444
7.950:428
7.951:421
7.951:405
7.951:400
7.965:400
7.965:413
7.965:391
7.970:403
7.970:438
7.971:458
7.971:474
7.971:522
7.971:525
7.971:512
7.972:512
7.972:521
7.972:552
7.974:523
7.974:488
7.974:462
7.974:435
7.975:396
7.975:399
7.975:396
7.975:390
7.975:394
7.978:380
7.978:419
7.978:455
7.978:477
7.978:492
7.979:518
7.979:532
7.980:537
7.998:531
7.998:518
7.998:525
7.999:522
7.999:490
7.999:463
7.999:451
7.999:419
8.000:409
8.000:416
8.002:423
8.002:402
8.002:405
8.003:435
8.003:451
8.003:461
8.003:477
8.003:508
8.003:531
8.007:531
8.007:531
8.007:547
8.007:569
8.008:536
8.008:484
8.008:451
8.008:455
8.008:447
8.009:445
8.011:446
8.027:446
8.027:449
8.028:429
8.028:401
8.028:409
8.028:422
8.028:456
8.028:478
8.029:513
8.031:538
8.031:547
8.031:552
8.032:546
8.032:572
8.032:563
8.032:553
8.033:547
8.033:571
8.035:560
8.035:558
8.035:548
8.035:564
8.036:575
8.036:582
8.036:647
8.036:684
8.037:715
8.037:743
8.039:805
8.039:843
8.055:860
8.055:871
8.055:889
8.056:930
8.056:947
8.056:971
8.059:975
8.059:981
8.060:984
8.060:985
8.060:963
8.060:951
8.060:921
8.060:869
8.061:838
8.063:790
8.063:772
8.064:748
8.064:726
8.064:662
8.064:563
8.064:474
8.064:415
8.064:386
8.064:338
8.068:324
8.068:316
8.068:298
8.068:264
8.069:243
8.083:243
8.085:255
8.085:263
8.085:259
8.085:256
8.089:292
8.089:326
8.089:354
8.089:367
8.089:395
8.090:414
8.090:443
8.090:453
8.090:464
8.093:476
8.093:441
8.093:409
8.093:390
8.093:377
8.093:372
8.094:388
8.094:399
8.094:386
8.094:366
8.096:353
8.097:386
8.097:402
8.097:432
8.097:452
8.097:479
8.113:503
8.113:497
8.117:484
8.118:467
8.118:484
8.118:482
8.118:471
8.118:434
8.119:423
8.119:409
8.119:399
8.122:394
8.122:383
8.122:365
8.122:357
8.122:405
8.122:424
8.123:438
8.123:455
8.123:492
8.123:510
8.124:529
8.124:533
8.126:547
8.126:533
8.126:484
8.126:484
8.126:449
8.126:418
8.127:399
8.141:399
8.146:394
8.146:394
8.147:391
8.147:379
8.147:376
8.147:404
8.147:447
8.148:495
8.148:511
8.150:509
8.150:507
8.150:509
8.150:501
8.151:505
8.151:517
8.151:510
8.151:500
8.151:467
8.152:451
8.153:430
8.153:424
8.155:417
8.155:412
8.155:407
8.155:402
8.155:436
8.156:464
8.156:499
8.158:525
8.175:534
8.175:537
8.175:542
8.175:521
8.176:517
8.176:526
8.176:505
8.179:500
8.180:488
8.180:466
8.181:438
8.181:431
8.181:438
8.181:437
8.181:424
8.182:422
8.183:452
8.183:476
8.183:501
8.183:514
8.183:543
8.183:545
8.183:530
8.185:519
8.185:531
8.185:551
8.187:535
8.187:522
8.187:492
8.188:477
8.203:477
8.203:458
8.203:437
8.203:426
8.203:435
8.204:447
8.208:450
8.208:476
8.208:484
8.208:510
8.209:529
8.209:556
8.209:577
8.209:570
8.209:563
8.210:574
8.212:588
8.212:566
8.212:545
8.212:494
8.212:475
8.213:466
8.213:459
8.214:465
8.214:485
8.215:471
8.215:421
8.215:444
8.215:484
8.215:524
8.231:534
8.231:554
8.232:573
8.236:574
8.236:580
8.236:582
8.236:595
8.237:571
8.237:550
8.237:517
8.237:492
8.237:451
8.240:436
8.240:441
8.240:455
8.240:453
8.241:470
8.241:513
8.241:526
8.241:524
8.241:549
8.241:588
8.244:621
8.244:628
8.244:626
8.245:646
8.245:637
8.245:587
8.245:551
8.245:530
8.260:530
8.260:539
8.264:517
8.264:487
8.264:497
8.265:505
8.265:494
8.265:498
8.265:518
8.265:529
8.265:553
8.269:578
8.269:612
8.269:642
8.269:628
8.270:603
8.270:613
8.270:617
8.270:591
8.270:567
8.271:554
8.273:539
8.273:527
8.273:526
8.273:517
8.273:549
8.274:544
8.274:529
8.274:556
8.274:582
8.293:589
8.293:589
8.293:622
8.293:647
8.293:633
8.294:634
8.294:651
8.295:654
8.297:625
8.297:605
8.298:583
8.298:558
8.298:548
8.298:553
8.298:557
8.299:543
8.299:531
8.299:526
8.302:547
8.302:572
8.302:576
8.302:597
8.303:612
8.303:626
8.303:635
8.303:642
8.303:661
8.305:648
8.305:592
8.305:560
8.322:560
8.322:558
8.322:537
8.322:537
8.322:536
8.322:538
8.323:538
8.326:524
8.326:512
8.326:532
8.327:528
8.327:524
8.327:549
8.327:586
8.327:608
8.327:605
8.327:589
8.331:578
8.331:577
8.331:561
8.332:533
8.332:509
8.332:468
8.332:446
8.332:423
8.332:424
8.334:405
8.334:372
8.334:374
8.334:417
8.350:456
8.350:470
8.350:484
8.350:497
8.355:495
8.355:459
8.355:451
8.355:463
8.355:460
8.356:426
8.356:408
8.356:391
8.356:360
8.356:345
8.359:343
8.359:339
8.359:347
8.359:317
8.360:311
8.360:325
8.360:346
8.360:359
8.360:390
8.363:408
8.363:425
8.363:425
8.364:419
8.364:419
8.364:419
8.364:400
8.379:400
8.379:375
8.380:346
8.383:307
8.383:289
8.383:301
8.384:334
8.384:341
8.384:304
8.384:292
8.384:312
8.385:340
8.385:359
8.388:374
8.388:408
8.388:425
8.388:418
8.389:423
8.389:449
8.389:433
8.389:392
8.389:380
8.392:384
8.392:364
8.392:344
8.392:314
8.393:308
8.393:313
8.393:296
8.393:305
8.412:327
8.413:363
8.413:380
8.413:395
8.413:409
8.414:425
8.414:433
8.415:429
8.415:443
8.415:445
8.416:419
8.416:390
8.416:373
8.416:363
8.416:353
8.417:333
8.417:321
8.417:313
8.417:326
8.420:359
8.420:371
8.420:394
8.420:421
8.422:434
8.422:428
8.422:438
8.422:439
8.422:454
8.423:487
8.424:478
8.440:478
8.441:449
8.441:409
8.441:405
8.441:383
8.441:358
8.442:346
8.442:339
8.442:338
8.445:330
8.445:359
8.445:391
8.445:415
8.446:439
8.446:461
8.446:475
8.446:483
8.446:470
8.449:467
8.449:486
8.449:484
8.449:446
8.450:409
8.450:377
8.450:341
8.450:342
8.451:363
8.451:378
8.453:380
8.453:351
8.469:347
8.469:384
8.469:421
8.469:450
8.470:472
8.470:481
8.473:495
8.473:486
8.473:476
8.474:480
8.474:467
8.475:437
8.475:417
8.475:426
8.475:410
8.478:400
8.478:389
8.478:393
8.478:396
8.478:382
8.479:389
8.479:414
8.479:429
8.479:453
8.479:478
8.481:477
8.481:478
8.481:483
8.482:492
8.482:526
8.498:526
8.498:531
8.498:507
8.499:473
8.499:452
8.502:422
8.502:410
8.502:389
8.503:381
8.503:383
8.503:366
8.503:393
8.503:425
8.503:458
8.506:486
8.506:522
8.506:520
8.506:513
8.507:508
8.507:513
8.507:533
8.507:539
8.507:532
8.507:485
8.510:432
8.510:402
8.510:411
8.511:416
8.511:415
8.511:419
8.526:370
8.530:367
8.531:402
8.531:444
8.531:474
8.533:501
8.533:509
8.533:527
8.533:543
8.533:556
8.533:583
8.535:541
8.535:484
8.535:434
8.536:404
8.536:393
8.536:396
8.536:399
8.536:414
8.537:413
8.537:375
8.539:385
8.539:408
8.539:437
8.539:459
8.540:493
8.540:511
8.540:529
8.540:534
8.540:494
8.554:494
8.559:500
8.559:489
8.559:472
8.559:438
8.559:422
8.560:429
8.560:445
8.560:431
8.560:419
8.563:424
8.563:395
8.564:401
8.564:428
8.564:461
8.564:488
8.564:510
8.564:519
8.565:519
8.565:519
8.568:516
8.568:550
8.568:546
8.568:520
8.568:482
8.569:460
8.569:436
8.569:411
8.569:406
8.572:420
8.587:435
8.588:416
8.588:419
8.588:423
8.588:443
8.588:462
8.588:494
8.592:518
8.592:527
8.592:519
8.592:513
8.593:535
8.593:513
8.593:469
8.593:441
8.593:443
8.596:442
8.597:442
8.597:431
8.597:434
8.597:418
8.598:398
8.598:422
8.598:434
8.598:461
8.598:487
8.600:521
8.600:529
8.600:534
8.600:525
8.617:525
8.617:515
8.617:529
8.617:499
8.618:466
8.618:456
8.621:463
8.621:444
8.621:424
8.621:412
8.622:411
8.622:425
8.623:407
8.623:422
8.623:439
8.623:451
8.625:467
8.625:500
8.625:539
8.626:565
8.626:564
8.626:526
8.626:540
8.626:516
8.626:496
8.629:479
8.630:457
8.630:429
8.630:411
8.630:407
8.645:416
8.645:429
8.645:406
8.650:421
8.650:419
8.650:446
8.650:487
8.651:525
8.651:530
8.651:534
8.651:542
8.651:534
8.653:548
8.653:527
8.655:498
8.655:464
8.655:444
8.655:408
8.656:397
8.656:390
8.656:402
8.656:416
8.658:422
8.658:453
8.658:462
8.658:486
8.659:493
8.659:503
8.659:503
8.659:507
8.673:507
8.674:511
8.678:518
8.678:546
8.678:535
8.679:509
8.679:480
8.680:451
8.681:418
8.681:425
8.681:431
8.682:420
8.682:418
8.682:408
8.682:439
8.683:458
8.683:469
8.683:488
8.683:519
8.683:521
8.683:553
8.686:562
8.686:543
8.686:548
8.686:521
8.687:486
8.687:457
8.687:443
8.687:426
8.687:417
8.706:408
8.706:418
8.706:419
8.708:388
8.708:400
8.708:438
8.708:478
8.708:493
8.711:517
8.711:530
8.712:543
8.712:540
8.713:541
8.713:561
8.713:522
8.713:495
8.713:474
8.713:467
8.715:440
8.715:421
8.715:415
8.715:414
8.717:408
8.717:405
8.717:446
8.717:474
8.717:499
8.719:510
8.719:543
8.719:548
8.735:548
8.735:552
8.735:552
8.735:541
8.735:554
8.736:526
8.736:489
8.740:461
8.740:443
8.740:417
8.740:405
8.741:401
8.741:426
8.741:444
8.741:421
8.741:441
8.741:473
8.744:510
8.744:524
8.744:542
8.744:544
8.745:536
8.745:519
8.746:516
8.747:555
8.747:552
8.747:530
8.747:487
8.747:470
8.747:456
8.763:446
8.763:448
8.764:454
8.764:432
8.768:416
8.768:441
8.768:456
8.768:479
8.769:506
8.769:528
8.769:524
8.769:547
8.769:569
8.770:582
8.772:600
8.772:580
8.772:543
8.772:497
8.772:465
8.773:437
8.773:421
8.773:415
8.773:435
8.776:456
8.776:461
8.776:485
8.776:488
8.776:504
8.776:519
8.778:529
8.792:529
8.792:528
8.792:537
8.796:523
8.797:528
8.797:578
8.797:562
8.797:553
8.797:540
8.798:514
8.798:479
8.798:467
8.798:479
8.801:491
8.801:476
8.801:446
8.801:457
8.802:452
8.802:477
8.802:511
8.802:555
8.802:568
8.805:564
8.805:542
8.805:533
8.805:549
8.805:518
8.805:496
8.805:472
8.807:451
8.825:433
8.825:420
8.825:412
8.825:420
8.827:416
8.827:397
8.827:416
8.827:437
8.827:472
8.828:493
8.830:507
8.830:525
8.830:525
8.831:508
8.831:499
8.831:522
8.831:516
8.831:499
8.831:463
8.834:443
8.834:423
8.834:420
8.834:422
8.835:420
8.835:405
8.835:377
8.835:397
8.835:410
8.836:449
8.837:483
8.853:483
8.855:521
8.855:539
8.855:542
8.855:532
8.855:500
8.855:496
8.856:481
8.856:473
8.858:453
8.858:442
8.859:435
8.859:432
8.859:435
8.859:442
8.859:440
8.860:431
8.860:422
8.862:411
8.863:448
8.863:493
8.863:536
8.863:558
8.865:546
8.865:540
8.865:546
8.865:548
8.865:520
8.866:512
8.866:498
8.882:473
8.882:443
8.883:421
8.883:428
8.883:427
8.887:408
8.887:412
8.887:439
8.887:463
8.888:488
8.888:495
8.888:499
8.888:510
8.888:526
8.888:544
8.891:559
8.891:558
8.891:531
8.891:514
8.892:481
8.892:470
8.892:469
8.892:484
8.892:503
8.893:495
8.895:480
8.896:497
8.896:559
8.896:596
8.896:627
8.911:627
8.911:652
8.911:694
8.912:730
8.912:754
8.916:762
8.916:770
8.916:775
8.917:756
8.917:761
8.917:767
8.917:794
8.917:812
8.917:828
8.920:850
8.920:874
8.920:871
8.920:871
8.921:909
8.921:934
8.921:950
8.921:966
8.921:966
8.922:946
8.923:892
8.923:828
8.923:776
8.923:710
8.925:618
8.925:532
8.940:445
8.944:363
8.944:298
8.944:279
8.944:299
8.946:310
8.946:278
8.946:261
8.947:282
8.947:288
8.947:321
8.948:342
8.948:368
8.948:383
8.949:386
8.949:388
8.949:395
8.949:411
8.949:430
8.950:430
8.953:411
8.953:388
8.953:366
8.953:345
8.953:342
8.953:354
8.953:361
8.954:368
8.954:401
8.954:435
8.973:435
8.973:454
8.973:464
8.973:484
8.974:500
8.974:488
8.974:453
8.974:455
8.974:476
8.975:464
8.977:454
8.977:453
8.977:447
8.977:424
8.978:406
8.978:410
8.979:403
8.979:387
8.979:380
8.979:405
8.981:455
8.981:487
8.982:511
8.982:538
8.982:544
8.982:522
8.982:515
8.982:536
8.983:547
8.985:527
9.002:506
9.002:474
9.002:443
9.002:416
9.002:406
9.003:427
9.003:431
9.005:391
9.005:368
9.006:400
9.006:429
9.006:458
9.006:482
9.006:495
9.006:509
9.007:515
9.010:505
9.010:516
9.010:525
9.011:508
9.011:495
9.011:490
9.011:474
9.012:446
9.012:423
9.013:432
9.013:432
9.013:408
9.015:410
9.015:447
9.030:447
9.030:473
9.030:491
9.030:519
9.030:529
9.031:539
9.034:546
9.034:551
9.034:561
9.035:558
9.035:515
9.035:478
9.035:440
9.036:423
9.036:423
9.039:421
9.039:436
9.039:432
9.039:394
9.040:411
9.040:483
9.040:535
9.040:569
9.040:570
9.040:547
9.042:528
9.042:528
9.042:528
9.042:559
9.042:573
9.059:548
9.059:510
9.059:478
9.063:466
9.063:465
9.063:460
9.064:463
9.064:472
9.064:456
9.065:437
9.065:448
9.065:475
9.067:508
9.067:541
9.067:549
9.067:554
9.068:559
9.068:569
9.068:575
9.068:561
9.068:520
9.069:484
9.071:482
9.071:475
9.071:466
9.071:460
9.072:459
9.072:463
9.072:433
9.072:445
9.087:445
9.087:478
9.092:496
9.092:501
9.092:518
9.092:560
9.093:595
9.093:601
9.093:592
9.093:607
9.093:603
9.096:566
9.096:538
9.096:541
9.097:539
9.097:494
9.097:455
9.097:466
9.097:483
9.097:447
9.097:431
9.100:446
9.100:467
9.100:516
9.100:539
9.101:551
9.101:554
9.101:562
9.101:600
9.101:654
9.121:662
9.121:626
9.121:588
9.121:554
9.121:526
9.121:513
9.122:501
9.122:506
9.125:507
9.125:476
9.125:485
9.126:517
9.126:535
9.126:560
9.126:587
9.126:603
9.126:621
9.126:626
9.129:626
9.129:658
9.130:653
9.130:629
9.130:596
9.130:559
9.130:531
9.131:519
9.131:506
9.133:520
9.133:524
9.133:509
9.149:509
9.149:522
9.149:546
9.149:567
9.149:594
9.149:633
9.150:638
9.153:598
9.153:599
9.153:622
9.153:646
9.154:658
9.154:638
9.154:602
9.154:572
9.154:550
9.155:535
9.157:538
9.158:542
9.158:533
9.158:479
9.158:487
9.158:528
9.159:565
9.159:576
9.159:614
9.161:643
9.162:654
9.162:640
9.162:634
9.177:668
9.178:660
9.178:615
9.178:582
9.182:579
9.182:556
9.182:538
9.183:524
9.183:512
9.183:499
9.183:477
9.183:484
9.183:519
9.183:552
9.185:582
9.185:609
9.185:612
9.185:628
9.187:623
9.187:617
9.187:622
9.187:595
9.187:554
9.190:519
9.190:498
9.190:462
9.190:446
9.191:439
9.191:433
9.191:441
9.206:441
9.206:423
9.206:417
9.211:445
9.211:478
9.211:492
9.211:514
9.212:526
9.212:533
9.213:501
9.213:477
9.213:498
9.213:483
9.215:441
9.215:410
9.215:379
9.215:352
9.215:341
9.215:331
9.215:330
9.215:334
9.215:310
9.219:313
9.219:342
9.219:368
9.219:377
9.220:415
9.220:456
9.220:468
9.220:454
9.239:437
9.239:463
9.239:454
9.239:411
9.240:383
9.240:333
9.240:282
9.240:274
9.240:273
9.244:278
9.244:272
9.244:235
9.244:242
9.244:289
9.244:329
9.244:363
9.246:400
9.246:402
9.246:425
9.247:426
9.247:419
9.247:448
9.248:454
9.248:418
9.248:381
9.248:326
9.248:284
9.249:261
9.249:256
9.250:278
9.268:278
9.268:293
9.268:262
9.268:280
9.268:319
9.269:344
9.269:380
9.269:407
9.269:410
9.272:409
9.272:418
9.272:417
9.272:442
9.272:429
9.273:396
9.273:369
9.273:345
9.273:308
9.275:292
9.275:282
9.276:291
9.276:297
9.276:276
9.276:300
9.278:337
9.278:379
9.278:421
9.278:464
9.279:471
9.279:475
9.296:473
9.296:469
9.296:473
9.296:449
9.297:424
9.301:416
9.301:395
9.301:348
9.301:324
9.302:306
9.302:320
9.302:322
9.302:293
9.302:321
9.302:370
9.305:391
9.305:407
9.305:437
9.306:439
9.306:428
9.306:422
9.306:425
9.306:476
9.307:483
9.308:437
9.309:406
9.309:373
9.309:329
9.309:318
9.310:312
9.325:312
9.325:318
9.325:352
9.325:345
9.325:353
9.329:388
9.329:417
9.329:446
9.329:491
9.330:492
9.330:484
9.330:484
9.330:469
9.331:491
9.334:488
9.334:477
9.334:456
9.334:435
9.334:403
9.334:389
9.334:380
9.335:370
9.335:361
9.335:330
9.337:352
9.337:372
9.337:412
9.337:453
9.338:496
9.338:524
9.353:534
9.358:524
9.358:502
9.358:513
9.358:501
9.359:492
