466
458
448
448
434
445
463
464
474
487
491
495
470
445
442
461
459
456
455
471
474
469
454
445
438
447
459
469
478
474
467
473
468
450
434
434
448
443
466
485
489
473
457
460
479
509
523
507
479
458
430
408
417
444
443
424
431
441
449
458
459
462
460
459
477
510
548
585
629
664
691
723
757
776
808
850
890
921
956
990
989
988
988
988
988
988
988
988
988
988
989
989
958
896
869
873
819
749
687
621
548
472
396
335
265
191
145
109
111
125
131
147
163
183
208
225
224
233
263
279
288
298
297
302
324
342
352
361
379
392
392
391
392
388
394
407
407
407
394
374
380
398
410
403
385
392
417
440
460
459
434
425
421
395
392
412
427
417
407
419
426
422
411
435
476
490
476
460
444
441
451
454
459
445
453
469
473
455
430
438
456
468
464
448
436
435
442
462
461
476
471
467
473
487
483
484
465
462
469
489
504
500
483
471
454
440
451
473
488
502
508
504
495
502
508
486
467
463
460
449
466
481
511
527
532
524
514
501
494
489
500
518
519
522
531
542
539
540
516
524
513
500
500
514
529
520
523
526
532
533
530
532
518
508
514
534
536
534
529
550
554
547
568
583
610
596
576
565
553
571
600
611
608
612
615
620
612
601
599
603
610
611
612
602
594
596
585
580
576
574
568
597
615
630
630
611
588
579
598
575
581
606
608
607
612
596
593
590
598
590
570
560
549
544
530
540
551
548
543
541
556
573
534
496
514
519
509
489
496
519
496
492
499
486
489
507
468
444
439
439
442
436
439
443
443
442
427
415
415
420
425
424
428
428
424
398
378
383
401
416
402
386
380
376
380
380
373
374
373
364
371
395
407
405
398
407
414
420
395
376
388
392
368
351
362
379
378
380
383
376
369
386
404
421
419
412
419
446
429
401
395
400
413
416
405
413
420
419
396
396
415
427
461
471
472
471
454
436
429
419
421
422
426
422
418
431
434
427
435
435
452
453
438
438
438
426
424
431
432
430
438
434
436
422
428
443
452
447
442
461
468
468
451
463
467
461
449
448
456
454
449
463
474
452
428
428
436
451
464
460
454
454
452
464
466
458
451
443
445
448
450
446
447
448
443
439
449
460
464
470
469
442
424
425
427
443
459
474
460
460
463
461
458
440
441
457
478
479
455
455
471
488
492
490
476
464
469
441
419
423
440
454
460
460
463
476
482
477
470
477
485
488
463
434
428
446
451
460
466
465
456
451
446
428
421
437
438
428
440
461
508
533
505
487
489
483
482
488
489
487
488
482
487
488
498
507
498
484
488
492
492
488
479
485
487
485
467
472
491
481
485
472
472
483
490
485
479
477
493
487
487
492
496
496
493
511
510
509
513
502
497
517
527
510
505
513
536
549
542
498
458
452
468
483
494
523
529
521
493
477
465
472
472
450
447
458
454
458
462
482
477
447
429
427
434
449
455
460
460
473
472
468
472
476
480
472
463
468
457
458
464
493
485
468
452
451
461
461
458
446
442
455
460
452
469
456
454
467
477
466
452
455
447
460
458
451
462
463
448
443
439
434
442
448
444
435
457
473
472
471
480
494
491
481
504
540
569
608
639
669
698
744
770
810
856
902
945
977
989
989
989
989
989
988
988
988
988
988
989
989
989
962
909
864
831
778
720
673
615
564
507
447
373
286
199
151
136
131
142
133
140
164
195
222
247
240
237
247
260
278
285
306
321
337
348
360
367
371
373
381
380
382
392
411
414
404
399
407
407
405
408
418
415
409
390
386
397
420
435
447
439
428
418
430
433
434
437
441
437
448
458
448
439
422
424
435
440
432
424
428
445
458
458
456
468
467
458
461
449
435
437
451
460
455
447
432
452
460
445
447
464
472
446
444
447
451
454
465
466
471
482
486
498
494
484
489
483
484
483
487
476
466
478
488
501
507
511
520
498
479
483
492
484
487
492
485
494
519
529
502
481
487
510
512
504
515
511
505
503
506
516
518
524
535
554
553
553
539
531
546
552
543
541
546
557
558
543
527
539
574
578
553
537
543
546
570
599
616
616
595
582
588
584
577
590
604
605
597
594
604
590
576
587
595
602
597
588
570
559
573
589
622
619
628
616
587
567
560
563
573
564
567
559
562
580
569
553
546
547
548
545
554
562
562
545
539
542
542
521
519
515
516
537
537
538
538
517
496
493
490
487
501
497
481
464
463
462
463
457
448
450
429
427
426
441
438
441
447
430
414
408
418
413
393
382
395
387
383
386
392
393
387
385
397
397
382
383
381
382
380
384
402
392
364
359
375
381
378
389
409
417
410
407
419
423
411
404
407
406
405
414
416
401
396
395
398
413
424
416
406
412
411
414
418
416
417
417
420
421
419
431
419
406
407
451
447
435
433
444
443
452
469
472
444
428
423
432
441
439
424
427
434
424
429
439
442
431
426
429
440
449
458
476
472
463
464
468
469
463
464
456
451
439
444
438
421
413
418
424
463
494
489
470
463
450
456
466
453
444
438
426
440
443
440
453
461
455
448
446
445
436
436
450
472
485
469
455
439
440
442
453
477
507
505
481
472
455
464
463
445
459
456
447
437
448
463
450
450
445
445
453
456
445
459
464
464
477
483
484
474
480
474
465
470
465
465
461
463
463
455
446
445
444
448
455
469
479
480
470
485
496
493
485
468
479
490
498
495
491
489
473
463
461
462
475
484
495
487
470
473
486
495
487
462
445
460
479
488
488
495
494
510
511
502
506
506
509
500
501
503
487
479
483
474
457
451
451
456
480
493
488
481
464
461
466
475
480
474
469
470
474
492
498
488
466
472
470
455
458
479
477
454
437
446
464
466
456
459
464
460
459
454
452
431
429
436
439
442
490
512
484
466
472
466
444
450
475
479
472
467
458
459
486
488
474
461
474
465
431
441
444
447
450
448
453
460
465
466
463
469
467
458
458
470
489
494
484
498
535
571
609
648
690
716
744
777
798
843
882
910
924
951
989
989
989
989
988
988
989
989
989
990
945
898
862
828
790
731
666
622
601
581
562
493
433
361
306
248
185
156
155
138
128
139
163
191
220
252
280
273
283
294
298
312
331
330
313
287
292
325
360
392
412
417
408
400
403
406
423
426
407
403
424
438
426
422
434
422
417
406
403
409
423
424
419
428
444
443
434
446
448
449
451
444
439
434
429
448
461
469
472
469
453
452
466
466
448
435
447
467
463
465
463
461
451
456
468
479
481
473
468
475
476
466
456
453
468
469
483
484
477
490
506
494
477
490
486
474
466
470
482
489
496
477
482
510
526
528
533
529
489
457
451
460
476
490
489
486
486
487
488
506
511
507
512
527
540
532
515
505
512
515
516
522
524
528
539
545
559
558
543
530
543
535
524
537
557
559
555
557
562
557
562
561
560
562
572
601
597
604
599
581
574
560
561
568
559
566
585
577
574
589
602
600
587
577
569
568
593
596
603
593
579
565
560
573
575
590
593
590
588
590
584
570
565
569
568
562
553
558
557
545
536
550
556
551
538
530
542
544
546
541
527
516
501
507
516
510
507
499
480
451
434
456
475
479
474
481
482
463
456
439
434
448
452
448
436
423
435
438
441
433
430
413
392
392
397
400
395
406
406
394
407
423
419
411
400
398
392
384
384
381
397
405
398
394
398
394
402
412
404
411
415
408
403
425
422
418
407
396
394
386
382
386
403
418
427
426
419
424
434
431
414
411
414
417
427
430
434
436
438
419
406
405
402
402
411
418
433
436
451
470
473
461
435
424
420
416
418
428
433
459
469
458
472
470
460
455
454
468
459
477
488
470
435
429
446
432
419
432
447
459
466
473
488
502
497
487
470
459
445
461
473
470
447
440
448
440
430
450
464
469
462
454
454
457
451
448
452
474
470
467
455
462
461
448
442
443
439
437
458
483
487
482
470
472
474
467
452
441
442
451
454
452
456
464
472
479
479
468
452
446
454
465
468
487
490
486
475
463
473
487
490
474
462
472
488
491
505
509
499
487
482
495
512
515
519
491
464
466
476
478
495
503
472
461
489
505
503
512
502
495
483
485
474
464
478
490
488
497
502
502
500
494
493
489
490
476
453
456
456
463
472
466
460
465
468
481
496
482
464
457
451
439
442
442
448
489
470
458
450
445
438
457
465
466
474
476
483
485
474
464
459
443
441
462
488
492
484
480
471
473
478
478
477
476
462
446
451
478
475
463
457
444
449
455
467
469
477
462
440
428
436
443
436
433
428
416
430
435
440
458
486
509
507
497
504
521
538
538
545
571
593
616
661
702
746
788
805
829
865
895
917
934
951
970
981
985
989
989
989
989
989
978
930
874
838
802
785
756
704
646
589
541
500
452
400
339
284
225
183
162
146
141
152
180
204
221
236
240
252
258
264
273
279
279
297
313
322
336
357
386
387
386
395
393
404
425
451
450
437
438
438
433
437
422
396
392
403
415
430
433
432
432
437
441
444
452
446
437
441
437
425
438
446
454
459
446
431
426
437
452
456
480
497
482
453
439
463
481
479
454
450
452
461
481
466
475
483
469
453
457
473
466
440
458
488
496
491
483
477
472
470
475
489
504
510
510
498
503
495
486
481
491
503
513
511
493
471
453
465
482
499
508
504
497
495
486
489
503
504
497
498
494
485
502
514
522
535
533
522
524
505
492
519
532
538
524
518
525
518
522
527
526
525
525
527
539
550
551
560
566
567
570
570
562
550
546
549
568
575
590
610
606
597
594
581
582
588
586
592
594
588
576
563
551
566
602
602
598
596
596
590
584
588
582
575
577
590
588
598
600
588
574
575
561
562
558
554
562
561
567
563
550
551
548
553
546
515
510
522
514
518
525
521
519
516
495
488
505
500
497
489
472
464
471
476
480
476
483
499
473
432
415
414
418
428
436
447
450
432
422
435
430
416
403
416
436
422
398
402
403
407
405
406
412
410
405
372
362
379
393
389
383
391
387
399
411
411
395
400
416
410
406
408
410
411
402
405
418
405
404
416
435
428
435
427
414
420
418
416
426
430
434
428
410
408
421
418
426
427
411
402
404
420
428
428
421
429
416
424
452
446
444
448
441
443
452
440
419
411
441
468
473
463
446
447
444
437
439
443
451
438
423
419
420
428
452
480
490
490
475
453
439
441
450
465
478
504
512
510
500
477
464
454
448
444
460
458
452
445
443
450
460
467
465
463
462
464
462
457
472
478
462
463
463
464
453
464
479
478
488
477
465
443
442
430
464
493
501
487
475
462
458
458
466
466
458
466
471
464
453
454
462
452
442
429
446
457
451
449
445
444
445
468
482
484
478
474
471
465
452
439
428
427
432
471
494
495
492
497
513
506
469
447
457
494
490
487
491
492
474
474
497
501
510
505
496
504
508
491
479
488
485
483
466
452
449
474
494
514
508
506
496
507
510
520
516
506
502
515
515
500
500
500
503
530
521
523
540
519
505
503
497
476
454
460
467
456
450
466
481
460
458
458
460
448
459
472
467
463
464
470
462
447
442
456
465
470
467
464
469
467
468
465
453
447
450
454
442
428
445
443
446
451
471
475
465
460
462
462
448
438
448
465
473
482
474
466
466
484
497
475
1
518
521
539
543
551
571
577
571
553
547
554
558
546
534
523
520
519
518
519
538
552
533
503
508
0
515
518
521
539
543
551
571
577
571
553
547
554
558
546
534
523
520
519
518
519
538
552
533
503
508
523
5
518
521
539
543
551
571
577
571
553
547
554
558
546
534
523
520
519
518
519
538
552
533
503
508
523
520
512
515
518
515
505
498
494
500
504
484
477
481
466
431
411
405
425
441
439
455
475
457
443
443
429
430
411
422
436
438
432
429
417
400
401
406
427
421
397
396
411
443
444
447
435
425
443
447
428
444
450
421
404
404
428
420
421
425
414
398
403
421
435
436
444
452
452
427
410
414
412
416
438
432
417
412
423
440
432
421
425
436
432
435
454
470
440
423
418
405
398
397
430
445
446
446
439
437
441
450
452
453
459
435
432
442
435
438
440
440
440
448
444
444
456
465
463
440
457
479
479
469
455
461
454
455
455
448
452
448
442
434
439
447
455
457
463
453
458
459
457
445
444
460
470
468
458
478
504
480
466
466
462
447
447
445
447
454
461
463
464
455
443
440
455
467
466
458
450
452
462
459
459
444
437
434
437
453
471
458
443
461
467
445
440
450
462
452
447
469
470
464
459
461
460
466
471
472
491
484
477
484
483
477
476
476
467
457
464
466
473
483
469
461
475
466
469
479
499
490
499
495
492
495
484
479
474
472
473
496
495
508
498
468
468
492
515
522
520
509
502
505
514
513
527
527
517
496
482
474
469
463
465
472
474
465
473
470
461
466
481
477
463
458
462
489
490
478
450
448
448
452
441
441
457
491
500
492
497
484
469
456
451
456
440
448
455
461
471
482
490
461
432
445
464
460
461
468
478
479
483
477
471
483
480
483
481
462
452
462
446
444
442
451
446
438
446
449
448
452
459
470
484
485
496
512
524
540
552
577
602
627
667
729
807
854
885
906
923
952
990
989
989
989
988
988
988
988
988
988
988
989
989
987
940
893
853
814
751
681
621
563
515
449
367
278
216
182
152
132
124
125
136
154
172
187
196
212
225
250
273
288
294
276
273
289
298
314
334
357
378
381
383
378
378
377
389
404
428
422
396
387
366
365
372
396
416
424
432
440
436
431
429
426
421
419
429
427
436
425
430
430
441
446
439
447
424
416
420
429
441
460
448
449
451
441
434
468
479
454
437
445
450
451
457
462
460
466
467
466
457
458
470
468
465
473
479
479
466
461
475
470
461
457
452
469
493
503
509
493
469
476
499
480
467
453
463
489
494
486
478
480
482
473
474
492
499
510
515
519
520
529
516
518
520
527
513
501
501
511
519
527
521
518
515
533
536
526
521
501
490
496
511
539
548
543
531
527
531
538
538
537
555
558
557
559
550
549
565
575
575
571
554
544
555
566
571
571
555
562
584
606
598
570
557
554
562
575
572
584
588
579
574
566
561
550
551
555
560
560
563
563
570
569
568
577
561
547
551
567
558
550
540
537
528
515
509
544
557
545
538
551
554
543
520
509
506
500
493
468
479
499
505
497
487
483
479
478
468
455
460
468
480
475
451
455
470
474
473
453
424
422
413
400
421
426
406
411
436
426
434
444
438
437
452
460
447
432
421
403
402
400
402
403
416
412
421
422
416
402
394
401
416
422
423
440
425
426
426
425
421
423
424
433
438
436
432
425
417
425
430
431
415
428
445
443
440
447
458
463
460
459
453
449
456
435
435
443
448
451
442
446
455
453
438
442
449
446
437
437
432
446
459
452
446
442
448
440
437
445
454
462
474
486
479
472
450
440
443
453
450
447
443
441
479
482
466
449
448
446
456
467
469
464
445
425
430
442
428
424
450
460
470
469
447
429
442
455
451
446
454
447
445
436
432
446
466
479
467
473
475
476
472
466
472
468
474
475
479
476
483
484
482
475
463
471
489
494
474
460
464
472
476
468
467
465
463
459
457
469
471
472
478
481
471
468
477
480
472
471
465
479
479
463
458
471
472
476
485
500
500
494
489
495
490
483
487
492
494
486
492
490
497
492
477
483
487
496
524
517
489
457
431
430
432
439
459
471
473
467
473
488
482
468
466
458
474
484
490
485
484
468
460
446
429
447
470
467
453
461
465
480
476
467
466
480
492
490
486
464
447
439
451
461
463
464
460
464
472
471
463
472
465
447
439
444
454
459
469
471
478
485
483
466
451
450
467
459
441
433
437
446
458
489
501
495
483
485
498
513
536
555
576
642
690
716
741
778
793
816
844
869
897
938
976
990
989
989
989
989
989
989
989
990
966
919
869
838
814
770
714
675
603
548
503
451
409
352
289
227
182
147
132
133
140
164
175
167
171
198
229
245
252
270
289
301
294
301
316
329
342
360
382
389
403
422
430
416
415
414
427
427
421
430
419
418
431
436
430
436
448
440
425
410
403
422
433
439
445
444
439
439
441
438
439
457
473
472
454
445
443
445
449
445
446
455
456
442
444
465
472
461
441
437
448
466
465
463
459
467
481
478
474
486
493
493
496
484
484
477
471
476
477
474
471
474
476
482
484
476
493
495
487
488
504
501
486
459
453
484
524
531
512
510
524
526
524
518
496
483
483
476
484
486
484
500
514
519
519
514
515
518
511
514
519
521
529
541
536
539
542
540
520
507
514
519
527
539
558
567
561
546
542
547
555
568
562
574
569
550
534
540
551
563
575
575
573
582
582
579
575
581
570
568
594
610
577
547
535
545
562
599
630
606
558
536
546
558
563
561
564
558
549
548
545
545
544
537
548
566
560
561
551
536
527
520
517
523
541
551
551
540
530
529
536
529
535
535
529
530
535
527
523
516
510
504
485
464
472
481
484
470
447
454
453
465
476
480
462
441
449
454
446
432
429
433
431
424
416
405
406
413
415
409
412
420
419
400
398
402
414
424
450
457
436
421
417
411
405
395
380
405
414
420
436
455
459
455
454
429
410
396
400
418
419
416
409
426
427
420
428
434
435
433
434
439
439
434
426
440
441
431
439
446
444
447
457
455
448
438
426
412
421
436
451
448
456
453
460
476
460
447
436
446
477
486
475
454
453
457
446
441
456
470
471
471
462
449
442
442
448
444
449
457
473
466
475
460
456
461
455
444
434
448
459
455
455
456
468
460
440
434
454
476
474
466
476
486
478
464
466
476
466
470
475
466
459
458
471
486
484
480
459
445
448
448
456
461
470
482
484
480
471
461
460
477
484
478
450
437
444
472
479
481
484
469
471
478
469
464
465
468
476
484
464
445
453
469
481
487
503
522
513
508
496
479
478
474
473
486
499
495
484
487
482
481
482
471
469
468
461
448
442
445
454
464
465
472
485
499
481
464
452
448
445
441
449
458
462
470
471
464
452
454
458
457
471
469
462
450
442
446
460
467
470
482
477
465
465
467
460
454
447
451
468
467
458
466
460
428
415
441
466
454
464
479
478
466
451
442
440
445
450
457
452
444
451
449
452
475
518
553
568
556
557
580
611
644
664
694
757
807
830
848
882
907
923
949
974
989
989
989
989
989
990
990
964
912
872
852
827
797
780
748
667
562
510
500
496
448
378
312
243
197
167
145
128
143
148
146
159
182
206
232
247
252
268
290
305
324
330
330
337
353
368
385
396
400
391
394
428
456
437
423
415
413
423
428
430
426
423
426
428
423
416
402
405
432
450
444
432
425
432
432
420
440
450
448
446
452
462
456
458
455
450
448
433
450
456
457
456
475
492
480
456
441
449
457
479
489
480
480
471
459
460
468
472
471
450
453
466
467
475
484
482
480
487
483
479
479
483
481
466
455
453
462
467
463
473
479
485
504
520
515
500
479
488
515
506
499
499
501
501
488
488
501
480
485
501
538
533
507
488
495
521
535
527
516
513
513
518
526
541
551
571
574
568
538
531
539
544
554
559
558
545
540
559
568
564
559
540
535
546
550
562
580
569
563
556
558
569
571
575
584
599
607
605
579
550
545
536
547
585
591
583
581
570
564
549
541
545
536
534
540
554
559
564
574
595
579
555
532
521
526
537
553
559
566
567
559
544
524
523
528
528
521
522
525
531
525
524
514
518
511
492
499
501
478
445
431
450
472
484
489
502
498
475
467
453
451
459
464
453
450
443
445
441
425
413
420
410
408
418
426
430
424
427
400
396
397
396
406
401
411
415
417
419
429
428
424
419
413
408
409
409
409
428
439
431
433
429
430
429
429
440
452
439
429
434
450
448
440
432
432
432
418
434
432
425
423
418
429
426
403
392
406
408
412
444
473
486
500
489
473
462
443
443
455
449
437
433
434
436
449
459
452
437
436
441
432
433
448
468
483
479
461
460
451
451
462
456
437
430
450
461
462
473
494
503
487
472
467
445
448
473
465
457
437
436
443
435
417
397
402
430
465
466
473
492
514
501
478
471
464
454
441
448
455
451
447
465
463
424
425
450
447
442
457
471
485
495
488
486
489
500
494
469
466
463
457
458
468
476
476
480
482
463
453
457
465
465
461
439
439
463
454
459
460
457
477
477
492
514
502
487
490
501
499
482
478
487
498
504
501
498
488
480
475
493
527
537
525
507
496
489
484
481
483
495
475
465
468
453
446
457
467
464
452
451
446
463
467
462
464
466
475
477
477
466
459
456
465
479
473
461
447
445
440
446
444
440
459
460
453
440
445
456
435
440
446
447
440
451
470
457
461
467
479
479
474
465
465
458
451
458
467
459
451
448
459
453
441
433
439
448
453
460
452
448
434
449
478
496
498
510
516
521
540
559
580
613
668
707
734
767
804
837
861
885
923
962
979
990
989
989
989
988
988
989
989
989
989
975
945
921
859
806
755
699
644
593
537
486
432
365
296
223
174
144
138
165
191
187
180
181
192
212
238
250
252
257
274
293
311
333
353
365
368
357
366
375
382
379
372
382
387
389
375
370
376
400
419
412
407
399
409
427
421
406
422
422
410
420
431
445
445
434
429
427
417
409
407
409
433
435
438
455
460
456
445
431
430
427
423
421
431
460
471
458
454
462
467
474
476
481
476
463
449
447
451
461
461
462
474
474
461
449
455
466
469
455
450
459
477
494
490
476
483
470
452
457
480
483
490
494
498
497
499
496
477
474
463
465
484
508
506
503
498
490
489
517
536
533
528
513
495
490
484
483
493
512
524
525
520
519
509
488
480
489
503
528
542
548
548
548
557
549
535
532
542
517
518
521
539
529
544
573
591
580
568
575
580
555
543
562
569
562
556
551
549
548
548
557
563
565
547
525
499
486
522
570
607
620
603
606
597
581
575
559
539
538
563
571
567
555
555
552
544
534
547
536
519
532
543
556
546
546
545
527
514
516
511
501
509
518
513
518
507
495
494
490
482
491
492
475
473
471
487
473
451
445
439
447
459
439
412
413
423
432
436
444
462
459
433
434
439
429
433
435
433
416
414
426
422
408
388
396
400
413
423
433
429
414
402
388
381
390
402
406
399
398
402
423
444
437
433
447
442
430
438
421
401
400
400
407
422
431
439
434
427
436
434
458
457
471
463
443
442
447
442
440
433
441
443
444
453
456
453
450
458
464
460
455
450
444
446
458
460
453
447
443
445
429
421
436
461
471
477
469
458
443
451
462
465
459
464
460
457
464
478
466
446
443
448
457
449
445
438
436
460
467
451
437
435
439
432
438
445
438
440
456
453
445
450
458
464
469
478
466
456
463
456
455
462
450
430
434
444
439
451
455
454
441
426
430
431
440
466
469
465
475
468
450
448
450
446
449
460
456
450
451
453
462
470
483
495
492
479
470
462
456
452
466
468
454
442
460
481
492
491
474
465
468
469
470
479
479
469
462
472
478
486
481
471
476
456
437
437
471
510
522
511
496
501
497
484
490
491
481
473
473
481
476
483
497
488
490
490
472
477
494
496
496
490
495
502
510
511
503
471
450
473
487
498
505
513
511
491
487
477
478
468
462
468
468
472
473
462
444
452
440
445
454
454
456
448
440
427
425
441
466
481
495
479
451
444
443
450
468
495
484
463
480
487
481
471
460
442
438
441
445
460
481
474
459
456
452
461
467
455
450
466
468
470
457
446
458
474
462
450
460
454
447
452
452
443
432
423
425
435
440
439
436
433
437
441
466
502
531
535
545
580
617
655
703
750
768
809
843
876
923
973
990
989
989
989
989
988
988
988
988
988
988
988
989
989
989
941
894
853
799
727
656
600
537
468
387
298
234
187
162
141
121
125
140
168
173
174
189
196
199
213
244
277
294
296
305
321
339
354
359
361
372
374
382
391
386
369
363
369
371
380
376
384
399
406
404
395
390
385
402
408
394
394
416
434
444
433
414
407
421
411
392
388
408
430
459
447
429
435
446
436
435
444
445
440
439
440
431
426
426
447
453
454
446
433
440
460
455
444
437
425
435
451
471
496
498
495
496
495
473
435
434
442
442
464
483
484
486
485
463
457
469
462
453
456
487
498
500
485
469
460
458
463
477
488
499
483
471
466
465
478
497
515
533
544
527
520
511
509
494
483
486
488
501
505
509
508
513
525
535
550
543
517
536
548
542
534
524
523
533
551
563
550
548
553
556
555
545
537
540
559
555
547
543
551
550
553
555
561
575
582
564
555
568
577
584
566
567
568
549
530
533
542
539
543
553
599
611
610
603
584
559
546
542
545
562
561
556
545
547
549
551
560
559
551
532
518
522
519
509
503
502
501
491
475
485
518
524
511
494
491
498
511
515
500
482
485
482
466
452
461
484
490
470
451
460
460
447
432
443
441
441
450
439
431
443
450
448
440
426
418
402
406
425
433
435
440
438
432
424
408
394
405
416
423
432
437
441
438
404
386
390
396
418
439
440
432
423
415
414
417
424
431
419
406
395
407
455
492
485
443
424
423
411
420
449
459
460
449
440
432
431
434
438
438
434
453
459
443
444
446
448
449
446
436
432
434
436
432
437
440
437
439
445
449
440
440
448
460
455
448
456
448
431
433
439
443
444
451
451
449
452
459
443
447
441
453
459
457
471
483
482
462
449
451
465
460
477
481
456
441
436
434
428
429
439
455
470
470
464
456
443
427
430
436
459
475
467
468
471
467
470
467
464
475
479
472
470
469
460
442
428
434
442
446
457
462
480
482
459
451
457
464
463
463
460
448
472
475
456
438
467
463
460
462
464
449
446
449
452
454
464
475
479
462
458
467
475
469
464
467
466
470
450
439
457
471
469
470
486
488
468
455
456
473
487
492
467
464
458
441
440
444
451
469
502
515
504
484
479
467
456
475
486
479
474
484
495
486
465
452
454
471
498
493
486
501
518
510
494
497
505
519
531
531
522
512
513
514
513
511
518
522
521
522
491
480
483
499
501
488
492
497
505
494
484
466
439
432
451
468
471
470
469
477
475
468
462
449
449
461
467
480
487
478
467
474
466
455
467
465
455
452
434
423
438
473
499
485
475
475
468
473
476
462
439
438
421
412
433
448
455
458
460
463
468
485
482
460
461
465
466
464
462
458
452
451
452
455
445
439
436
430
430
436
467
490
504
509
529
522
529
563
593
628
687
736
781
814
861
889
914
943
981
989
989
988
988
988
987
987
987
988
988
988
989
989
990
960
938
879
796
719
650
577
521
465
387
311
247
180
136
110
108
123
139
155
179
208
227
238
243
249
243
241
252
278
297
313
321
344
357
368
384
408
405
391
384
374
364
359
362
378
393
414
410
407
398
387
374
387
408
438
447
437
400
377
390
395
396
406
407
414
420
431
431
431
432
422
427
441
463
471
449
431
423
419
432
442
467
468
460
459
454
447
444
442
437
438
450
453
451
444
453
451
454
466
463
472
472
477
477
473
479
482
475
485
487
490
503
515
508
503
510
506
479
440
440
452
470
482
477
479
477
471
477
487
493
500
498
496
486
481
470
476
484
502
523
522
506
491
504
509
516
505
490
501
521
536
528
512
499
505
514
528
542
538
538
539
517
508
515
542
550
550
549
548
553
559
549
539
536
561
567
580
586
572
567
571
568
558
553
561
584
593
580
583
585
567
568
570
565
584
620
624
602
587
554
537
543
553
558
549
527
526
558
566
551
547
544
542
543
534
533
539
537
539
549
550
547
535
528
529
532
536
537
529
520
541
546
530
510
490
478
486
489
464
454
456
470
473
466
474
466
460
464
460
452
450
458
450
442
438
437
447
457
448
439
422
417
418
387
370
376
402
433
443
422
418
431
447
440
423
415
420
437
439
430
428
424
413
417
429
429
433
435
425
412
409
405
412
416
416
418
419
423
425
428
435
438
446
453
458
455
463
457
424
412
419
430
433
431
436
443
422
412
417
439
462
465
451
451
448
435
433
432
453
461
458
453
457
456
448
465
457
451
443
442
446
431
419
424
433
448
460
459
452
446
447
449
451
456
460
452
449
450
458
472
468
449
441
443
446
443
428
419
439
454
474
483
473
466
468
462
443
439
452
455
457
455
450
448
446
450
458
459
454
437
420
433
435
453
467
449
477
491
481
481
474
470
476
456
447
445
455
459
461
463
468
460
436
440
465
475
492
474
452
449
450
462
459
455
458
458
452
450
455
456
453
455
457
452
439
446
466
469
455
463
464
449
444
452
455
466
480
494
499
486
465
461
454
455
459
463
467
475
480
482
465
454
464
462
456
445
438
437
446
464
465
496
501
493
495
485
469
481
500
495
503
510
493
490
480
467
468
488
516
492
462
453
458
474
485
480
490
494
477
475
474
463
460
457
453
462
467
474
483
496
502
503
507
516
515
508
503
495
482
487
511
517
509
503
509
498
490
498
516
536
540
522
499
493
496
484
482
479
470
479
483
477
477
480
473
465
455
463
484
485
471
455
444
443
446
441
437
435
428
439
450
462
470
471
477
470
448
429
440
450
458
470
470
457
448
467
478
469
464
474
480
493
479
439
449
464
474
465
458
469
467
460
451
441
455
460
466
470
469
467
447
441
453
452
449
467
465
447
454
459
461
479
520
533
548
571
598
624
660
698
735
778
814
842
863
912
960
989
989
989
989
989
989
988
988
989
989
990
967
928
889
847
815
779
732
676
626
578
530
471
411
339
263
200
160
153
141
130
144
171
170
178
191
198
217
249
267
279
280
290
314
339
364
364
377
367
365
375
374
383
390
394
400
404
390
378
387
402
423
428
428
428
423
412
405
406
410
423
439
446
452
451
440
423
412
420
417
424
438
441
427
425
443
457
458
440
444
444
440
455
469
474
487
486
470
456
436
428
443
450
459
481
492
493
494
490
471
464
462
460
446
459
484
487
475
473
478
469
467
463
460
459
463
470
481
491
498
512
509
501
504
494
471
451
445
491
520
510
508
511
524
515
502
500
495
505
514
517
513
501
506
515
510
494
493
503
507
513
531
544
545
541
534
521
512
514
519
529
521
491
482
501
506
525
552
560
555
555
549
546
551
557
574
568
554
535
531
529
548
570
582
586
579
571
557
547
552
555
555
558
557
569
600
587
570
575
564
570
572
569
558
558
562
565
567
563
559
557
565
554
552
547
542
528
531
524
535
555
572
578
568
561
550
539
538
531
521
520
534
528
509
503
496
503
511
510
512
507
500
502
502
493
485
479
479
488
484
474
467
457
440
439
448
456
449
419
409
422
415
415
424
422
417
448
462
456
450
444
435
418
403
401
394
398
414
454
450
424
404
394
404
419
424
419
424
420
412
426
436
426
419
432
417
415
430
442
452
445
413
388
406
433
437
440
439
420
410
408
415
438
447
443
444
436
423
411
421
429
456
475
471
458
466
473
466
436
424
428
435
442
447
445
445
443
459
459
451
452
446
452
442
433
435
445
448
460
469
470
465
453
445
442
440
435
439
461
452
449
458
476
472
461
468
486
472
457
458
451
441
452
471
475
477
468
463
451
452
457
481
462
437
447
468
468
450
433
435
444
457
467
473
464
466
473
481
487
480
486
478
448
433
439
435
430
424
431
441
464
465
455
452
456
463
466
468
461
461
453
437
431
454
472
472
465
476
483
483
475
460
473
488
479
459
466
475
471
465
471
480
487
484
475
469
469
480
485
478
480
481
480
482
486
483
470
465
467
475
486
492
502
498
499
508
504
496
488
484
490
492
483
485
489
509
512
504
498
475
479
491
493
496
477
469
468
451
444
455
461
448
452
470
467
460
451
457
458
456
457
460
475
483
477
465
466
470
470
480
484
474
464
473
489
477
474
469
456
440
430
435
454
488
501
489
473
465
461
452
433
423
427
428
420
421
463
487
504
512
505
495
469
455
455
455
451
442
441
428
417
421
430
441
453
464
462
465
491
495
509
527
520
546
577
597
623
658
704
756
791
819
851
866
881
921
958
983
989
989
989
989
989
989
989
989
973
927
882
835
812
804
765
716
658
622
567
510
456
400
326
251
196
151
139
145
162
166
172
200
202
207
230
234
240
258
264
273
291
296
311
343
358
358
369
387
408
419
416
406
413
431
423
419
431
423
406
403
414
421
424
415
420
428
410
403
415
429
443
445
438
433
451
455
443
434
430
425
443
438
429
458
472
463
452
435
431
434
439
456
470
466
461
457
443
453
454
450
460
483
484
482
483
487
486
485
482
474
469
469
491
494
482
463
458
465
465
471
474
479
487
493
494
500
502
492
486
487
472
471
497
519
529
531
532
539
542
519
490
481
470
450
451
462
500
534
539
546
535
497
478
495
507
512
514
516
527
533
536
541
537
540
533
531
531
534
538
525
519
530
532
541
543
534
544
537
528
524
535
546
565
559
552
551
565
561
559
563
540
533
538
552
573
581
572
575
578
562
554
554
555
568
589
584
556
551
565
583
594
586
578
573
578
582
586
571
566
569
562
556
569
569
553
551
535
519
531
530
503
500
516
509
520
530
506
518
541
543
539
541
532
508
487
470
476
491
483
470
469
490
528
513
478
445
438
436
427
425
429
434
424
431
421
413
423
446
451
446
438
426
414
401
416
419
418
423
423
414
414
422
419
406
396
394
391
400
413
437
427
407
409
423
427
420
414
406
399
399
400
401
417
431
428
417
405
410
404
418
428
427
428
431
442
435
427
415
414
427
423
430
434
427
422
426
447
434
429
448
460
465
470
458
473
480
460
455
463
470
457
444
431
430
431
450
456
448
457
463
444
432
447
479
475
450
439
441
451
464
463
466
470
477
477
468
457
456
464
446
424
425
432
452
475
480
479
470
465
466
472
463
455
442
439
436
433
438
457
475
484
488
474
453
446
451
453
461
473
459
444
446
457
460
446
453
456
446
441
455
456
469
492
491
485
459
439
448
443
441
460
474
472
474
474
473
456
452
458
478
489
462
436
442
469
467
464
452
438
434
446
463
469
480
498
495
467
447
433
435
460
480
474
462
462
460
466
499
502
513
508
495
497
490
463
473
479
477
468
457
458
461
455
449
469
497
508
484
483
487
486
496
496
485
478
486
483
475
484
487
468
462
460
458
461
445
461
472
491
498
504
497
502
509
508
521
519
505
502
509
526
512
490
486
499
499
496
489
492
481
468
463
464
469
482
485
479
482
486
478
460
453
456
456
455
450
450
441
436
445
449
450
471
471
453
456
481
484
491
492
465
449
447
429
431
440
453
477
488
469
475
479
474
474
471
473
479
477
470
469
470
469
467
454
457
469
473
470
459
455
443
441
441
443
454
467
467
458
441
424
430
429
440
438
458
473
498
534
563
589
626
661
698
739
790
835
854
878
909
923
965
990
989
989
989
989
989
989
988
988
988
989
989
958
904
866
836
789
728
665
615
550
481
426
370
322
289
256
200
147
129
123
156
191
177
180
178
187
213
236
261
287
304
315
326
332
373
380
397
396
384
373
383
400
400
388
391
383
384
410
426
430
442
431
406
397
405
397
415
421
414
412
419
430
428
417
413
428
424
423
428
437
439
439
442
431
412
409
429
429
418
425
437
439
436
450
471
479
489
483
471
452
455
468
471
473
474
472
484
498
478
464
463
473
469
468
490
520
527
503
487
465
449
457
466
465
466
465
455
454
461
473
479
495
499
505
507
526
512
484
474
465
486
494
499
488
477
503
513
499
507
528
542
527
516
510
487
483
490
498
509
525
516
510
525
526
515
502
515
536
535
528
532
530
522
532
545
553
556
552
541
543
543
530
528
539
556
562
567
575
577
571
563
560
556
572
583
568
551
556
571
566
552
538
557
584
596
606
616
605
571
562
563
544
525
530
512
519
550
587
610
590
573
585
587
584
582
566
560
555
560
547
540
545
542
546
542
540
530
519
521
532
522
517
540
521
487
485
507
511
505
503
490
490
473
464
466
469
475
465
472
471
460
455
440
431
441
446
437
441
453
457
452
441
416
391
389
400
399
406
414
417
415
408
408
415
410
403
395
389
392
400
398
406
423
431
446
463
469
455
432
399
395
407
405
422
431
421
427
413
401
414
448
467
469
461
452
454
445
436
412
402
435
454
450
458
439
407
402
404
416
430
433
434
433
445
444
440
428
427
432
438
453
465
466
465
460
462
471
468
462
464
453
449
441
433
418
426
444
463
465
465
456
450
449
441
429
440
458
468
467
468
470
461
446
439
441
443
430
456
487
481
466
452
446
443
445
452
464
446
438
452
473
478
479
464
458
455
476
487
493
482
445
420
416
436
469
477
474
470
467
454
439
436
441
448
459
461
461
478
495
490
489
479
465
473
471
450
450
459
465
474
478
473
477
469
444
431
456
482
475
457
452
440
446
455
451
448
455
466
462
456
452
451
461
463
446
439
440
463
477
467
460
450
461
492
494
481
489
484
483
480
479
493
502
484
469
480
479
462
468
461
452
462
467
468
485
492
481
473
486
475
455
486
495
492
479
470
471
471
483
486
490
483
480
483
468
475
478
482
486
476
476
492
512
516
514
514
510
503
518
547
560
539
506
501
490
491
495
501
507
510
515
510
498
501
511
518
511
490
470
472
467
457
454
456
463
447
439
465
487
496
485
467
471
480
472
467
462
460
453
438
442
434
434
456
463
457
458
466
469
462
484
494
484
453
449
468
486
482
469
463
481
490
485
466
442
443
471
468
459
452
450
475
491
472
475
481
479
471
467
453
452
467
469
454
427
416
420
430
453
464
456
451
470
491
506
499
495
506
528
543
558
589
626
674
717
770
825
850
883
917
957
988
989
989
989
988
988
988
988
988
988
988
988
989
974
918
885
853
831
777
701
623
559
498
443
374
301
229
180
142
119
123
132
151
164
163
174
199
220
228
233
233
252
285
316
330
341
341
338
347
351
369
380
393
388
378
384
400
381
359
374
389
404
413
436
456
463
459
450
434
414
410
409
417
408
415
423
415
418
418
409
404
413
437
444
449
446
435
446
447
447
451
461
464
462
456
447
444
444
444
442
437
443
441
441
443
448
448
451
457
465
479
494
495
484
459
463
472
475
467
468
482
486
482
484
465
448
451
464
475
477
480
490
488
483
491
483
489
492
495
506
516
507
481
493
511
499
490
490
495
499
507
504
504
494
475
464
473
498
509
507
529
533
518
526
557
574
557
527
505
502
501
508
532
519
536
557
557
555
548
547
543
542
535
539
540
556
550
557
549
541
540
550
579
601
615
613
601
598
618
602
586
563
561
589
582
559
558
575
583
588
591
576
591
584
564
565
571
581
584
579
550
547
555
543
524
512
534
555
561
558
539
542
557
560
543
546
559
553
539
534
524
510
492
496
499
496
494
492
481
475
483
500
527
506
489
470
461
459
461
463
460
461
477
471
465
477
473
437
448
460
439
425
411
415
426
430
438
437
439
447
446
437
415
415
422
426
408
404
419
430
403
401
403
403
418
416
405
402
422
430
423
415
437
451
427
406
393
394
405
438
454
451
457
450
431
414
403
411
429
449
449
431
418
439
427
412
421
429
431
435
435
423
422
432
459
462
465
445
441
431
437
448
424
417
421
432
432
416
426
433
432
434
443
463
464
476
483
473
459
457
458
456
447
458
454
426
407
403
427
465
463
457
467
457
468
474
469
455
451
439
455
460
461
476
454
445
460
465
449
431
417
422
455
457
464
473
475
466
454
469
479
473
464
467
474
470
454
451
458
454
453
458
466
450
453
472
485
470
473
477
478
467
442
470
491
464
433
431
429
434
432
445
463
444
432
431
447
469
486
482
478
461
442
452
458
459
455
459
465
459
446
435
442
454
464
470
462
479
490
482
466
458
453
465
481
479
478
477
470
460
448
454
473
482
471
462
457
443
449
467
465
449
444
460
446
448
453
457
470
485
491
480
476
490
486
475
463
463
466
467
483
480
472
482
483
490
492
489
480
479
490
485
474
472
473
474
492
491
487
498
499
499
504
503
511
503
476
465
461
469
498
524
533
530
529
536
535
533
517
519
531
534
522
513
491
475
454
455
475
501
509
508
503
501
521
508
482
471
471
462
462
473
472
468
455
449
454
467
453
452
458
470
474
472
455
436
433
432
442
478
505
496
482
478
491
490
473
453
440
443
459
479
477
471
452
458
477
476
486
499
502
501
497
491
474
450
459
479
490
466
459
463
461
457
455
452
457
450
441
458
458
452
448
446
438
457
468
451
436
438
445
446
470
504
520
537
556
581
614
637
665
725
793
839
888
931
972
989
971
955
984
989
989
988
988
988
988
988
989
989
989
971
930
886
851
819
755
684
626
566
504
442
378
319
252
187
148
126
134
144
156
172
175
189
218
219
218
225
235
247
273
309
334
328
319
329
355
378
401
410
410
417
427
425
419
425
437
451
441
415
392
397
411
415
425
415
408
413
403
404
400
401
404
425
435
445
431
435
439
432
435
433
428
436
432
425
417
424
435
446
452
461
448
459
466
464
460
457
458
466
474
474
467
460
433
422
430
435
448
457
467
480
488
488
480
480
482
478
451
451
455
469
466
450
461
477
493
506
507
503
493
486
495
509
517
506
499
495
493
481
472
465
470
496
494
487
485
493
499
497
475
496
525
534
547
544
546
551
541
543
546
532
525
512
506
514
526
537
538
534
528
541
558
561
555
546
536
539
551
564
551
543
546
547
546
560
573
572
566
565
563
559
558
565
567
557
543
549
569
574
575
573
573
576
578
564
551
573
591
598
582
581
577
574
567
556
550
553
549
551
558
559
545
547
562
573
550
540
531
536
556
558
543
522
520
511
508
523
526
531
545
566
556
552
536
509
503
517
531
530
496
468
465
485
492
479
469
470
488
487
482
462
441
448
466
463
442
437
438
439
441
421
404
397
409
416
417
430
436
440
439
427
397
374
363
377
397
409
416
421
422
433
446
437
426
424
409
396
406
431
423
401
402
417
417
416
411
420
426
424
426
414
407
401
418
433
423
423
426
425
447
436
416
407
403
410
418
421
438
444
447
451
452
445
451
461
455
455
444
434
434
433
439
440
413
433
451
450
451
452
473
473
466
462
454
461
453
438
437
451
463
485
465
457
459
457
445
455
471
489
492
486
499
480
456
450
461
469
465
471
469
459
434
419
421
426
431
428
433
460
480
483
463
461
474
474
469
464
455
444
441
450
472
471
444
436
441
440
441
451
460
445
450
453
456
442
423
432
460
468
460
461
464
445
435
441
458
457
448
439
443
464
486
505
494
481
477
469
476
475
476
464
460
479
480
487
486
468
451
454
464
470
483
484
494
484
476
487
485
456
436
444
469
498
491
476
466
463
472
478
472
470
484
487
480
477
497
504
499
487
472
473
483
494
495
493
501
503
488
490
502
524
534
524
541
510
489
484
483
492
498
485
469
460
459
458
457
460
451
449
460
480
488
480
478
474
471
471
471
449
436
454
459
479
473
463
436
437
451
451
443
459
455
431
428
434
465
484
485
478
472
469
466
479
479
462
472
486
489
474
448
456
469
455
445
447
437
430
441
441
452
465
472
480
482
470
467
456
438
424
432
452
440
427
441
452
467
462
462
477
504
538
545
544
547
563
601
671
713
742
786
822
856
872
908
937
970
985
989
989
989
989
989
989
989
989
982
948
922
897
879
829
750
684
645
594
553
514
469
405
313
243
187
146
131
130
138
174
202
198
192
214
235
235
262
277
279
295
310
299
288
311
331
347
359
363
362
379
403
413
409
403
418
416
419
423
420
423
424
419
430
429
415
413
421
444
442
432
413
406
417
423
423
435
449
449
437
430
415
408
443
466
465
459
459
458
453
460
470
481
468
443
436
431
442
437
470
517
527
506
483
476
478
485
476
476
478
473
456
460
473
488
493
485
492
495
483
456
445
457
465
460
460
485
492
477
456
482
518
515
517
510
495
474
485
518
513
506
501
492
491
499
496
498
508
519
527
552
551
534
522
518
517
502
506
518
535
548
528
509
523
530
544
547
529
522
528
539
539
540
555
554
549
542
549
558
564
551
543
544
546
550
550
562
567
565
557
545
538
561
593
609
599
580
564
559
569
595
609
606
589
576
557
549
552
560
560
565
565
555
562
572
573
574
579
572
565
567
570
574
568
574
565
548
531
529
528
511
508
522
546
550
542
508
512
519
517
509
494
487
502
511
505
504
503
505
499
503
518
501
469
471
475
480
477
460
452
453
467
470
461
455
457
438
427
419
419
419
418
421
436
424
410
399
410
421
425
417
406
400
416
414
409
412
412
408
403
418
434
407
375
373
381
392
390
403
447
432
412
423
421
421
419
410
407
408
404
402
404
409
412
416
414
419
433
433
432
438
433
429
427
437
443
414
389
391
421
468
472
470
461
459
456
455
460
455
448
451
451
437
440
450
455
444
444
447
457
448
436
429
432
444
447
452
454
457
452
453
457
450
441
447
445
464
484
483
477
463
447
438
442
457
451
448
454
461
458
441
445
477
463
437
432
432
439
441
446
453
452
448
442
450
470
463
449
453
446
441
453
443
439
461
478
476
472
465
458
459
453
459
475
475
484
483
458
447
449
451
444
430
438
448
447
433
428
435
431
457
482
488
499
487
484
472
444
424
431
434
460
467
457
468
478
464
469
461
462
475
475
452
450
464
459
470
468
476
483
476
471
469
467
463
451
475
492
480
469
465
473
479
491
503
480
469
478
484
475
463
456
468
476
485
482
475
467
453
450
464
482
486
477
473
488
502
505
508
509
497
495
499
506
529
532
518
523
524
499
481
490
502
507
515
540
524
505
497
496
483
472
469
465
478
487
478
473
469
468
468
459
449
453
478
490
476
472
483
487
491
465
445
451
463
461
452
454
453
456
464
472
464
448
458
477
485
472
480
476
473
473
474
472
477
469
464
463
465
473
473
442
429
440
440
444
462
466
465
460
462
466
467
471
469
469
454
437
432
432
434
436
448
460
453
465
480
467
481
514
544
558
562
553
557
570
617
680
728
778
819
859
885
905
926
938
961
989
989
989
989
989
988
988
989
989
989
966
925
897
858
817
755
675
618
573
520
479
435
360
301
250
206
176
156
149
170
189
196
206
211
214
217
230
243
256
257
277
322
349
353
367
374
358
367
378
388
400
401
402
413
420
409
406
407
406
409
405
408
409
411
410
409
405
430
441
418
406
412
423
449
451
461
467
451
430
427
445
459
468
463
437
422
420
428
419
423
439
446
439
455
468
463
450
451
462
451
452
459
452
433
441
455
474
521
537
510
472
454
462
474
477
477
489
462
472
494
487
472
466
449
450
467
491
505
509
509
510
511
504
495
469
462
487
516
520
508
491
501
508
511
506
484
481
497
510
519
522
509
502
507
522
524
531
540
539
538
531
517
507
525
525
510
505
512
524
538
554
561
552
542
533
519
533
552
555
554
563
575
573
580
564
550
576
581
557
560
562
576
567
542
533
539
553
561
579
597
603
591
569
558
558
572
561
595
619
609
590
551
532
528
541
551
563
582
589
569
551
552
551
561
568
570
563
549
555
544
551
552
548
525
511
524
538
535
544
554
536
530
530
515
494
481
481
481
479
483
501
499
490
487
476
470
489
504
509
481
430
417
417
429
437
423
430
429
421
429
436
428
428
425
423
427
422
396
388
391
398
410
406
409
424
418
405
408
412
426
431
421
434
435
418
396
392
394
389
406
397
406
406
410
454
465
435
420
422
418
421
418
417
421
432
429
428
433
432
429
433
435
419
405
415
427
423
426
437
444
441
434
424
430
434
457
482
516
517
473
459
474
467
448
440
442
439
455
471
448
436
438
449
456
466
492
490
460
422
413
420
427
455
482
497
481
458
454
446
447
449
436
431
429
431
441
440
453
451
454
463
462
457
454
453
457
451
431
441
437
435
454
475
488
493
491
472
457
451
450
453
459
461
478
476
469
445
437
437
440
434
418
445
474
466
470
467
469
467
465
464
477
469
468
461
454
436
433
438
453
460
454
448
462
471
464
453
460
458
456
447
454
465
467
471
472
464
468
492
488
493
489
476
485
464
466
481
487
483
467
451
461
480
466
444
448
449
452
454
466
468
466
466
466
476
474
465
463
473
470
458
454
461
458
451
468
475
481
478
475
475
470
478
485
491
493
480
480
498
507
492
480
483
480
484
489
471
461
462
467
478
485
481
475
465
460
460
468
456
475
473
491
509
493
478
471
481
478
473
474
489
482
486
495
508
533
535
527
527
520
508
514
509
499
484
491
502
511
514
503
497
495
502
504
508
486
494
497
476
478
494
485
479
478
472
482
468
457
460
464
464
460
451
448
466
485
495
477
477
483
474
479
478
477
488
475
467
469
467
459
461
480
492
477
471
462
450
440
426
434
454
465
454
459
464
459
480
506
498
482
467
461
469
478
461
443
443
457
464
454
452
456
456
435
415
418
433
431
428
448
480
475
470
490
493
496
516
540
572
592
619
663
713
751
804
845
862
894
917
948
977
990
989
989
988
989
989
989
989
989
989
989
969
914
865
829
799
748
693
629
576
530
480
424
358
299
237
197
158
134
143
136
135
167
219
244
245
239
217
233
258
266
285
316
350
376
389
387
384
378
361
351
373
408
428
427
437
433
420
422
426
431
422
412
406
410
424
431
453
465
451
428
412
411
423
425
409
402
412
414
440
445
441
431
432
453
472
476
469
464
448
431
437
457
456
455
452
447
437
446
460
464
454
455
461
452
465
484
471
474
467
446
447
453
463
480
489
483
479
484
485
494
507
493
478
472
473
479
485
496
492
497
507
494
501
500
493
491
491
468
448
470
481
481
465
474
512
525
528
527
524
524
503
486
504
514
526
540
529
515
498
506
516
530
529
521
527
534
544
542
535
524
517
523
534
541
543
546
555
561
560
564
555
546
549
568
564
567
577
578
570
564
577
601
591
581
576
580
580
587
586
573
550
559
577
586
582
576
573
565
552
542
560
579
587
576
573
566
570
571
557
562
550
553
576
577
575
582
583
577
569
545
543
551
550
543
531
529
532
528
517
525
510
493
508
519
513
512
500
507
492
467
454
428
432
454
482
502
494
511
501
484
459
457
466
475
469
450
428
410
409
413
423
434
444
441
430
424
430
423
415
416
416
409
420
414
404
409
419
423
425
409
404
412
403
398
408
429
439
427
404
388
383
388
396
415
447
453
457
449
430
413
415
418
420
419
421
419
418
412
415
445
458
454
440
437
429
429
435
445
446
446
444
426
420
432
453
448
450
444
426
430
436
433
427
433
468
468
451
444
435
430
444
450
449
446
435
425
414
425
454
468
465
451
449
449
444
470
475
478
503
489
472
462
456
457
460
450
434
441
469
468
452
457
453
457
452
449
451
451
453
440
441
442
450
475
485
481
474
455
439
433
424
427
428
433
448
459
458
457
446
438
474
512
518
502
499
492
471
444
430
433
438
439
432
430
444
461
469
468
472
470
474
454
448
449
455
460
455
444
448
464
488
494
474
451
448
451
460
461
466
467
471
485
483
460
457
452
424
419
451
463
441
445
457
450
451
454
457
458
465
465
469
489
489
466
447
460
482
472
470
484
499
503
493
494
497
490
485
485
486
485
498
506
495
473
450
454
463
476
492
494
488
494
501
497
456
424
428
440
471
494
505
484
475
471
488
507
513
519
518
508
505
501
496
505
491
490
498
522
532
529
531
526
526
526
538
507
481
475
469
466
462
461
451
454
465
489
487
478
480
454
448
451
463
478
476
477
468
458
456
468
479
475
469
474
489
495
474
449
445
434
433
458
468
450
438
441
457
475
469
470
472
462
454
453
466
452
457
468
467
458
464
460
456
462
466
468
459
458
464
473
467
457
451
446
452
455
441
439
435
423
419
435
456
478
492
484
480
514
541
574
611
653
685
736
775
827
882
908
916
923
961
989
989
989
989
988
988
988
988
988
988
989
989
979
949
911
852
812
761
697
639
584
522
456
389
317
245
176
122
114
126
149
177
208
199
196
208
222
227
240
257
272
285
300
327
348
343
352
367
393
387
376
371
385
386
390
401
408
415
398
378
381
397
413
416
409
402
400
387
382
410
433
435
414
414
430
440
433
415
405
408
413
421
414
419
440
450
460
441
438
450
460
448
454
455
446
461
475
473
457
456
438
447
481
482
476
481
479
466
458
451
456
460
454
439
442
455
471
479
479
479
490
486
475
462
444
458
494
507
501
499
496
481
467
462
470
470
476
493
516
500
493
487
480
473
496
508
500
484
488
490
482
497
510
528
535
524
510
505
507
533
557
548
528
508
507
515
524
526
527
520
510
521
530
536
534
554
564
550
557
548
562
570
568
556
556
549
565
562
548
554
564
566
567
573
610
642
628
602
598
599
594
581
565
560
573
568
581
597
596
586
578
581
574
568
568
570
574
576
572
564
574
576
575
586
584
549
546
538
547
562
556
541
542
547
535
527
520
539
564
558
549
567
547
518
490
475
484
496
487
492
493
483
477
477
473
477
477
450
446
454
439
431
440
445
428
406
407
425
462
477
467
452
449
432
407
410
424
424
420
421
417
404
385
388
406
414
417
400
392
393
394
390
406
426
422
415
414
422
430
427
418
413
416
414
409
403
409
425
429
428
414
413
402
393
387
409
440
434
415
408
434
451
451
440
426
431
443
443
443
448
449
428
417
441
444
442
435
444
445
428
423
423
446
431
418
424
459
474
469
469
461
439
434
442
448
448
453
453
446
419
427
433
440
455
467
476
473
458
453
449
417
421
438
446
456
459
461
464
453
447
441
445
451
448
442
451
456
449
444
429
434
459
461
454
455
439
436
451
450
440
448
450
467
469
458
453
457
462
460
459
459
468
465
460
466
464
450
448
452
453
471
472
464
456
443
452
463
481
468
474
480
464
467
462
437
433
436
443
445
448
450
457
451
449
469
471
457
454
447
448
460
471
449
456
475
483
486
470
447
450
462
471
490
491
478
454
448
445
442
455
473
500
510
492
467
458
460
463
473
468
474
474
483
484
477
479
490
466
443
453
462
466
466
465
481
493
486
475
466
463
471
474
482
488
474
459
473
479
478
475
480
485
480
494
493
475
467
469
480
458
447
456
474
488
502
512
516
511
509
511
499
492
499
507
507
524
540
539
531
517
518
522
524
518
523
530
527
523
504
490
485
490
494
480
470
462
453
445
453
464
468
459
454
459
469
467
466
456
447
455
470
479
490
498
490
494
491
483
464
447
454
465
473
470
479
479
461
436
428
430
440
465
490
493
479
455
454
457
458
448
449
457
464
475
470
467
469
489
494
483
449
447
451
434
427
427
438
464
462
428
423
419
423
431
445
455
445
454
470
494
515
520
528
544
570
593
633
682
737
785
836
877
912
939
969
989
989
989
989
988
988
988
987
987
987
988
989
989
985
942
909
871
815
753
667
594
541
527
477
415
358
271
196
157
122
114
133
146
159
168
184
208
233
238
229
231
240
252
274
291
307
334
357
370
379
381
387
400
395
386
390
391
401
419
421
416
414
421
411
403
387
383
396
412
411
412
410
410
415
404
408
419
425
431
432
425
428
422
410
430
420
418
423
422
435
446
451
447
441
442
469
483
462
441
433
446
474
476
467
467
452
443
439
437
440
469
497
496
486
477
471
472
477
471
464
474
496
504
490
483
472
464
480
495
477
466
467
476
496
505
514
509
497
470
456
466
488
504
489
496
494
486
505
515
506
503
506
515
520
514
519
514
512
506
500
496
492
501
510
520
532
543
552
574
573
549
539
541
547
550
559
568
558
561
557
541
528
533
551
559
562
554
563
564
561
562
556
558
571
566
563
579
591
589
575
571
578
598
609
614
598
589
595
585
579
583
572
582
601
606
595
585
585
588
584
568
558
565
570
583
591
573
555
539
532
514
499
504
537
542
544
550
553
564
562
553
538
523
530
535
521
509
511
503
498
492
481
483
483
496
486
474
470
455
440
433
442
457
465
476
477
460
461
458
451
436
415
413
420
422
430
427
418
404
396
400
404
407
408
399
396
389
384
399
422
434
431
423
424
429
433
430
419
420
422
398
384
373
368
382
402
401
392
389
402
413
419
430
438
443
441
433
426
419
426
432
434
439
435
440
444
435
440
434
418
423
446
466
464
453
447
442
438
442
455
457
450
441
433
435
445
438
430
462
458
446
450
452
453
453
451
442
436
426
432
453
466
465
447
440
451
453
460
460
459
432
419
433
444
438
438
463
476
469
467
465
456
449
435
424
455
451
441
437
460
460
453
470
471
465
466
466
451
441
444
452
459
448
432
436
438
443
453
460
466
478
477
489
482
479
463
455
450
458
451
447
452
457
460
460
459
453
444
448
480
477
447
441
438
432
423
431
451
466
461
467
471
464
471
478
488
475
456
459
450
451
457
457
458
478
477
469
447
446
445
454
459
463
461
466
459
462
470
478
480
476
485
491
486
470
460
461
465
475
475
472
474
472
460
458
466
485
519
526
522
508
473
450
448
461
467
485
489
486
480
482
486
477
463
477
479
465
484
515
520
507
477
467
467
486
504
511
517
526
522
522
511
507
498
485
485
492
496
492
498
503
511
529
514
513
505
493
484
492
486
485
490
471
461
455
460
464
462
450
449
453
456
457
458
486
494
482
466
463
462
475
475
460
456
453
465
468
480
477
463
455
442
434
427
440
441
441
464
468
468
470
453
462
465
444
460
476
476
476
459
453
464
483
492
502
498
465
445
440
452
469
450
432
428
431
441
441
443
450
453
458
467
463
472
464
456
479
513
549
583
621
668
715
730
765
816
861
897
910
923
938
975
990
989
989
989
989
988
988
989
989
989
964
926
889
849
798
744
707
663
610
547
491
434
369
283
216
179
154
146
141
151
162
182
201
205
217
230
241
248
268
266
261
273
289
293
316
332
359
395
411
410
394
385
380
388
396
399
399
390
375
389
426
432
430
433
444
445
441
439
437
467
481
440
419
428
446
439
411
409
414
423
434
453
448
440
438
436
444
453
456
449
445
442
441
445
453
459
461
458
455
447
456
481
486
470
484
483
480
477
481
461
444
449
452
463
479
476
472
473
478
480
496
504
486
476
481
489
496
499
490
497
509
506
508
504
501
504
504
511
519
524
516
511
514
508
515
511
491
497
513
508
513
507
511
517
511
508
501
518
532
549
571
557
547
534
520
512
514
530
537
521
534
549
550
555
552
527
534
555
566
577
580
563
549
544
571
577
566
563
561
579
572
544
525
542
554
572
601
588
578
573
583
595
595
589
586
586
595
582
573
563
560
575
569
574
563
558
575
581
561
539
556
558
559
564
563
565
556
550
545
539
554
550
529
530
534
529
523
521
515
524
531
528
529
506
499
492
482
483
491
486
472
471
470
484
487
466
448
464
472
470
451
458
467
460
451
441
431
429
420
409
407
419
419
401
394
386
394
424
440
456
444
414
408
407
416
415
404
397
398
391
387
399
411
420
422
414
418
429
436
445
442
439
414
389
393
398
390
384
387
402
411
407
403
412
420
424
411
410
418
421
416
418
439
447
451
465
478
472
443
413
408
412
424
435
425
403
415
422
429
438
444
449
453
453
459
485
465
445
445
444
447
454
457
448
449
449
447
441
437
438
443
449
463
465
453
450
454
465
452
444
446
442
450
453
455
463
454
450
451
454
463
468
474
477
474
450
452
448
441
462
468
479
467
478
487
446
433
444
447
458
452
460
485
489
471
451
452
452
467
490
489
490
490
470
473
467
444
437
436
446
438
447
445
443
437
437
444
445
443
430
432
455
477
498
512
497
482
483
472
441
442
455
470
477
484
496
496
468
428
423
448
464
471
456
455
456
453
454
459
464
474
485
475
471
470
471
469
469
468
451
444
454
470
480
496
511
499
497
495
480
483
502
515
506
510
518
496
487
508
516
507
504
517
514
500
484
475
476
506
515
500
486
488
506
506
493
472
466
461
449
442
447
451
451
444
452
462
472
480
458
441
451
460
477
478
477
472
461
463
461
452
446
454
456
462
458
461
466
477
471
466
452
446
453
468
480
485
473
456
456
465
458
459
463
465
461
450
447
452
464
478
474
462
455
453
457
444
430
420
429
446
439
452
464
462
473
477
471
475
483
501
512
529
571
625
646
680
723
760
788
821
863
910
938
964
990
989
989
989
989
989
989
989
989
989
990
949
903
861
829
800
763
708
657
611
563
513
452
373
293
230
191
160
141
137
151
169
186
210
223
236
239
224
229
243
267
287
316
364
357
337
335
346
353
355
369
381
393
403
402
397
389
392
413
418
419
422
419
419
413
414
418
440
449
437
432
441
436
435
449
442
425
430
435
442
431
441
454
449
445
438
427
446
468
453
449
460
465
456
452
473
474
465
461
460
449
451
443
458
479
459
443
459
468
475
482
487
476
470
475
473
464
460
477
493
499
497
480
482
481
485
479
474
489
484
486
481
488
491
482
486
491
502
509
495
487
503
511
492
491
509
516
511
522
503
492
494
517
523
522
520
522
526
524
526
511
505
502
518
531
564
575
579
565
552
554
544
536
536
544
550
555
555
542
532
544
565
572
588
587
589
573
565
570
559
557
568
589
586
572
563
573
582
579
578
582
578
578
586
585
569
573
578
563
555
556
557
552
556
556
563
566
558
565
582
588
584
575
563
544
528
544
554
543
532
525
523
524
532
535
536
541
539
529
526
519
510
503
503
495
495
511
510
517
525
513
487
476
452
421
417
423
420
432
439
437
444
454
468
455
438
419
419
431
426
422
406
386
383
395
402
410
425
449
452
430
408
412
410
412
423
422
430
423
400
406
413
410
421
415
400
392
388
388
403
411
408
403
412
417
423
421
440
443
439
447
437
428
422
425
424
423
413
415
428
422
433
444
433
417
418
415
416
421
439
454
450
426
392
413
434
433
417
409
423
425
449
455
432
422
424
430
444
457
468
475
479
472
462
454
450
453
448
442
456
477
484
464
454
465
480
465
443
451
450
435
422
441
472
470
450
467
479
494
511
500
467
441
433
438
441
470
462
442
435
431
432
444
446
453
456
458
460
470
479
468
461
468
468
466
467
472
465
462
467
469
473
476
468
464
467
463
452
459
447
443
467
464
461
452
447
460
484
493
472
454
461
466
481
480
452
431
433
440
442
441
445
451
451
445
443
459
472
480
480
454
446
460
463
466
468
479
474
463
463
466
458
444
440
457
467
465
464
470
466
453
447
455
473
475
467
463
476
478
475
484
491
491
483
472
472
476
483
471
476
487
490
492
492
480
473
477
476
478
482
492
491
484
484
498
493
486
476
467
459
469
470
480
484
471
474
482
485
485
496
507
501
504
487
487
484
483
485
476
468
463
461
459
478
494
489
478
473
487
502
511
523
515
527
531
529
527
534
523
498
483
487
496
497
500
515
512
491
480
471
467
473
485
489
473
454
456
456
472
491
481
480
470
456
460
474
471
463
456
455
453
445
444
447
465
468
473
475
475
467
462
477
482
478
478
468
465
466
472
482
477
466
458
446
458
466
467
467
475
465
478
500
491
462
447
445
443
452
449
456
474
470
464
446
440
441
451
460
451
440
435
442
453
461
471
486
491
494
499
519
565
594
619
676
716
760
793
821
851
891
940
984
990
989
989
988
988
988
988
988
988
989
989
989
972
941
898
872
859
829
738
637
553
508
476
413
341
276
213
162
129
131
142
150
178
215
220
219
227
238
237
231
235
267
308
348
355
337
336
353
375
371
382
384
393
420
414
399
405
412
414
411
404
409
418
419
413
423
411
397
389
390
423
451
450
441
435
441
443
436
429
431
441
440
439
437
427
415
418
424
439
448
456
459
457
450
448
451
461
459
448
452
457
460
459
460
469
451
443
458
474
492
463
451
465
485
484
498
504
508
502
494
480
467
470
461
454
466
474
474
488
493
489
485
490
483
479
470
493
501
476
465
454
464
492
499
492
496
508
513
508
474
477
485
499
503
511
525
529
518
518
526
526
514
511
518
531
549
542
524
527
532
539
554
563
569
568
552
540
542
548
548
543
549
548
555
556
547
547
549
568
572
579
576
574
577
580
559
552
556
559
574
613
642
634
594
568
598
615
592
571
567
571
582
584
590
585
572
560
569
574
584
577
570
566
569
549
549
555
554
551
537
522
512
491
495
514
533
544
560
545
541
550
557
542
527
516
513
495
487
505
501
496
494
500
501
496
478
461
459
452
436
432
439
445
470
462
447
453
441
448
443
443
432
426
422
414
416
418
430
430
429
427
416
384
376
385
390
387
379
384
390
384
396
415
425
442
455
437
415
400
400
385
381
386
394
402
411
425
441
447
428
418
410
410
420
441
433
403
388
400
410
413
410
414
421
429
436
433
420
418
409
404
417
424
421
416
424
425
437
464
474
474
465
472
459
443
420
412
411
423
438
448
450
463
458
441
430
424
424
442
459
451
449
457
453
444
439
436
437
442
444
455
459
464
449
444
450
450
432
432
452
460
457
464
471
465
459
450
457
462
442
432
430
453
474
468
463
454
445
459
472
460
484
475
466
465
454
449
452
472
463
438
452
470
479
486
478
461
470
451
429
428
442
459
470
469
466
469
473
459
440
434
433
432
437
449
461
470
474
473
469
473
481
469
468
466
469
462
449
450
459
460
464
469
476
466
451
453
456
447
444
453
454
455
456
461
450
442
427
424
433
440
462
467
437
446
468
484
492
496
487
478
474
463
453
439
442
459
463
472
489
488
463
459
446
445
468
491
496
478
487
509
516
496
469
474
465
480
494
509
494
487
492
477
465
480
501
504
507
506
494
479
457
448
453
452
455
472
486
489
479
465
458
496
513
499
490
472
481
500
527
524
515
524
538
522
508
502
504
504
505
516
516
510
502
505
511
484
471
477
472
475
469
466
460
454
448
455
462
467
472
456
460
470
467
447
439
449
446
441
450
474
492
467
455
456
459
467
467
467
466
463
465
465
465
475
485
483
476
462
462
462
456
456
471
480
479
475
476
476
468
449
422
436
470
494
493
482
486
482
481
492
481
471
459
450
443
432
421
415
416
425
432
443
453
464
478
499
505
512
530
553
589
607
650
701
727
750
797
849
878
919
956
982
989
989
988
988
988
988
988
988
988
988
988
989
978
939
896
852
818
751
690
629
567
517
447
368
296
241
203
168
144
133
137
147
149
160
183
202
224
233
234
248
268
298
316
333
341
337
330
334
340
364
384
378
375
377
387
403
411
413
415
401
391
381
382
414
421
423
437
437
438
426
420
417
406
401
401
426
448
439
439
443
427
422
435
439
446
429
408
406
415
438
461
471
467
446
433
428
432
437
455
463
467
458
448
438
455
464
447
444
454
468
491
504
515
512
509
502
475
443
443
455
456
454
470
481
479
481
475
464
466
476
473
463
470
475
477
467
467
483
500
483
473
481
482
470
457
469
466
480
510
522
524
533
532
534
536
528
519
504
506
508
512
518
529
526
531
546
545
536
531
531
534
535
536
533
532
534
546
554
551
564
574
590
594
595
587
574
571
571
572
573
579
577
576
597
599
589
585
579
577
581
590
599
585
561
564
582
591
602
603
585
570
571
579
579
590
586
590
590
586
579
578
569
558
558
553
558
563
567
550
535
538
546
541
544
544
547
559
550
538
534
537
520
498
496
491
496
490
497
475
454
468
478
471
468
468
468
467
461
454
449
464
480
457
433
438
434
424
433
437
440
432
430
416
406
416
418
409
396
413
416
415
411
409
401
403
384
356
373
387
395
397
402
400
398
390
400
425
416
408
411
403
394
406
410
426
432
421
425
426
416
418
431
419
400
407
416
420
420
422
427
435
436
433
429
432
424
425
421
412
408
404
413
423
439
454
458
469
452
440
441
441
433
432
426
417
436
432
438
429
420
421
414
435
460
451
445
446
438
436
437
434
432
432
441
461
468
457
450
463
477
479
462
451
431
434
446
456
464
461
444
438
446
450
454
459
440
421
433
433
433
431
431
436
466
463
452
453
448
453
466
460
442
436
441
450
464
469
471
472
468
465
445
447
456
470
465
467
479
478
482
486
470
451
441
443
441
445
455
457
457
450
445
453
460
475
468
470
482
477
481
482
469
460
459
459
461
442
447
475
489
479
464
436
424
438
435
447
464
485
495
480
462
460
465
462
452
442
455
463
478
483
472
470
471
465
466
464
458
459
452
446
453
464
483
494
481
451
450
465
461
448
446
440
445
451
452
446
449
459
475
501
501
481
477
482
488
492
471
454
446
440
446
467
465
459
463
471
477
494
503
488
464
442
453
460
484
521
508
505
500
472
455
449
444
461
472
492
505
502
498
505
491
479
476
471
477
479
489
484
482
493
500
497
488
495
486
476
479
494
488
483
492
495
476
473
481
501
509
507
504
490
481
480
464
459
470
466
461
453
451
482
506
507
510
497
492
498
514
523
511
506
520
520
506
504
504
492
506
515
516
521
507
488
496
500
508
524
518
516
509
483
476
482
471
460
461
463
465
462
465
482
503
502
498
497
483
469
462
458
467
480
479
464
465
464
462
458
451
454
480
502
507
508
499
490
477
467
463
476
477
481
469
472
456
444
444
451
464
466
470
479
474
472
463
460
475
483
483
481
478
469
465
467
457
452
457
452
432
441
457
470
465
471
503
520
507
493
500
528
562
604
629
675
732
784
835
869
904
933
943
958
990
989
989
988
988
988
988
988
988
988
989
989
981
948
909
888
861
798
717
655
605
541
473
411
345
278
211
167
136
121
121
132
153
164
173
190
206
220
224
220
235
262
287
342
362
363
351
352
371
380
385
386
398
408
416
409
408
409
410
416
427
439
441
436
430
430
418
411
407
405
413
429
417
395
385
400
431
442
437
441
448
442
429
431
447
454
443
452
453
439
434
452
470
446
451
464
454
440
442
453
475
486
488
478
465
448
450
463
477
478
470
468
470
462
466
457
451
441
444
466
472
475
482
488
481
481
479
483
475
486
494
473
466
478
500
507
496
482
475
476
483
487
491
493
498
501
509
510
500
484
482
492
514
527
533
528
516
518
560
578
555
532
539
554
565
564
552
540
531
531
533
534
529
527
547
563
569
568
551
565
591
592
589
598
592
579
568
571
579
584
578
568
565
587
582
563
568
585
591
594
590
595
594
592
598
611
603
592
586
599
621
605
587
578
568
559
572
572
579
594
593
585
579
570
564
560
546
537
550
549
539
537
540
540
528
511
509
514
538
542
524
506
512
507
498
498
506
515
515
506
499
499
490
477
465
473
468
468
482
482
482
477
479
489
477
452
432
447
452
455
461
460
444
429
423
409
395
406
411
431
444
435
411
395
415
412
412
423
426
415
387
390
389
375
382
398
420
430
433
444
435
425
435
437
432
439
426
422
414
409
417
427
423
406
394
390
403
416
430
439
425
424
433
424
426
434
440
441
436
433
427
432
419
409
411
431
445
437
445
431
434
450
454
464
468
454
443
446
449
451
442
422
423
447
455
459
457
444
446
459
484
476
476
467
455
440
438
457
471
468
454
440
426
439
447
439
447
454
453
448
460
457
452
462
466
464
450
464
477
455
447
448
447
444
444
447
447
445
454
463
464
467
473
471
469
479
479
476
454
430
427
442
452
461
461
458
465
476
468
469
472
465
477
464
462
468
467
477
490
489
469
461
456
458
467
476
482
475
467
457
449
448
443
444
459
487
482
468
485
497
485
461
454
450
446
448
460
470
483
475
481
482
471
464
475
478
460
446
446
457
464
463
467
468
463
464
470
463
462
465
474
489
473
465
478
474
475
485
485
458
474
487
487
489
470
452
435
445
460
462
466
466
474
483
488
484
461
453
454
465
477
496
503
503
504
489
485
481
463
451
459
472
485
496
485
470
457
448
461
488
507
499
498
512
513
506
496
478
475
469
472
500
509
503
511
537
546
535
519
503
500
503
506
495
508
549
559
536
510
481
461
464
509
521
521
502
484
468
465
473
481
491
489
480
469
464
471
481
468
458
477
492
481
464
472
456
437
432
437
456
460
460
460
450
466
480
478
482
471
467
470
463
449
437
442
452
466
479
489
479
459
458
458
470
479
478
472
461
454
447
456
478
466
465
488
467
445
458
453
444
460
475
469
438
416
409
413
428
476
517
545
562
567
572
573
581
591
616
666
704
750
792
818
842
869
892
918
937
957
979
990
989
989
989
989
990
990
986
941
908
875
846
797
749
701
639
601
567
526
477
419
353
277
221
180
164
128
95
96
103
152
226
264
296
285
253
254
270
295
306
326
322
341
356
366
379
387
387
403
400
391
403
397
403
434
458
462
448
440
445
440
433
431
423
423
433
434
423
426
433
447
451
459
467
455
443
434
428
425
431
447
459
462
464
464
460
461
456
461
465
470
473
470
461
461
463
456
456
454
467
479
474
467
466
482
485
475
461
450
443
460
488
492
485
480
464
467
475
487
519
505
506
517
506
506
511
505
493
486
480
476
486
506
505
503
505
490
489
482
491
488
495
512
511
523
541
550
547
546
541
507
505
536
540
536
526
512
503
505
515
523
519
506
503
509
526
556
560
541
568
578
584
577
575
558
543
545
550
552
553
550
553
558
567
573
577
587
593
594
572
562
572
574
572
572
579
587
592
580
575
576
563
579
593
595
608
616
604
590
571
571
582
583
579
571
572
597
602
589
585
569
563
544
526
567
592
562
544
542
535
530
555
558
543
537
530
531
548
534
508
513
520
527
515
499
491
490
487
485
489
494
485
473
472
479
468
455
447
438
434
449
455
450
432
431
454
443
414
405
397
397
394
394
385
388
402
415
429
429
412
403
387
384
387
389
393
400
400
400
390
383
379
405
415
401
393
394
410
405
416
419
414
413
416
428
426
416
407
398
398
414
427
416
418
411
405
419
426
428
440
443
434
428
433
436
442
445
430
433
430
425
419
426
429
426
425
424
450
451
435
447
463
483
488
483
473
444
449
461
470
458
445
448
444
444
457
480
490
484
479
471
467
470
455
438
428
433
429
407
420
450
450
456
460
453
453
446
443
437
430
432
440
465
485
485
474
461
462
469
479
472
470
472
463
463
459
455
448
439
453
468
484
492
486
484
469
441
421
432
444
456
467
471
452
442
452
467
486
485
462
443
444
452
460
447
454
475
472
462
456
456
453
446
460
466
444
444
461
467
455
451
469
482
468
455
453
477
499
488
469
470
466
465
466
473
473
466
470
463
466
480
495
483
452
447
456
459
448
454
449
445
465
477
483
474
458
451
458
454
463
473
478
487
472
456
462
475
474
468
457
458
470
481
484
486
485
477
450
460
474
477
485
485
497
499
493
487
483
486
481
473
480
473
468
464
463
470
490
509
502
488
466
451
443
439
459
476
463
458
453
469
487
467
458
463
473
476
482
504
513
512
510
498
499
512
509
507
497
502
505
508
513
521
532
529
519
498
506
521
528
529
508
496
480
486
494
490
466
464
475
490
498
500
517
502
457
445
460
470
445
458
472
479
492
491
498
500
502
485
463
439
431
434
428
429
448
451
448
451
454
456
465
464
469
473
480
490
485
463
453
455
446
430
428
450
465
475
485
500
500
491
462
450
465
479
484
472
470
461
449
441
434
433
433
421
418
418
422
454
492
501
507
500
510
535
567
581
597
626
664
712
758
820
848
872
903
930
943
966
990
989
989
989
989
989
988
989
989
989
989
941
911
874
844
816
737
658
594
535
483
434
381
341
297
245
196
153
136
125
156
183
204
219
205
220
245
255
248
270
301
313
321
327
342
362
376
389
392
389
379
380
392
401
401
395
401
407
408
409
402
397
395
413
430
427
424
430
442
440
445
440
428
414
411
413
420
432
442
444
446
456
463
468
465
468
464
450
442
449
461
473
472
457
448
444
448
441
440
437
436
460
478
482
482
494
491
491
482
470
466
472
474
461
458
463
471
466
474
489
481
485
506
524
524
501
499
485
460
443
460
480
491
483
466
497
512
505
514
509
485
479
479
478
493
486
476
498
533
535
523
506
505
522
526
519
512
514
516
519
510
508
529
546
536
545
547
551
536
531
530
523
538
543
541
539
528
529
549
563
563
557
572
585
582
579
558
541
551
554
570
575
586
591
613
624
609
602
593
592
573
576
604
614
614
614
597
597
604
595
604
620
605
582
563
559
563
571
580
596
600
585
585
574
577
566
564
560
540
539
550
550
551
552
545
540
528
516
506
515
516
507
509
517
515
522
512
496
484
480
488
503
484
463
452
448
440
459
446
437
430
429
432
441
442
428
428
432
443
436
418
414
397
396
407
413
398
403
391
399
410
406
385
386
389
399
405
428
432
416
409
418
416
409
396
399
409
407
401
402
400
392
395
411
418
412
419
426
418
425
432
431
430
424
417
402
404
399
389
399
405
415
437
450
446
425
428
436
441
436
448
454
447
445
438
436
425
412
428
446
444
450
448
443
433
418
419
434
449
452
459
445
439
435
445
450
469
459
448
462
452
436
419
425
441
454
445
436
452
475
486
453
443
437
463
484
493
482
464
445
430
445
460
455
435
432
459
472
470
457
458
443
437
445
464
450
437
442
450
467
479
477
473
466
463
472
484
472
435
410
413
421
421
433
444
447
449
450
455
454
447
457
464
459
458
456
453
455
480
485
480
474
479
485
463
448
450
458
469
474
466
458
461
456
442
446
453
459
454
452
464
466
487
482
458
439
438
437
433
451
481
494
489
481
461
451
448
467
499
493
487
480
471
465
475
482
480
467
463
453
427
442
467
470
479
472
458
484
505
483
481
488
479
474
454
431
431
439
452
468
459
449
456
465
476
485
491
482
463
454
458
466
470
468
478
488
474
449
452
489
502
504
498
490
485
474
461
461
465
476
489
494
496
493
497
498
493
491
494
492
494
486
456
437
440
454
467
482
487
495
495
480
489
513
520
509
495
499
505
487
489
503
535
539
521
499
485
490
510
537
537
537
538
525
516
500
497
488
492
502
478
461
457
457
460
481
495
492
469
479
496
477
462
460
465
467
470
477
483
487
469
457
444
420
421
458
481
480
472
464
469
472
472
469
467
466
489
488
474
459
467
468
476
487
491
484
479
472
453
439
442
450
437
434
456
470
488
491
478
467
466
451
453
446
425
415
423
433
433
438
437
447
471
487
496
498
502
508
519
544
579
629
668
695
736
767
789
837
895
948
976
989
989
989
988
988
988
988
988
988
988
988
989
990
952
923
896
858
799
736
657
598
561
505
433
360
294
237
186
150
136
138
164
216
232
198
191
184
183
207
226
239
248
267
298
312
319
327
354
378
396
406
395
392
392
387
403
415
407
405
394
397
404
399
396
401
385
379
388
398
412
429
431
419
445
457
451
435
426
424
420
430
429
427
428
419
415
423
419
417
420
427
447
466
469
465
457
447
444
458
470
475
465
452
449
441
435
446
465
482
498
491
477
463
440
432
441
457
486
503
496
493
488
483
481
473
474
481
488
490
516
525
509
499
483
481
477
469
472
468
446
443
456
490
511
505
499
498
511
516
545
545
519
498
495
494
510
522
499
487
481
494
517
527
555
556
537
533
524
527
535
529
530
526
551
565
555
532
544
563
559
574
590
597
590
567
561
544
546
559
575
591
591
592
577
571
573
581
590
588
581
576
586
582
578
578
576
594
605
598
588
567
562
573
575
580
586
602
613
600
582
579
572
557
557
563
556
548
559
574
559
535
532
526
523
528
538
556
547
525
514
534
536
534
544
536
513
476
455
453
456
478
493
494
499
494
478
482
486
482
460
456
457
457
453
449
439
448
451
436
426
412
412
425
420
415
425
433
413
409
404
400
400
398
401
397
398
403
405
407
400
384
388
375
364
379
394
409
422
418
399
379
369
386
409
411
414
413
396
405
413
420
435
433
423
405
407
421
420
408
396
405
409
401
395
411
424
420
421
412
395
408
449
441
430
424
427
420
413
413
425
433
411
417
435
441
433
447
452
445
440
431
430
430
441
455
464
470
458
441
456
465
458
448
451
465
457
426
419
433
443
443
457
471
489
482
481
487
461
434
416
439
458
472
482
471
454
433
442
461
452
432
421
416
443
478
498
504
489
473
443
420
424
435
448
463
458
450
454
452
443
433
432
441
449
482
476
457
446
432
423
450
472
464
448
455
466
453
428
424
419
425
423
438
464
471
469
475
474
462
446
447
454
464
461
457
448
442
463
472
475
465
457
450
453
441
429
464
476
486
485
476
461
487
496
476
450
457
470
485
486
479
478
470
465
463
471
470
477
474
476
478
474
472
471
453
441
408
419
459
484
496
496
477
468
457
459
462
458
460
465
484
483
468
454
462
468
457
464
480
474
464
453
463
458
466
479
473
451
455
482
478
474
462
462
480
474
479
482
474
479
481
486
477
483
483
485
505
515
505
489
448
451
464
473
490
494
498
507
496
488
479
467
463
470
472
472
482
473
477
481
488
481
473
471
469
483
489
486
480
477
488
506
514
506
512
515
495
491
513
521
519
517
530
513
497
508
495
518
522
506
511
514
511
508
496
493
492
531
513
476
467
487
480
444
430
445
456
469
469
458
454
467
467
465
475
491
483
466
441
431
454
485
483
460
461
460
454
455
459
481
482
470
462
463
461
470
459
446
443
442
438
449
460
456
450
450
453
477
498
483
456
448
459
468
469
459
460
459
471
458
448
442
443
439
417
403
411
431
441
454
475
496
504
512
530
555
576
596
629
671
713
769
831
874
908
932
959
984
990
989
989
988
988
988
988
987
987
987
988
989
989
990
932
882
834
785
727
660
592
534
495
423
326
253
195
148
116
105
121
143
163
185
197
211
230
242
246
243
246
261
307
334
338
334
337
352
365
378
381
378
377
391
392
371
378
392
390
385
391
406
418
410
409
399
373
370
381
391
411
415
417
408
393
424
447
442
435
431
426
415
436
448
446
431
425
423
434
426
421
433
452
462
447
424
432
433
429
440
438
438
446
448
462
473
480
473
465
477
483
490
479
469
479
500
485
451
446
449
461
473
478
469
457
468
465
446
445
464
489
491
482
492
494
490
486
497
494
484
482
495
476
464
477
494
491
474
470
485
516
527
519
511
502
486
489
499
504
505
547
567
559
539
525
525
531
542
539
542
567
567
547
549
565
568
558
548
551
548
541
541
563
581
571
569
568
574
577
584
576
577
593
603
583
570
576
592
589
593
586
576
586
594
606
603
594
590
572
569
563
552
581
585
579
567
568
541
549
565
571
573
574
567
575
594
607
610
603
580
557
527
501
503
522
541
534
533
512
504
517
515
527
523
517
508
499
505
502
502
505
490
482
483
478
462
450
446
437
430
460
451
436
430
443
479
489
466
418
399
400
400
378
370
379
400
395
394
386
396
402
387
396
407
398
401
415
409
399
388
390
393
389
389
388
382
370
385
387
391
398
404
420
413
398
389
385
387
390
394
403
414
415
413
396
382
389
377
382
411
441
462
466
433
417
424
433
434
414
408
411
422
412
395
394
401
408
425
442
451
440
429
431
430
415
408
433
446
456
464
452
456
452
443
427
427
437
432
422
426
438
442
424
436
469
469
456
460
453
446
440
442
450
455
451
448
451
457
456
452
442
445
450
448
450
448
453
443
437
439
426
443
442
435
430
420
431
437
442
450
443
445
456
462
463
456
457
458
455
451
451
457
449
452
460
459
449
444
447
453
456
452
454
461
465
445
443
443
459
467
456
447
447
462
464
445
427
416
409
415
437
459
482
480
473
479
489
470
462
474
485
490
499
502
491
457
428
406
396
417
431
459
467
478
490
491
472
467
460
457
466
465
449
443
455
461
466
467
465
480
489
471
459
460
473
474
473
467
460
454
450
458
448
436
432
441
441
444
452
467
471
464
466
474
472
469
459
452
462
463
459
456
454
462
452
449
467
463
453
475
484
477
474
469
471
455
444
468
478
498
515
531
531
515
497
475
476
484
480
475
475
475
480
470
475
484
493
508
500
484
476
472
471
468
500
503
480
452
458
482
509
523
524
526
534
527
492
477
487
506
515
530
532
529
516
503
516
526
522
515
496
479
474
489
480
476
482
481
489
484
469
458
453
444
451
468
481
486
469
447
442
450
461
469
468
477
483
486
487
482
472
453
454
452
453
443
423
428
427
436
442
438
453
468
466
451
434
436
446
473
480
483
479
452
465
486
461
447
434
451
462
480
484
471
467
475
478
464
448
445
462
467
432
415
416
415
427
456
471
476
472
486
513
520
538
572
608
644
692
734
770
823
862
881
918
941
952
974
989
989
988
988
988
988
988
988
989
989
990
949
910
881
854
810
765
703
640
580
520
453
397
336
257
198
159
133
116
113
126
147
169
187
205
211
220
234
250
266
274
275
287
300
307
334
334
356
370
382
389
391
397
399
410
401
404
420
434
443
434
404
385
386
394
400
406
405
410
431
420
414
417
421
426
402
381
397
426
427
430
439
435
456
486
478
464
446
435
432
435
442
444
444
446
442
459
464
452
442
446
447
437
447
464
474
476
478
479
479
468
460
465
470
476
460
447
458
453
449
475
482
461
465
495
489
491
505
498
483
484
483
485
486
476
468
477
477
479
499
516
512
514
522
510
510
492
479
477
477
477
478
465
467
498
534
560
548
537
530
527
525
527
532
548
565
568
565
549
539
538
533
524
530
537
563
567
574
582
579
571
557
546
578
601
592
565
559
561
571
575
573
575
590
596
604
588
570
558
552
549
549
568
573
569
583
592
594
610
601
574
563
571
574
570
561
578
598
595
581
574
572
571
560
558
574
556
539
538
535
531
541
574
582
558
540
535
537
532
531
543
537
503
487
487
505
509
497
496
485
482
483
487
472
473
453
449
463
468
458
449
434
415
415
420
416
418
423
426
431
433
423
414
417
423
409
414
418
415
403
388
384
387
394
390
388
387
387
384
373
367
380
376
380
399
403
406
397
399
396
397
395
407
403
412
421
410
400
400
401
403
411
407
417
417
398
401
408
395
400
415
428
443
450
444
451
442
435
415
401
404
411
431
430
411
404
414
428
417
405
399
406
428
450
462
474
464
468
471
464
459
465
457
463
469
467
452
445
442
443
447
449
457
460
447
454
467
474
462
438
410
421
446
456
470
469
451
441
442
442
438
436
434
426
435
450
465
468
464
461
458
456
452
453
457
449
454
460
460
459
463
457
448
445
460
453
441
452
462
447
455
461
456
456
452
453
460
471
446
434
440
448
450
461
458
454
459
450
452
470
472
467
466
466
453
435
442
456
458
452
444
447
457
441
415
425
451
468
476
479
486
492
468
463
469
454
447
459
456
458
465
456
452
461
469
480
515
498
474
469
459
449
466
472
478
497
494
482
471
472
475
466
458
472
481
487
485
489
483
474
469
477
488
462
460
463
460
464
474
484
493
487
483
481
475
476
484
489
481
486
501
503
507
518
512
513
509
498
482
476
492
503
496
494
499
503
506
505
491
481
475
470
468
472
469
477
469
459
479
478
468
467
468
473
469
464
460
469
469
466
476
466
465
459
466
461
461
459
461
461
468
476
469
474
479
494
501
483
456
451
445
444
448
449
452
448
447
458
456
444
446
453
462
468
464
456
458
461
464
471
464
466
459
447
431
432
442
452
451
464
484
501
503
503
520
503
488
517
555
580
605
641
678
720
764
797
833
864
891
921
950
975
990
989
989
989
989
989
989
989
990
944
888
875
862
848
814
752
691
621
563
521
475
425
370
316
261
189
151
147
164
158
174
195
212
226
233
251
260
248
260
279
279
293
308
325
352
367
385
396
416
436
413
399
401
388
378
387
390
395
397
408
409
425
436
438
449
429
416
422
421
411
412
420
425
422
422
436
444
457
464
458
448
457
453
423
423
442
444
432
430
450
452
444
433
431
477
506
503
485
461
450
447
440
461
480
476
465
464
482
507
511
504
488
473
512
521
503
490
490
485
491
492
486
480
470
471
478
492
508
519
507
494
487
489
510
512
507
503
504
516
517
487
471
471
465
501
518
519
512
512
524
528
519
517
528
526
512
507
514
528
533
521
527
537
557
572
556
534
521
525
517
517
529
537
539
542
553
550
544
544
553
562
571
580
564
576
590
595
612
626
622
598
576
562
553
568
580
573
567
561
564
571
582
588
619
630
603
595
600
597
594
597
591
587
605
598
591
579
574
579
593
580
564
548
531
541
549
568
590
582
569
567
547
544
541
538
542
537
521
509
500
487
502
505
500
504
504
498
495
491
492
482
469
455
463
471
470
455
448
452
446
424
414
422
422
435
455
453
435
406
391
404
430
451
438
424
430
426
414
404
363
343
332
356
370
391
389
389
387
400
389
363
367
392
415
416
425
423
409
403
408
404
402
399
403
416
408
413
423
415
401
406
426
439
437
430
427
427
419
422
419
419
426
426
435
448
431
423
424
421
394
413
441
451
443
432
442
451
455
462
456
443
432
431
429
438
437
440
449
474
463
464
492
501
472
455
448
441
451
470
476
455
448
439
431
435
438
446
453
475
466
469
471
455
453
449
458
461
455
459
467
456
446
455
470
466
452
443
454
472
461
437
437
442
455
454
458
470
469
451
453
461
467
472
476
479
464
449
452
458
474
473
450
431
428
434
438
444
468
500
489
468
470
459
442
451
446
448
446
443
448
455
461
448
443
443
439
443
447
456
454
457
463
462
462
469
469
484
486
472
459
469
485
484
477
468
478
478
477
466
472
489
484
459
448
465
491
495
468
447
438
443
462
470
470
479
499
506
491
490
484
479
480
482
476
472
477
486
483
498
501
485
482
487
492
492
492
477
473
485
499
490
483
479
482
497
503
482
461
455
446
477
514
514
487
452
447
467
456
452
449
442
470
499
493
500
505
494
489
483
475
481
500
513
522
525
538
531
514
513
504
492
488
492
496
495
491
498
511
509
506
504
497
487
474
490
473
457
457
463
471
478
477
483
480
436
410
420
436
464
498
519
515
494
481
472
474
510
511
492
484
486
486
481
467
450
460
451
439
441
454
470
477
485
493
490
484
487
474
462
455
474
488
464
458
467
462
464
461
460
454
448
459
459
456
456
446
435
428
420
431
446
455
457
470
485
495
516
514
523
543
569
596
619
652
699
747
777
802
842
869
888
926
958
974
979
989
989
989
989
989
988
988
988
989
987
939
914
889
834
779
722
655
601
556
511
453
389
325
252
177
133
120
112
134
160
179
207
217
217
228
234
231
240
267
287
295
297
320
366
385
391
414
417
429
422
393
384
392
384
383
387
399
412
426
426
425
425
427
419
419
424
426
422
430
425
426
436
439
430
423
428
435
432
433
441
446
447
446
441
445
465
468
453
448
455
461
467
458
443
451
446
472
490
492
500
490
458
438
455
466
472
480
477
475
475
482
488
487
475
464
470
484
492
487
488
486
476
472
464
466
481
491
489
507
511
504
492
483
482
484
501
512
508
504
507
521
508
497
506
534
544
536
511
508
520
523
510
496
490
491
486
508
520
525
523
524
538
569
572
548
531
535
532
524
523
519
524
535
538
533
553
568
571
569
568
571
560
563
574
583
586
572
574
581
596
609
612
605
597
581
563
587
597
599
600
597
594
586
586
595
598
594
583
593
593
597
606
590
582
567
562
563
574
591
616
610
571
549
558
562
555
548
564
580
578
559
537
532
543
544
530
513
526
530
532
525
516
507
503
520
528
518
497
486
481
486
489
491
486
475
491
484
455
429
427
440
452
457
443
441
432
415
420
418
420
397
377
384
384
397
405
406
410
421
423
419
406
406
400
387
382
402
423
430
410
393
403
396
391
381
376
398
397
395
409
436
425
415
410
423
434
441
450
447
431
409
411
427
445
436
426
414
402
416
430
444
437
442
428
412
405
428
443
432
442
438
432
432
428
433
459
453
439
436
422
433
441
437
467
500
499
471
454
426
425
421
432
438
441
456
447
426
418
421
437
464
483
485
470
472
479
473
465
462
458
450
441
426
450
472
477
474
469
471
480
486
462
449
435
434
460
475
481
471
456
430
421
442
456
458
454
454
459
478
471
471
469
453
460
468
463
455
440
433
438
440
446
471
460
448
445
460
457
458
448
452
451
472
481
474
476
496
501
496
489
473
483
486
463
451
461
474
481
476
470
467
454
459
456
471
469
465
467
472
472
448
455
476
489
493
507
494
475
458
456
460
459
461
465
462
444
450
482
489
491
484
476
476
481
486
478
460
448
450
455
467
470
453
449
467
477
474
484
473
454
460
479
493
503
497
480
462
460
457
455
458
454
460
487
501
490
493
503
499
493
483
481
479
471
463
480
489
492
482
463
472
488
500
494
490
489
487
489
480
483
479
467
474
506
507
495
479
482
489
506
520
530
530
528
524
517
500
491
499
504
508
504
507
511
530
528
518
513
512
510
521
512
488
477
478
477
478
476
472
464
476
494
478
466
458
450
452
464
473
475
479
475
476
479
472
474
460
460
474
480
469
461
457
451
455
462
470
471
470
464
482
483
486
500
495
482
486
483
473
476
460
460
472
469
466
491
471
456
465
452
435
426
437
462
488
476
460
459
454
456
459
467
455
444
446
459
465
464
472
488
508
531
552
577
604
624
653
702
753
797
815
829
862
898
931
975
989
988
988
988
989
989
988
988
988
988
989
989
990
951
904
865
822
770
717
649
577
521
469
409
355
289
213
154
125
127
141
157
180
195
198
193
214
240
266
274
284
297
316
336
346
361
364
357
351
347
364
387
397
411
403
395
410
406
396
396
392
392
406
408
415
421
421
423
420
426
425
429
440
438
419
442
460
441
426
430
426
416
414
415
419
417
422
417
418
452
485
485
474
464
465
462
448
444
441
448
452
450
438
437
449
459
459
453
456
466
473
479
480
482
496
491
499
507
506
494
488
486
462
451
462
479
484
484
478
476
490
489
477
484
506
499
491
497
482
488
496
474
478
505
532
547
527
501
507
514
517
520
533
536
527
501
508
512
510
499
511
522
530
541
540
528
532
545
563
564
542
558
571
571
572
563
552
543
545
550
549
558
573
577
586
594
570
563
570
580
585
586
592
598
595
577
566
579
599
613
599
594
598
603
605
597
590
583
582
595
592
585
579
581
580
577
580
585
573
579
567
564
573
575
576
596
574
562
560
565
564
558
548
545
535
519
518
520
516
515
523
528
532
541
532
524
511
498
471
472
488
494
502
502
486
477
493
486
442
431
434
443
461
469
454
447
436
442
449
444
438
441
441
433
433
420
385
369
372
399
420
409
393
389
385
388
381
396
413
420
409
409
429
428
413
396
403
408
407
397
387
389
398
416
428
432
429
427
430
422
417
418
406
424
418
411
424
428
431
425
412
406
400
397
396
405
411
438
445
448
468
470
451
441
444
441
441
436
429
421
429
436
431
426
446
465
459
447
441
438
452
453
452
457
471
464
456
454
444
443
446
453
464
465
455
455
450
457
444
437
456
475
485
469
455
458
486
486
479
457
450
444
435
442
451
460
470
471
451
456
457
443
424
422
426
432
468
485
469
454
455
463
462
463
466
485
477
471
459
456
461
452
441
437
454
467
465
471
470
458
451
449
451
452
453
473
480
469
461
455
455
455
461
486
495
482
470
467
467
457
446
461
481
461
451
465
462
444
458
471
473
474
459
462
476
479
477
470
464
457
479
490
475
469
457
458
450
452
475
455
440
448
465
467
464
453
462
460
467
475
471
459
461
460
457
475
471
472
487
499
495
471
465
471
479
461
464
462
483
485
469
461
447
447
446
452
455
460
467
469
475
479
477
481
490
492
478
480
493
493
475
475
486
482
487
502
500
505
504
504
496
483
475
454
449
441
459
496
520
529
526
521
510
502
519
531
517
497
486
469
453
458
481
492
506
496
496
494
503
504
507
517
520
504
507
503
503
487
500
519
528
528
530
530
515
499
493
498
493
491
498
503
512
503
474
468
472
473
482
483
465
453
459
468
467
465
480
474
467
469
483
471
448
455
474
471
453
461
469
453
450
471
476
480
483
466
453
465
472
464
468
488
484
473
472
472
465
464
464
472
473
472
469
457
465
478
511
520
495
456
448
445
445
450
452
458
453
464
467
464
454
458
467
456
453
464
478
482
490
486
494
508
517
546
602
647
670
727
775
815
845
871
889
926
957
989
989
988
988
988
988
988
988
988
988
988
988
989
989
988
931
884
816
730
663
593
554
494
428
367
300
226
158
106
111
137
147
156
162
165
185
215
233
245
268
275
286
287
291
298
315
318
338
354
350
358
378
400
409
413
425
426
411
398
407
421
429
447
443
428
418
404
394
404
409
407
398
394
380
376
373
390
436
440
437
448
462
448
434
427
431
446
464
476
465
459
451
435
451
455
436
447
461
468
456
447
447
456
460
458
453
452
455
472
475
470
446
439
449
467
509
509
514
517
512
501
477
468
472
453
444
445
452
439
444
439
451
480
482
470
485
490
494
496
501
495
494
493
498
496
501
489
483
485
477
488
499
512
510
520
528
528
524
533
532
523
514
513
542
557
530
535
541
539
580
584
579
580
578
582
572
559
549
545
549
572
568
578
584
575
569
555
559
568
576
575
566
566
587
617
631
627
614
593
585
591
592
597
601
601
595
592
596
601
621
633
611
577
550
554
573
593
600
608
597
591
595
610
598
588
569
547
541
561
570
581
588
570
559
534
524
532
539
538
523
506
504
503
502
496
495
495
491
487
493
485
469
478
497
494
481
462
459
460
464
468
469
468
448
438
436
433
444
449
439
442
448
438
420
402
388
402
401
406
410
407
405
423
429
405
395
394
396
388
398
402
403
388
381
387
392
395
399
395
392
400
394
396
404
399
386
390
394
392
398
415
420
420
421
408
393
399
413
414
412
419
428
438
440
453
448
450
449
436
427
431
443
448
453
432
408
403
415
445
459
459
452
455
466
460
439
426
432
448
444
431
448
460
458
462
464
476
453
441
445
438
419
436
437
426
449
458
449
450
462
467
466
456
456
438
424
429
440
430
422
439
446
462
466
477
481
498
479
446
424
428
439
446
455
465
478
478
458
446
448
448
448
466
465
464
478
463
468
468
449
448
439
439
464
466
458
450
455
447
440
452
448
449
458
468
466
460
457
456
455
440
449
456
470
483
475
460
463
471
458
453
449
463
462
466
486
479
444
455
474
489
512
483
437
450
465
470
473
469
466
457
454
455
455
465
468
468
480
500
493
451
442
457
478
485
472
460
455
453
458
454
452
461
474
491
488
481
478
464
452
453
460
463
469
473
463
456
461
474
476
476
466
457
454
467
474
459
456
443
445
463
487
491
480
468
469
464
472
462
459
465
478
487
484
486
474
483
493
502
481
465
449
454
460
466
478
479
472
489
494
477
460
465
473
487
506
502
488
515
516
510
515
508
512
506
493
482
477
480
475
467
465
475
480
493
495
495
487
482
472
464
469
482
481
483
502
501
491
503
524
536
515
509
517
513
492
488
488
495
516
515
515
513
520
507
526
532
515
484
468
460
473
508
526
519
504
503
497
476
459
462
460
473
499
494
480
479
465
467
484
488
465
466
466
467
459
459
460
469
478
481
472
443
451
460
470
477
479
486
479
484
497
498
482
472
459
454
471
465
461
465
455
434
459
459
448
453
452
458
474
473
465
457
458
456
454
438
433
437
435
439
449
442
429
437
454
469
491
509
515
527
551
571
606
648
691
752
796
815
825
864
913
940
971
990
989
989
988
988
988
988
988
989
989
990
971
938
921
903
865
806
754
654
578
535
498
463
393
303
218
172
124
99
101
113
133
162
174
189
217
246
251
233
227
245
272
293
312
322
331
352
357
371
381
406
419
400
387
402
414
413
415
416
401
394
415
433
440
435
431
418
412
413
418
424
430
437
436
437
433
424
425
438
449
431
443
454
439
429
438
439
418
433
451
456
446
460
474
468
451
443
438
449
447
445
440
444
455
474
480
465
448
454
479
500
498
490
487
489
484
485
497
489
472
458
448
448
455
462
474
479
476
485
505
482
471
478
474
478
491
499
512
522
514
504
494
472
488
496
489
487
470
479
516
521
510
534
542
529
534
535
530
517
522
535
539
544
545
537
538
538
537
529
543
543
532
530
533
546
558
552
562
578
583
587
586
590
590
581
564
564
571
578
594
596
594
588
587
590
592
582
582
593
593
593
594
595
596
575
572
580
583
578
575
568
561
578
592
614
612
591
598
592
584
582
576
577
583
585
584
578
557
538
547
562
567
551
539
528
529
533
549
553
534
531
529
522
507
498
497
499
497
490
484
488
488
467
465
473
463
453
451
451
451
452
477
459
449
458
451
434
416
395
409
427
429
428
423
404
398
390
382
391
386
397
408
416
410
415
423
414
410
415
422
406
392
386
394
380
384
406
417
411
403
399
412
411
402
395
394
395
404
421
433
425
423
416
417
428
424
404
411
417
416
429
445
452
435
417
423
428
425
416
431
434
430
442
427
419
404
408
431
461
462
452
450
454
450
439
439
446
443
445
448
463
463
464
470
470
450
433
425
431
429
442
439
436
451
451
461
473
461
448
456
456
426
429
445
457
455
457
456
458
456
455
455
455
455
448
423
419
441
453
445
467
488
493
487
475
451
448
453
440
442
460
472
478
465
460
454
455
462
457
457
454
451
458
463
457
455
449
454
461
449
449
453
468
462
465
482
483
464
428
410
420
428
448
463
471
469
461
462
459
442
449
459
455
461
466
453
456
454
441
447
463
476
468
483
498
482
458
456
465
455
456
463
467
460
455
462
466
472
476
472
456
456
474
469
463
459
468
478
466
453
459
482
495
504
510
506
479
455
456
468
480
485
476
465
458
468
489
497
498
481
469
480
489
475
467
461
464
468
459
455
470
490
505
504
496
476
463
461
470
488
517
518
520
517
510
502
491
502
515
543
536
513
495
502
512
508
491
464
473
476
488
489
480
462
458
469
496
495
476
468
469
472
473
465
461
448
443
439
445
449
452
472
476
466
454
455
453
450
458
468
481
482
474
468
450
438
446
474
483
475
459
460
460
472
483
501
500
478
455
450
446
444
444
448
445
456
464
456
461
468
481
469
454
434
425
432
429
432
431
440
439
440
448
464
463
473
490
505
527
545
555
537
525
553
608
654
699
758
788
811
835
860
890
920
972
989
989
989
989
989
989
989
989
989
988
950
906
873
845
801
757
700
630
577
536
492
466
408
354
287
231
192
167
154
154
158
174
178
169
173
173
192
227
256
266
274
314
323
332
353
364
373
398
404
410
423
422
419
423
420
405
403
408
413
420
422
411
422
428
410
409
416
422
423
427
429
437
439
434
430
432
450
449
448
440
423
433
455
458
439
430
443
454
445
474
484
472
459
445
441
438
455
459
457
458
469
478
482
480
473
471
455
456
471
480
490
482
464
460
468
467
472
493
484
473
480
496
499
485
474
473
493
491
474
483
487
472
465
475
506
514
511
509
497
474
456
475
473
468
489
530
532
526
521
519
523
546
567
562
541
535
536
530
537
536
528
541
537
536
535
544
543
534
534
534
534
523
536
559
567
581
597
585
569
564
558
565
588
581
579
576
573
593
601
590
583
595
592
587
591
606
604
599
592
582
582
581
582
587
593
600
604
597
575
572
603
626
607
591
589
592
600
583
561
546
541
538
542
543
546
545
546
551
556
570
560
542
537
522
515
505
526
553
564
540
514
502
498
491
479
476
476
483
491
488
477
477
473
456
440
444
459
457
448
457
464
456
444
432
414
397
400
415
417
412
403
411
428
425
404
402
409
396
389
391
394
392
386
397
411
410
413
398
389
400
408
406
403
393
396
402
396
385
413
420
408
412
415
415
411
405
396
401
402
408
412
413
415
417
422
419
407
397
400
400
407
412
415
415
430
438
443
440
439
441
433
440
444
447
421
416
419
428
439
447
451
453
453
445
446
443
442
443
429
431
442
441
431
432
444
447
460
475
466
442
441
446
446
448
449
438
447
464
467
455
462
473
456
439
433
442
437
444
457
460
446
435
433
434
424
450
449
450
463
464
441
456
464
454
459
459
460
461
456
459
466
469
464
454
451
442
430
419
434
466
481
479
465
459
452
454
447
449
449
458
474
471
462
462
477
479
473
453
448
458
455
463
474
487
474
474
486
474
451
451
457
465
471
482
474
450
450
454
465
448
445
448
461
477
474
464
463
465
471
479
475
456
444
442
444
439
444
455
479
487
473
468
463
457
437
442
455
468
486
504
503
496
481
469
474
474
468
468
486
501
511
506
487
464
451
456
485
494
479
471
472
488
482
473
467
464
467
477
491
495
493
505
505
506
490
486
485
497
498
496
471
470
473
471
477
480
478
488
501
495
479
487
499
522
515
532
531
510
489
487
513
516
512
501
496
473
467
468
464
472
478
485
485
465
443
455
455
458
466
481
469
479
488
489
476
467
448
458
490
513
508
499
490
474
452
447
441
443
444
452
466
459
454
443
445
472
466
447
435
441
461
470
486
490
474
461
468
468
462
454
454
443
446
454
453
448
448
458
464
450
453
459
451
445
421
422
420
416
423
430
431
444
472
504
524
518
520
535
560
579
616
652
725
767
779
808
839
868
897
932
969
989
989
989
989
989
989
989
988
989
989
989
989
969
925
883
840
802
752
671
599
548
501
434
367
310
235
179
154
150
162
167
184
212
217
226
238
249
251
245
248
256
267
290
308
314
338
365
384
393
392
396
401
401
389
396
390
398
400
402
400
396
398
387
390
400
407
423
436
436
433
435
452
453
406
393
404
427
443
446
438
438
427
420
430
433
425
412
420
450
447
431
433
454
460
443
437
421
439
470
481
487
479
472
471
467
461
451
453
457
450
460
473
467
465
490
504
501
489
484
471
466
465
481
507
507
494
492
495
505
503
486
471
471
487
496
481
479
473
473
477
480
483
495
513
528
535
514
496
492
495
489
494
501
512
507
480
492
506
538
541
544
539
543
544
511
500
521
528
519
505
500
540
556
552
548
551
557
574
579
568
553
546
554
567
566
565
552
546
570
594
597
599
600
582
608
638
629
604
612
609
593
588
585
578
572
574
584
595
607
610
605
601
608
595
586
589
591
583
576
579
565
556
564
566
561
573
564
558
551
551
533
516
521
515
541
555
550
526
511
522
540
546
529
522
502
488
477
474
492
508
510
489
469
468
469
465
455
453
443
426
428
436
440
421
406
416
435
422
391
382
390
404
404
422
419
389
380
377
372
387
398
423
437
423
411
409
386
371
382
382
393
404
425
426
425
405
399
399
391
404
397
395
406
417
424
433
411
400
396
387
384
385
407
425
432
435
428
410
416
427
421
416
418
424
426
425
429
435
429
432
421
412
428
424
420
434
440
437
433
435
446
453
445
437
428
432
438
436
433
421
419
433
449
465
466
452
430
419
435
446
465
460
439
430
439
440
421
399
388
393
413
438
452
462
467
474
480
487
489
476
451
432
437
450
448
469
467
452
460
467
466
465
464
463
458
457
457
466
476
464
455
444
441
454
455
437
424
434
458
481
486
473
478
473
459
458
468
458
437
432
440
454
471
474
476
460
445
439
439
451
443
458
472
461
463
477
478
476
466
462
464
460
459
455
456
448
449
458
464
469
481
481
469
479
475
479
477
474
486
481
462
482
456
431
452
461
447
435
430
433
433
432
432
434
455
492
508
477
451
432
437
447
437
446
459
463
474
494
495
485
466
464
477
480
487
497
492
491
477
472
482
483
489
492
492
487
500
496
491
489
478
438
442
462
462
475
488
492
476
470
468
475
470
475
468
470
478
474
497
501
503
499
503
505
505
505
514
514
519
521
525
525
513
510
514
512
503
490
494
502
505
507
495
490
483
486
485
476
473
464
471
486
499
487
472
477
504
494
490
494
473
458
455
465
459
449
450
452
441
445
444
442
447
451
453
461
461
461
454
461
460
453
465
479
471
469
466
481
468
444
433
443
453
458
466
464
455
471
463
446
445
454
453
443
441
455
445
441
466
471
479
496
491
480
463
436
420
415
427
426
422
421
426
430
469
526
527
521
544
573
597
625
653
693
752
778
809
865
901
928
951
978
989
990
989
989
988
988
988
988
988
988
988
989
989
979
934
897
850
793
726
647
595
561
511
432
360
281
211
174
127
105
103
119
146
170
186
182
188
218
247
259
268
264
278
312
341
350
347
372
388
386
381
373
368
360
349
365
384
403
402
398
407
401
386
375
375
395
418
418
406
393
384
392
395
432
456
443
440
428
420
439
451
447
429
418
426
437
429
403
400
418
443
463
476
480
478
477
468
457
451
446
439
438
437
425
433
457
474
472
460
468
477
477
480
482
471
467
484
475
471
484
480
481
477
473
480
488
480
479
474
466
475
487
492
481
483
486
499
509
491
476
476
492
506
493
470
477
492
507
525
523
504
500
520
503
475
482
499
504
503
515
530
531
537
542
537
536
546
545
540
540
550
553
553
543
546
552
568
564
558
551
558
572
568
578
582
585
562
561
572
584
599
596
593
589
605
615
628
645
629
600
579
583
599
606
597
598
592
574
569
580
603
609
596
579
572
566
566
579
595
595
582
584
564
569
574
570
559
556
550
539
532
546
562
557
544
538
557
553
539
522
530
538
532
520
513
522
494
476
450
448
460
494
510
483
464
447
484
513
515
463
450
447
427
412
410
419
436
444
479
436
414
407
416
400
383
399
392
467
478
428
399
400
385
378
383
443
482
503
452
441
418
403
409
404
400
394
389
396
397
394
389
384
383
395
408
412
411
408
401
393
393
402
411
405
387
384
396
392
389
400
439
430
418
420
412
411
405
405
406
401
397
414
436
446
431
424
435
427
411
391
413
435
433
427
398
396
442
461
452
448
465
480
482
465
471
492
459
421
429
441
429
431
434
436
430
455
458
444
441
441
419
419
437
443
449
444
444
436
437
442
444
450
452
454
458
464
464
447
439
438
439
451
452
443
464
483
496
481
450
421
408
434
450
466
479
480
464
452
443
441
449
450
453
455
450
441
458
463
451
446
451
478
461
456
453
451
459
460
462
456
448
438
464
474
472
464
459
477
482
468
477
493
474
461
465
469
453
439
441
452
457
463
472
478
485
468
458
446
436
439
437
449
449
444
460
488
495
492
480
480
489
484
478
467
460
458
465
473
459
453
469
456
443
445
447
467
484
477
476
475
468
473
464
452
452
456
475
486
490
492
494
476
462
453
453
450
454
470
482
482
479
464
449
446
460
453
476
492
486
472
464
466
464
462
458
461
492
501
492
476
473
481
485
478
488
497
500
490
491
479
476
488
493
491
513
538
530
527
500
494
494
490
471
455
457
457
454
460
477
486
483
481
490
502
508
507
492
492
494
501
501
506
493
491
512
507
512
525
540
537
524
510
502
493
492
500
501
492
482
484
496
499
521
517
507
499
499
504
493
462
449
455
456
466
472
467
465
470
470
463
457
451
451
444
447
464
479
485
494
488
483
477
465
459
458
443
437
442
459
469
466
458
461
471
468
467
473
485
483
485
475
459
443
453
481
481
467
463
464
464
462
483
476
461
444
428
424
451
455
443
440
462
462
440
454
464
469
482
496
509
523
547
581
602
616
655
721
788
838
870
892
927
964
990
989
989
989
988
988
988
988
987
987
988
988
989
989
989
967
921
851
789
740
663
588
527
472
415
349
276
211
161
134
130
135
142
170
167
188
206
215
221
222
219
237
270
298
317
317
322
355
383
380
386
379
366
363
371
380
366
363
382
411
416
399
390
379
378
385
404
414
421
440
443
437
436
442
437
421
408
416
423
447
453
453
467
460
450
451
455
438
430
419
425
452
452
446
440
451
449
445
438
438
447
451
458
465
458
454
440
441
443
448
453
448
461
464
459
465
472
460
461
482
485
480
482
473
459
457
466
481
468
454
478
500
504
489
490
502
492
494
501
491
486
477
463
453
468
511
530
527
516
508
503
492
493
496
496
507
535
553
544
524
517
506
509
516
506
505
525
532
527
531
535
550
559
569
577
579
587
570
562
563
563
568
581
583
583
586
584
593
591
588
605
615
602
587
586
589
583
584
597
584
593
600
605
599
582
559
571
577
606
621
623
612
599
592
575
577
580
604
603
583
578
579
589
582
569
562
568
570
555
543
550
551
556
558
544
555
562
549
547
531
522
537
545
535
524
525
523
496
483
473
470
466
467
475
480
480
465
446
439
430
417
432
444
434
422
437
433
424
417
419
422
429
447
455
454
447
447
431
415
401
379
383
389
417
395
379
380
376
390
388
393
400
400
398
382
394
402
395
385
385
381
398
407
399
402
413
423
414
403
397
415
413
400
407
415
410
404
400
412
427
439
438
422
407
399
407
417
416
409
408
420
404
410
430
442
455
448
428
416
440
433
426
426
428
426
434
448
466
458
445
448
454
453
456
461
467
472
456
438
429
435
440
446
464
460
448
438
420
418
422
430
434
444
461
458
453
462
473
462
431
420
429
438
442
454
477
490
473
457
456
466
499
506
508
492
468
462
463
445
436
455
461
458
464
477
464
462
468
475
462
447
433
425
431
459
482
466
436
431
443
452
455
457
457
445
449
452
442
449
468
475
456
445
443
440
441
456
452
447
459
458
464
467
463
466
462
459
434
440
451
442
431
431
462
495
489
489
484
463
451
446
458
464
459
443
456
456
474
486
494
494
480
462
449
442
442
452
474
479
479
480
496
491
478
480
465
448
451
494
532
529
494
473
467
491
498
506
501
484
481
470
481
467
446
449
465
465
475
477
469
465
462
454
459
464
459
471
488
480
482
472
465
455
463
465
466
461
464
464
456
467
471
462
459
472
480
481
483
484
477
474
476
472
483
487
467
471
476
488
492
497
489
484
483
471
473
468
460
483
486
477
496
512
490
472
469
460
460
461
473
484
494
493
486
485
490
495
504
502
503
506
524
524
505
502
518
520
531
535
519
506
500
495
492
500
521
531
529
528
518
499
487
478
467
471
476
481
501
515
505
490
477
485
492
517
523
501
470
455
451
459
462
456
470
470
458
470
505
501
484
483
500
486
474
467
463
455
450
457
453
450
463
465
462
454
442
443
453
456
461
461
452
444
440
454
477
488
474
463
469
485
494
476
443
427
435
438
455
463
462
463
448
427
408
423
440
439
450
469
487
503
507
522
533
538
564
611
659
718
764
810
838
866
885
920
957
989
989
989
988
988
988
988
988
988
988
988
989
989
953
925
890
855
815
758
690
640
586
521
455
402
336
257
209
177
141
128
124
143
151
166
193
218
234
253
261
265
275
273
271
280
304
323
338
350
352
365
371
380
391
410
425
417
390
374
386
421
424
417
431
429
421
417
413
412
413
406
408
417
425
441
453
456
433
416
438
446
441
432
437
438
435
445
467
460
453
449
441
462
461
442
444
449
459
462
469
489
466
443
452
439
441
443
449
442
447
453
464
479
473
463
455
462
470
485
490
492
501
499
492
482
492
492
478
468
463
471
493
517
525
503
483
487
487
498
506
489
477
480
482
473
482
503
533
532
522
521
510
507
512
542
546
532
530
533
515
496
497
521
534
526
519
535
546
557
549
535
523
527
528
545
562
576
580
591
579
563
570
579
588
588
576
579
573
571
581
581
580
580
590
602
603
598
600
609
594
572
562
565
572
575
583
596
600
602
615
605
588
582
581
584
601
609
605
605
583
577
581
578
565
565
560
564
553
543
562
561
549
546
549
563
552
534
533
536
539
527
505
486
499
515
527
530
514
512
516
503
489
463
443
465
488
474
480
469
450
431
426
420
429
441
453
434
419
411
406
415
430
431
408
403
415
425
423
425
437
428
406
401
402
402
395
379
376
383
387
384
367
396
415
415
402
387
397
405
410
426
406
393
389
386
390
396
392
397
400
403
407
410
405
401
401
399
401
419
442
428
413
427
426
419
429
428
426
422
423
417
406
399
406
431
448
453
439
452
460
460
462
452
437
413
404
427
455
461
463
460
448
436
427
429
430
436
435
446
458
454
451
456
456
457
438
429
436
444
474
470
468
443
448
450
436
442
450
452
453
453
457
463
496
496
472
454
460
461
458
457
462
465
466
471
462
454
460
459
446
442
443
455
463
465
468
454
431
430
434
435
447
472
494
484
466
463
455
454
451
464
480
479
465
447
442
458
456
459
452
466
461
444
440
449
455
458
448
446
467
480
472
473
477
473
464
469
477
482
469
446
438
439
457
461
464
471
467
462
462
455
448
457
469
469
468
467
479
490
469
455
436
451
469
458
455
449
442
450
464
462
447
462
489
503
496
493
488
481
473
455
438
455
458
467
477
476
481
481
486
485
462
446
450
470
482
492
500
491
484
489
491
483
475
456
447
464
458
459
482
505
517
537
524
509
495
492
490
490
477
463
461
475
482
479
478
473
475
460
456
460
467
499
501
500
488
493
514
513
517
512
500
507
507
514
521
528
521
515
506
502
513
512
515
517
488
474
479
479
486
480
476
472
475
473
468
453
445
457
462
482
500
483
482
483
470
469
467
478
490
470
445
447
461
465
472
471
466
466
465
464
460
463
470
476
482
483
474
463
476
481
475
468
451
455
473
473
465
465
463
469
481
487
485
467
454
452
459
461
461
467
467
446
444
457
477
475
472
462
456
443
439
455
476
467
461
478
485
480
482
497
504
517
536
565
605
647
692
719
763
807
842
866
902
930
948
985
989
989
989
989
988
988
988
989
989
956
912
888
855
830
791
746
709
660
620
581
531
462
391
322
253
192
145
122
143
157
160
174
190
210
214
230
251
260
263
272
299
305
316
315
326
341
346
353
373
379
394
410
421
419
407
394
404
418
412
423
429
426
417
410
412
421
433
425
422
424
454
462
472
470
447
426
412
414
422
436
441
428
429
439
422
424
446
449
454
458
459
458
462
454
453
458
466
468
467
479
489
488
480
487
485
472
485
473
471
480
484
497
521
516
494
482
477
477
477
465
462
485
487
484
472
470
485
494
480
465
458
472
492
488
484
480
481
513
520
525
550
538
512
496
501
511
514
514
523
519
528
536
532
528
534
537
517
514
511
510
550
581
578
562
542
536
550
551
552
532
506
508
538
565
565
562
561
557
551
576
594
582
571
568
571
571
573
562
575
590
591
603
611
602
603
605
596
587
570
575
576
571
572
577
593
608
614
626
656
651
618
595
603
613
616
607
599
585
566
551
544
556
569
567
560
556
561
571
591
568
548
552
561
542
536
543
531
520
519
522
520
516
501
505
502
493
483
466
468
465
474
471
461
464
470
458
446
444
437
436
425
408
411
411
414
428
443
437
438
421
417
413
423
424
410
397
402
397
373
378
387
398
396
404
403
391
380
391
416
422
423
406
368
362
383
391
397
414
426
441
427
403
371
382
401
413
420
400
384
370
371
382
392
388
393
391
389
401
407
410
406
420
435
425
416
420
417
432
442
450
447
427
421
415
422
424
418
450
458
457
451
450
445
437
440
448
441
425
436
436
442
431
442
452
460
452
436
429
443
460
464
465
456
440
440
447
468
478
485
479
468
445
438
451
450
449
447
449
445
457
469
450
418
416
429
466
481
476
485
480
486
488
492
491
486
475
467
465
462
456
460
456
455
440
446
458
451
430
443
460
452
448
470
483
473
471
466
464
459
472
475
484
483
452
450
455
450
439
439
448
455
461
461
452
438
421
433
463
491
489
478
473
465
490
491
462
455
458
462
463
459
443
440
438
431
441
465
494
473
461
468
467
477
483
477
479
478
469
458
460
472
473
463
464
471
470
466
474
473
469
468
471
475
472
462
458
461
441
439
444
444
442
448
463
482
498
499
478
456
451
457
475
487
498
500
499
479
465
460
463
478
476
472
470
476
480
478
474
467
466
471
462
470
474
451
453
472
497
544
547
504
446
433
447
463
475
467
461
461
474
486
498
492
473
458
463
481
479
472
458
434
417
413
425
455
471
477
488
496
511
514
507
503
490
472
473
484
492
501
490
488
496
505
482
459
473
493
499
485
500
505
504
493
482
483
478
472
482
491
481
471
468
474
479
479
485
491
468
448
469
480
489
487
490
487
467
452
444
471
491
515
547
560
552
541
540
549
541
516
504
505
513
513
527
528
524
507
491
502
520
529
533
522
488
461
462
473
467
470
487
474
465
471
463
466
476
478
465
444
430
441
471
497
484
454
457
471
474
460
477
474
464
472
500
492
488
477
464
458
455
467
464
455
458
462
466
493
492
475
472
465
454
467
469
470
464
476
489
488
469
457
461
451
444
439
459
472
452
451
455
446
433
435
454
451
462
465
463
475
491
493
495
525
562
595
609
631
684
737
789
827
858
876
907
933
956
990
989
989
989
988
988
988
988
988
988
988
988
989
966
897
866
828
767
692
615
544
502
481
436
365
294
223
164
142
141
138
146
165
192
203
195
193
200
228
263
283
283
296
304
316
342
376
390
386
376
371
375
390
409
424
409
391
379
373
361
354
373
414
440
430
414
429
453
452
438
436
437
434
420
412
411
411
417
422
425
422
428
435
435
441
437
440
442
453
478
480
466
475
467
453
445
443
451
453
440
427
434
445
457
460
471
484
485
478
488
483
456
449
453
466
486
490
480
473
475
469
477
485
474
482
472
453
449
448
452
467
464
455
463
479
482
480
482
511
511
522
529
518
503
489
478
488
510
524
510
513
515
518
506
518
538
523
509
487
482
483
495
523
553
573
594
583
556
546
549
543
540
532
525
543
561
564
567
560
564
563
568
581
597
604
578
571
580
591
582
574
586
594
579
582
610
604
604
601
605
587
586
606
603
590
595
592
574
577
595
599
596
596
599
614
608
607
605
599
593
599
607
594
585
563
545
579
572
562
564
561
555
548
535
527
522
520
523
534
523
518
520
512
508
519
548
546
529
512
502
499
486
475
469
469
472
467
457
449
436
431
439
449
445
425
428
441
453
448
441
431
411
405
404
402
402
432
435
412
398
396
404
399
388
375
391
410
408
391
389
393
382
385
384
387
422
416
377
365
361
356
367
391
394
387
400
411
408
404
412
421
431
435
428
433
428
403
394
397
399
397
387
398
414
421
414
411
418
414
412
415
419
437
446
446
439
431
419
410
406
416
439
448
437
418
429
449
455
460
459
437
433
427
419
419
422
433
446
451
467
455
450
431
434
422
410
426
439
460
480
494
485
456
430
441
463
470
469
462
459
444
428
433
440
454
459
437
432
438
444
446
450
468
462
433
437
461
459
490
498
474
459
462
463
450
448
463
466
462
468
477
476
467
461
465
478
481
482
480
470
468
463
441
443
457
450
444
466
468
477
475
473
490
499
495
478
467
460
455
461
460
466
457
457
459
473
485
476
454
446
443
432
440
438
451
458
462
478
500
506
489
462
456
462
462
455
443
440
457
486
498
483
451
442
463
477
482
479
459
459
463
468
475
482
482
496
503
499
483
458
453
465
484
465
460
451
456
466
462
467
468
468
455
455
459
460
472
487
491
454
433
457
482
478
484
509
515
504
490
472
457
459
466
473
473
478
491
479
474
485
494
506
493
477
474
473
470
472
477
477
474
467
460
456
450
467
489
488
481
481
478
475
479
482
488
467
453
455
460
490
498
479
454
464
498
499
460
441
451
477
496
502
492
481
477
478
481
482
474
474
483
489
489
496
507
517
499
514
521
508
494
489
499
506
513
508
494
496
487
487
475
459
447
471
491
508
517
529
517
494
494
508
522
532
528
530
525
516
516
515
505
500
508
517
538
525
510
525
528
532
530
516
513
520
532
532
515
510
498
484
490
485
459
458
459
467
469
474
472
483
483
461
450
455
457
458
474
472
472
476
486
488
471
446
435
438
463
487
472
448
436
440
466
478
477
483
487
468
462
463
466
479
467
470
463
464
469
470
470
465
459
452
442
450
472
460
449
447
445
438
436
435
427
428
432
436
445
453
457
461
468
482
514
535
565
602
622
644
685
752
792
817
846
877
909
934
968
989
989
988
988
988
988
988
988
988
988
988
989
989
989
973
942
894
812
756
690
637
575
513
435
353
282
212
156
125
133
170
194
192
167
171
184
187
191
207
239
267
294
299
314
331
338
333
326
347
381
406
401
409
420
406
381
365
361
367
366
373
389
397
385
390
396
395
400
390
381
406
413
419
432
439
436
418
402
408
418
419
405
432
441
436
438
421
434
462
467
452
440
444
449
458
458
453
440
444
452
445
442
445
451
468
470
465
472
464
444
434
445
475
464
442
442
467
491
504
509
515
512
483
469
472
483
484
486
494
499
503
496
482
483
496
494
486
495
495
507
521
520
509
493
494
500
491
501
503
506
498
499
510
521
528
523
527
524
531
525
510
504
508
526
564
573
555
549
548
543
552
569
561
558
553
552
560
561
564
561
571
583
585
574
577
591
556
547
559
564
572
583
584
597
604
604
622
629
618
608
608
605
591
601
613
632
633
632
617
604
606
620
622
596
590
592
591
574
574
597
612
602
599
597
584
579
568
563
575
575
557
557
561
550
542
550
555
543
540
534
516
513
533
529
518
497
479
480
506
517
519
500
467
447
467
490
473
447
447
451
451
448
455
455
451
441
444
446
429
423
421
424
406
405
403
391
388
399
407
405
411
411
405
372
351
361
365
356
351
349
364
399
407
383
378
398
407
411
426
427
415
426
421
415
414
396
377
387
386
394
402
407
395
400
403
417
429
421
412
416
423
420
410
406
413
414
403
406
411
412
413
414
418
429
412
406
417
437
466
477
478
451
437
448
452
436
420
420
413
409
412
423
443
444
442
434
427
404
436
454
457
442
436
428
412
409
415
423
425
428
422
426
453
474
491
484
471
463
461
459
455
470
479
465
454
455
454
459
459
462
465
465
455
449
465
473
483
485
485
471
435
445
458
461
464
449
428
430
450
455
447
446
462
477
474
459
452
441
458
462
454
452
454
460
455
450
452
456
445
470
488
486
460
438
453
463
450
453
463
477
472
479
486
489
498
466
444
458
449
438
431
431
428
423
427
447
475
486
481
466
470
468
457
465
468
461
457
463
461
455
454
441
433
451
484
490
491
494
500
493
490
494
486
470
469
471
459
453
470
476
492
479
469
463
460
460
462
465
476
477
465
454
458
463
465
476
480
469
462
475
472
459
455
456
472
464
465
467
457
439
441
441
485
518
507
496
479
465
462
463
462
466
475
477
470
449
453
446
459
465
469
487
488
481
481
484
482
480
475
464
468
470
469
463
459
462
484
483
479
469
458
461
465
464
462
471
487
516
513
487
469
455
469
500
510
494
485
485
486
481
480
475
471
482
473
463
461
455
458
465
480
502
492
477
476
484
498
493
485
482
469
462
458
483
506
509
506
523
503
478
487
505
508
496
494
503
513
510
487
474
488
505
517
517
503
492
494
498
501
502
498
474
469
475
469
470
481
491
500
496
504
517
528
529
524
517
502
508
518
527
526
528
523
514
512
508
519
524
511
494
491
498
512
518
516
512
509
519
516
518
488
476
480
469
466
463
458
451
446
436
451
466
467
463
473
492
491
496
478
459
452
448
449
455
465
473
485
467
460
451
452
452
461
486
522
524
515
498
474
464
471
478
463
462
465
472
486
484
467
450
459
467
466
463
455
452
447
451
448
429
411
411
401
422
455
463
457
448
450
458
479
507
516
511
544
602
663
703
728
754
788
839
882
920
970
990
989
989
988
988
988
988
988
987
987
987
988
988
988
989
990
967
901
838
770
713
647
556
485
431
365
306
243
181
143
114
112
137
153
164
165
169
177
196
227
253
270
283
290
292
298
320
350
373
355
368
380
379
382
380
375
393
410
398
386
386
389
397
398
400
396
388
378
401
411
413
408
408
408
414
420
415
408
408
419
430
417
400
414
422
408
414
432
442
453
462
454
439
428
425
428
430
421
422
428
432
444
449
446
447
466
466
454
447
445
461
458
445
441
443
448
450
448
454
461
464
476
489
497
496
503
502
495
501
509
502
483
473
483
473
471
475
467
483
504
495
482
474
469
485
518
519
521
530
523
517
511
521
516
505
502
493
488
509
515
517
519
517
528
538
537
545
554
547
544
539
531
534
544
536
529
534
533
524
526
526
550
570
574
586
593
585
575
592
604
610
603
606
600
600
598
603
593
593
598
605
609
632
638
618
611
618
624
619
604
623
634
622
618
616
593
600
619
607
600
610
599
577
554
554
559
567
577
574
578
587
562
563
561
558
554
540
539
561
574
568
561
544
536
522
499
484
455
451
472
483
491
514
511
513
497
487
475
455
437
413
399
403
429
460
463
451
443
441
446
463
456
449
427
423
428
425
419
392
373
378
385
392
408
394
379
384
382
374
386
396
397
398
388
386
376
398
407
397
386
373
374
384
384
380
379
389
395
379
370
357
359
377
380
380
386
403
411
405
406
399
423
441
439
443
427
414
404
409
415
408
391
396
417
436
443
433
425
411
397
419
421
417
419
424
408
419
416
421
436
438
427
439
450
450
438
437
434
435
441
455
466
445
416
416
415
410
411
441
461
465
461
458
461
461
457
459
461
475
479
460
450
442
430
421
419
407
391
409
471
490
498
494
484
482
492
491
480
460
428
431
440
436
455
464
467
466
462
452
446
435
429
437
455
471
468
456
450
436
452
454
457
456
460
462
472
468
468
470
473
464
437
428
446
459
459
461
469
473
468
463
456
453
456
461
468
465
476
461
442
442
440
450
457
468
468
442
435
451
457
442
428
435
447
462
475
488
490
477
472
470
459
470
474
467
446
434
429
438
465
483
487
469
461
472
482
484
479
467
466
467
464
459
479
490
498
487
475
482
483
488
481
472
457
440
444
467
496
489
477
467
456
467
494
498
477
466
462
464
461
468
473
471
462
465
468
465
464
463
457
456
462
477
501
516
511
490
467
453
449
452
459
455
458
474
477
465
472
487
487
478
473
473
471
474
474
476
473
477
474
473
477
478
475
470
483
481
469
471
469
466
467
473
472
473
466
456
455
463
486
506
506
479
454
442
445
480
495
482
494
486
474
467
469
477
486
479
493
496
483
474
473
482
482
475
474
474
478
470
467
471
476
476
479
489
488
498
502
501
509
509
496
485
501
515
500
472
481
499
517
514
506
499
499
484
473
489
493
491
491
479
482
501
505
502
511
517
535
537
527
525
520
525
523
519
528
533
526
513
516
512
511
501
485
489
512
524
520
517
523
526
512
490
499
508
496
466
459
457
477
488
496
470
442
438
447
442
438
459
496
516
498
483
481
472
457
446
450
448
449
441
434
432
461
483
475
483
469
443
451
462
467
463
472
487
488
493
492
484
484
484
473
465
471
470
469
468
471
479
458
446
447
460
462
448
441
430
431
440
444
451
442
440
455
474
469
476
488
513
529
566
612
643
668
709
749
774
807
865
898
914
938
971
989
990
989
988
988
988
988
988
988
988
989
989
959
926
889
838
787
732
665
620
566
507
463
392
323
241
171
123
102
102
128
164
186
207
218
224
233
235
239
233
236
258
291
305
319
335
334
331
341
350
367
393
403
400
398
408
409
400
381
375
370
373
389
424
445
431
421
425
427
423
425
422
418
428
430
431
437
443
442
444
444
440
450
454
440
433
427
441
439
440
447
439
448
455
440
430
433
459
463
450
439
442
444
456
470
464
478
513
513
488
470
465
463
471
476
477
477
482
481
479
471
474
474
472
476
482
480
473
467
464
467
488
500
503
509
502
505
520
520
503
496
509
520
519
520
518
506
486
483
488
495
510
529
532
515
523
521
506
514
522
530
526
528
533
536
537
538
543
544
540
552
543
531
539
559
569
594
609
614
585
575
573
562
567
568
571
574
579
572
566
571
564
559
564
578
588
593
603
609
617
624
628
620
605
590
586
590
605
612
625
641
636
628
607
599
587
580
579
599
586
555
550
554
565
575
578
584
572
556
554
560
565
549
536
531
555
578
581
562
520
510
521
530
519
514
513
506
501
495
494
501
504
487
467
435
435
444
447
445
446
457
461
459
457
449
447
450
435
414
384
380
393
415
420
420
419
411
415
407
424
428
430
429
418
398
393
392
396
407
423
428
416
394
375
359
365
376
382
385
399
397
410
403
407
421
435
439
429
421
427
403
381
380
389
399
391
384
391
386
395
398
406
406
406
416
412
405
413
421
424
431
428
419
409
412
413
413
407
410
414
435
432
431
445
440
435
432
436
447
451
455
449
434
430
451
453
431
422
413
421
422
430
439
436
439
434
441
442
438
432
443
434
416
429
432
440
462
470
468
481
478
465
469
476
468
458
456
466
473
471
473
480
479
476
470
458
461
471
475
462
462
464
463
452
433
434
435
462
463
467
478
486
501
509
490
466
451
446
452
457
457
475
485
476
463
463
461
457
467
466
467
456
456
468
462
453
445
446
445
452
467
456
448
450
445
454
449
448
446
449
453
469
468
457
417
430
436
463
484
475
451
441
450
462
471
477
479
476
464
454
443
440
458
467
470
486
487
478
482
497
502
483
473
469
456
453
443
437
436
449
460
478
476
475
473
465
465
463
446
445
453
449
459
470
463
476
483
483
467
455
461
462
463
467
477
479
479
477
487
476
468
472
469
454
449
464
480
458
437
443
468
476
482
484
476
472
485
492
490
485
468
463
455
459
471
477
478
470
465
457
470
476
469
480
485
477
477
494
503
490
479
472
481
492
489
466
457
461
469
478
502
495
481
464
448
431
451
495
525
533
529
516
495
495
496
513
523
507
489
507
502
481
488
510
525
513
500
482
478
501
491
456
452
480
492
490
492
493
491
487
492
511
504
499
505
515
524
529
527
510
500
509
524
532
533
540
522
516
522
517
518
502
488
490
481
493
509
517
514
505
502
506
494
478
477
479
469
471
465
465
476
471
466
473
473
471
479
480
464
459
462
456
470
488
487
484
479
473
471
467
471
485
479
462
466
484
482
463
454
461
466
474
485
492
510
510
494
477
455
430
439
458
460
446
435
403
405
429
437
434
428
449
455
450
472
484
480
483
492
500
516
525
527
533
570
609
656
717
759
806
822
812
842
870
910
959
990
989
989
989
989
989
989
989
989
989
978
944
910
870
837
803
748
686
625
580
534
483
424
361
302
236
169
127
110
122
131
154
178
203
232
250
260
248
244
259
281
296
310
310
320
346
364
378
379
376
366
374
394
414
404
393
408
416
412
416
432
430
426
434
438
438
421
417
413
412
412
421
434
449
454
443
439
446
445
444
450
439
447
468
464
448
437
434
443
454
438
436
445
453
488
485
446
434
447
458
466
461
448
436
432
444
443
445
452
461
472
479
483
497
497
486
470
472
482
496
512
508
502
498
494
479
494
504
498
480
464
464
468
472
502
512
507
507
510
509
509
507
506
510
506
497
504
500
498
500
503
511
508
522
543
527
523
512
515
531
551
563
560
550
543
523
527
518
515
522
537
545
555
576
579
566
549
557
570
564
567
574
581
589
594
591
591
595
587
575
571
586
582
589
596
606
612
621
624
607
598
601
606
603
622
637
615
591
580
579
592
592
579
578
579
583
596
595
588
591
590
578
571
572
566
557
564
578
575
565
554
540
545
571
584
575
567
559
553
553
545
530
521
511
504
495
486
498
510
500
489
464
452
455
452
448
460
455
457
458
453
457
458
439
438
435
415
398
395
401
403
402
407
427
447
439
410
379
367
381
401
399
379
384
407
417
402
391
391
393
396
378
361
355
363
372
372
371
402
425
424
411
397
374
384
399
394
374
377
384
401
406
411
416
409
409
410
406
398
399
409
415
409
406
415
421
408
413
432
435
427
426
434
453
463
450
437
443
451
440
427
426
432
439
439
435
428
440
461
459
458
449
442
450
451
454
462
458
450
447
428
431
454
457
456
438
442
451
468
492
485
466
457
454
448
451
440
453
469
472
475
477
460
457
458
468
472
469
445
