377
354
333
321
313
324
336
336
354
374
399
426
435
430
438
363
374
395
414
436
453
466
474
474
466
441
399
383
374
355
355
354
352
357
361
374
401
425
450
468
483
486
495
487
467
447
432
421
415
401
385
371
371
384
402
416
431
453
486
487
475
499
516
502
473
438
410
373
346
359
384
401
398
403
409
417
437
464
490
511
517
512
499
485
472
452
451
434
427
412
402
399
397
395
400
411
434
455
477
506
530
533
527
519
513
483
446
426
418
409
403
402
408
411
416
417
428
456
482
506
525
538
539
521
505
484
468
449
431
404
399
390
386
399
416
435
461
484
502
513
518
524
513
496
477
450
437
424
423
406
390
385
402
416
430
443
449
450
471
496
518
531
528
519
509
481
457
442
422
403
387
372
372
404
440
459
463
469
478
493
510
517
511
507
502
485
465
440
418
402
401
403
414
425
439
440
442
460
477
500
519
525
515
510
507
500
475
440
415
389
378
389
413
409
406
422
423
440
475
516
516
521
522
512
495
475
461
439
417
404
399
406
411
418
421
432
453
480
506
531
552
540
516
508
487
456
435
411
397
399
412
419
418
415
423
449
472
488
491
493
509
523
523
511
488
469
455
453
442
426
410
399
395
402
418
433
453
485
512
532
530
530
519
507
493
483
469
446
428
415
404
404
413
419
433
458
491
494
512
526
534
541
539
531
513
492
474
463
447
437
440
419
398
406
425
452
485
520
541
561
570
565
544
528
515
504
492
483
470
462
458
461
463
466
479
499
523
546
567
578
571
563
567
566
550
528
505
477
467
456
456
452
460
449
429
441
487
522
542
552
560
556
524
495
489
478
460
437
413
391
374
390
403
411
420
438
463
489
506
517
520
522
516
485
454
447
451
424
408
395
378
368
379
413
419
440
463
463
473
495
513
521
525
520
493
447
433
421
403
388
378
384
397
407
421
434
454
479
498
505
509
505
506
491
460
448
432
413
390
367
358
376
401
414
427
447
478
506
521
523
519
506
507
509
499
476
452
433
398
366
359
374
390
400
412
440
460
480
489
482
480
463
446
433
429
430
431
415
434
454
468
483
517
552
598
656
729
799
859
911
960
987
989
988
988
987
987
986
986
985
985
984
984
984
984
983
984
984
985
986
987
988
965
839
713
582
426
307
230
176
148
163
189
227
269
308
321
345
375
390
401
390
377
369
360
332
306
289
282
271
271
279
288
307
334
355
375
392
406
407
400
393
393
375
357
343
336
327
317
300
281
288
316
327
329
346
343
370
415
434
430
428
396
385
378
374
355
332
315
313
315
332
354
355
368
394
418
433
431
436
440
451
447
430
411
398
384
371
357
352
354
369
380
393
409
429
457
479
490
498
503
496
485
469
441
417
405
390
384
379
383
389
388
399
416
443
469
497
516
527
534
535
520
489
459
451
433
426
418
397
394
412
418
447
462
468
493
514
533
542
542
539
534
512
492
471
452
441
435
439
450
454
462
477
500
521
542
559
569
573
566
570
552
543
527
506
490
478
469
470
480
485
488
499
516
544
571
599
612
623
623
610
593
570
552
534
518
508
506
504
514
526
537
553
561
562
579
589
597
598
581
568
564
560
549
535
516
498
496
493
499
492
500
507
505
510
536
558
577
584
576
566
540
517
498
456
425
410
420
419
412
412
423
436
460
478
494
500
513
515
511
501
486
457
434
413
393
373
364
357
361
374
388
383
393
415
444
461
464
456
442
437
425
410
389
366
341
330
335
336
342
344
346
350
367
391
415
440
452
456
446
444
423
387
371
370
362
359
363
368
360
329
305
311
335
367
397
424
440
446
438
432
423
408
395
377
351
327
317
317
327
343
358
376
405
434
453
454
460
467
441
433
432
424
401
386
365
354
342
332
337
353
372
392
417
446
465
483
493
479
452
448
452
453
446
427
390
370
362
368
383
391
405
419
426
460
478
491
491
491
488
484
474
460
436
409
381
367
359
376
391
390
392
411
439
473
490
504
516
520
513
508
497
481
453
444
422
404
391
398
412
418
421
433
451
472
493
510
519
532
521
506
479
465
449
425
402
391
392
398
408
418
428
444
464
487
511
523
526
525
523
514
491
460
442
436
414
393
386
395
409
415
416
437
466
499
521
525
531
529
527
513
491
471
453
426
395
388
396
407
416
425
429
432
445
470
506
532
518
521
516
499
473
440
423
401
397
394
399
408
411
415
422
436
459
478
493
508
523
520
522
514
492
481
463
433
401
374
376
386
414
427
433
450
474
484
505
512
514
515
514
502
477
458
438
421
411
411
403
407
418
420
430
444
464
486
507
523
532
528
533
523
503
477
438
398
358
339
354
384
408
418
431
453
477
504
522
542
544
518
505
493
471
448
432
416
416
413
411
427
426
424
432
451
473
491
501
507
519
520
515
497
478
457
439
424
407
394
389
402
412
423
441
464
496
515
521
527
536
533
530
520
508
488
459
426
397
381
378
385
401
426
454
477
498
518
523
523
522
513
505
488
474
464
450
436
427
418
418
415
408
422
447
471
490
499
507
523
534
538
526
497
472
434
418
426
429
429
431
433
422
424
444
471
494
522
543
552
545
533
523
519
507
490
472
457
450
443
447
451
460
479
498
526
549
560
575
593
585
561
537
526
521
519
492
471
457
462
468
469
469
464
473
504
530
548
545
547
554
559
556
528
490
465
458
447
430
409
401
405
410
430
447
469
495
512
521
528
537
539
527
497
457
426
407
389
385
388
395
399
387
396
406
441
478
503
514
512
514
514
506
500
482
439
414
398
384
375
382
395
416
427
442
466
497
518
509
499
503
492
494
488
472
452
441
414
375
347
346
372
403
432
421
415
453
486
503
510
504
495
485
468
450
432
415
397
392
389
392
403
409
413
432
448
469
495
512
524
520
492
469
455
429
404
383
362
350
362
368
383
418
452
493
534
578
614
648
677
707
742
792
831
855
867
880
910
962
989
989
988
987
986
986
984
984
983
983
983
983
983
983
985
986
988
989
886
795
707
624
512
380
282
226
189
196
256
300
335
351
352
352
336
320
309
300
286
272
263
273
284
297
315
341
365
392
419
424
415
402
395
378
357
342
326
313
294
268
265
278
288
317
318
333
352
374
392
410
422
411
400
385
366
352
337
322
315
308
305
308
312
330
359
366
390
416
432
449
462
457
453
441
420
401
384
368
357
351
353
359
367
375
394
419
450
472
482
481
496
480
454
429
413
401
395
379
371
367
368
376
375
385
406
437
467
487
502
513
514
507
509
497
482
463
439
403
389
395
411
443
465
456
466
482
494
520
546
552
533
511
500
489
484
479
464
442
431
425
415
415
433
459
483
508
529
541
561
569
576
568
560
534
511
499
494
478
466
455
464
468
478
495
522
546
567
592
608
612
612
602
589
577
564
550
520
490
485
498
511
508
521
544
572
576
580
599
622
636
618
603
591
576
547
521
494
481
481
472
479
490
504
514
530
559
585
593
597
605
604
593
569
534
515
503
496
484
462
458
451
453
469
475
476
483
505
527
538
543
539
529
502
475
456
438
426
410
386
358
343
359
387
391
409
434
453
464
462
463
463
463
450
433
410
392
367
349
350
340
340
352
356
348
362
392
423
442
448
455
436
408
382
365
357
360
348
333
314
303
306
319
338
357
382
404
416
414
406
426
438
439
428
407
385
367
341
322
319
322
332
342
344
355
374
391
414
437
450
452
452
448
434
411
380
362
356
356
356
352
360
357
347
359
386
416
435
459
475
479
473
470
460
443
425
398
379
377
376
363
353
356
376
403
421
458
499
509
508
505
492
487
480
471
436
396
375
354
339
343
368
389
404
426
432
449
476
495
515
520
515
503
485
457
422
409
399
393
388
388
392
399
414
429
449
473
499
516
523
517
511
510
493
473
457
437
430
418
410
408
422
422
413
408
422
462
496
508
514
516
515
510
495
477
450
430
414
404
401
400
412
423
429
428
455
483
502
517
531
534
530
513
491
467
446
439
430
417
409
406
410
421
419
425
447
478
494
505
529
560
543
514
489
469
457
439
416
399
389
390
400
410
418
431
452
494
503
493
496
502
509
502
497
481
463
435
404
388
370
377
390
401
424
443
466
499
512
523
520
514
512
503
490
470
446
429
416
410
394
398
411
422
421
422
441
459
478
505
528
534
522
515
496
476
453
430
411
399
396
408
413
423
433
460
494
519
532
539
543
540
517
490
460
455
441
419
392
390
398
402
412
417
422
446
470
493
509
524
534
531
519
506
490
476
450
433
414
404
389
387
399
417
435
450
470
495
524
539
546
542
524
501
487
480
464
440
413
391
375
385
403
425
451
483
509
524
531
534
534
534
536
529
506
476
444
434
416
417
426
435
445
458
474
493
509
519
532
543
552
554
550
536
514
502
503
484
454
437
434
452
477
486
494
514
531
536
543
552
573
568
546
526
513
500
489
466
457
451
446
450
450
461
474
499
520
539
557
559
561
548
530
515
491
472
461
438
388
342
335
364
398
425
454
469
489
498
493
495
505
501
492
478
462
445
431
418
412
406
403
405
413
426
442
451
463
474
489
505
508
506
499
482
465
435
409
399
400
396
399
411
429
426
424
435
455
474
486
497
506
492
485
476
453
433
426
425
409
388
398
407
398
383
394
434
471
487
502
509
511
503
495
477
463
447
428
414
410
414
424
424
421
415
415
432
459
490
509
511
511
507
484
440
411
413
416
395
401
426
455
487
515
546
580
627
686
747
804
849
885
932
979
989
989
988
988
988
988
988
987
986
986
985
985
985
985
985
986
987
988
989
905
795
691
604
519
399
294
232
198
193
206
233
273
302
324
341
355
365
368
378
376
357
342
320
298
289
296
299
315
320
322
343
365
383
399
409
424
440
440
425
409
381
350
333
323
325
330
325
327
326
325
340
370
392
402
413
425
435
437
436
442
415
381
366
349
339
344
350
354
344
352
378
396
419
441
473
476
473
464
464
459
445
429
420
410
402
390
377
372
378
385
400
421
448
470
487
494
503
503
503
484
459
448
436
423
408
396
400
410
409
409
418
448
491
517
509
506
515
525
528
512
490
471
454
437
436
438
433
422
425
435
459
494
520
542
539
524
531
532
534
519
508
503
499
488
462
442
440
447
463
475
492
516
525
532
550
567
584
580
569
560
553
524
491
481
484
502
500
508
514
523
540
557
581
594
603
606
610
620
604
584
572
561
550
537
531
529
530
542
548
562
576
583
592
605
605
601
608
601
590
578
565
565
552
522
505
498
503
510
518
527
539
560
576
583
585
583
583
565
546
530
516
499
490
478
464
460
459
464
450
429
428
441
456
485
512
526
503
479
468
455
440
426
410
392
380
371
365
372
365
371
394
417
441
458
451
452
449
443
422
393
384
370
355
338
321
315
320
324
314
324
341
367
396
421
432
430
435
439
408
380
362
343
337
335
340
326
320
325
318
319
326
344
373
401
417
426
420
417
417
400
382
364
344
330
317
308
312
313
324
347
370
399
416
436
442
446
446
442
428
409
395
388
376
359
346
342
353
368
371
374
377
378
399
435
465
468
465
461
444
429
412
398
385
0
518
513
9
463
479
494
503
500
489
480
464
453
440
425
414
413
419
427
433
429
424
430
441
466
489
510
518
513
498
3
479
494
503
500
489
480
464
453
440
425
414
413
419
427
433
429
424
430
441
466
489
510
518
513
498
478
459
447
438
433
413
390
379
386
396
406
422
436
445
452
477
494
504
525
542
559
560
567
582
594
611
644
691
739
789
845
905
962
989
988
988
987
986
986
986
985
985
985
985
985
985
986
986
987
988
986
912
847
783
721
663
578
468
383
327
279
245
244
267
277
271
261
264
279
287
291
299
314
338
356
371
381
392
400
402
392
369
357
356
352
344
329
331
345
334
329
336
350
374
391
389
380
382
397
408
410
398
388
378
365
345
337
339
347
370
387
383
376
379
389
413
427
434
434
431
428
425
421
390
373
357
345
352
362
379
392
409
429
450
466
477
483
489
477
465
450
432
424
421
411
401
391
391
402
413
425
435
448
469
485
498
501
497
494
491
492
473
446
434
428
414
401
413
430
440
454
472
480
486
493
514
526
527
527
521
514
498
482
467
458
454
461
464
466
473
467
467
487
516
541
540
544
554
558
538
534
528
504
486
482
483
485
486
487
497
506
519
539
556
562
566
577
588
598
589
568
543
526
535
515
491
487
500
521
543
560
561
574
587
608
624
634
634
625
618
609
587
559
537
529
523
536
544
559
570
563
578
598
602
600
593
594
604
600
592
584
569
552
540
527
525
521
514
511
508
510
524
538
554
568
578
584
575
557
539
507
465
458
459
457
453
447
433
424
418
417
427
448
472
486
493
498
497
478
449
430
412
394
385
377
381
396
380
370
371
377
381
394
405
420
439
445
441
437
397
367
352
343
349
352
346
350
342
332
334
358
381
387
396
410
419
415
404
397
396
387
371
358
349
333
324
329
343
351
353
363
379
383
392
406
423
430
429
423
410
394
379
370
363
356
351
350
348
356
367
383
399
414
433
448
437
424
433
442
446
442
430
421
398
369
346
342
349
363
376
389
402
416
428
446
459
464
470
469
456
430
403
394
386
382
399
407
418
415
384
383
386
414
452
478
498
500
498
496
476
457
443
433
418
412
421
431
418
418
427
435
449
460
476
491
498
486
474
468
461
452
442
436
432
420
413
411
414
423
430
437
451
467
484
498
503
506
505
504
501
484
459
446
436
425
410
404
412
429
441
446
450
463
482
496
508
511
512
510
505
494
472
446
421
419
416
416
419
431
443
456
461
467
477
487
504
514
513
501
482
467
458
460
457
420
409
412
417
426
425
415
429
454
471
483
488
491
495
495
485
473
459
454
451
429
423
435
425
418
429
445
455
473
496
505
504
502
506
503
494
479
458
445
435
420
412
411
414
427
437
447
454
465
481
496
502
505
501
497
490
485
478
467
444
415
397
401
405
424
447
461
468
471
477
493
505
520
522
515
508
497
490
479
474
475
470
459
439
428
426
437
454
471
491
512
521
521
523
522
524
521
510
494
479
472
466
470
474
484
485
473
467
478
503
535
558
564
558
560
550
519
507
499
472
459
454
457
457
461
465
473
493
502
519
533
537
534
531
525
516
501
482
465
452
444
432
429
427
427
426
424
433
452
472
488
498
503
497
488
485
482
458
444
428
411
404
413
421
419
417
417
426
443
464
478
490
495
496
490
484
468
441
422
419
418
416
415
415
427
445
452
461
477
472
465
467
474
479
477
472
460
444
431
422
411
410
416
419
424
428
433
447
462
472
474
477
484
483
476
472
459
447
431
424
421
418
420
424
427
430
435
449
470
485
487
487
499
504
468
436
418
417
408
413
421
440
457
475
493
509
542
596
654
714
761
794
829
862
901
948
988
988
989
989
989
988
988
987
986
986
986
985
985
986
986
987
988
989
922
836
749
668
588
502
392
303
247
215
219
229
250
273
301
326
344
357
363
365
358
351
339
330
327
315
315
326
341
357
369
365
355
353
371
394
414
423
429
429
419
407
387
366
348
332
320
318
327
342
350
352
362
384
408
431
444
446
459
427
404
400
396
390
384
371
371
378
374
370
378
386
378
375
396
426
456
469
478
480
472
463
447
428
416
407
402
403
408
408
408
412
420
430
438
450
472
498
497
498
495
485
468
451
451
443
431
419
408
411
421
434
446
457
470
487
504
513
516
516
511
507
495
483
468
446
427
418
423
438
448
464
473
486
503
520
529
540
541
538
535
528
514
501
492
493
487
483
477
474
476
485
506
526
535
557
549
538
545
563
560
560
546
529
516
505
501
504
503
502
510
526
532
545
565
587
600
610
617
618
613
607
593
580
557
530
522
529
540
543
546
548
557
566
586
604
611
614
617
615
605
594
576
568
562
551
524
506
505
511
525
538
547
560
576
585
589
586
576
571
551
551
545
529
508
492
470
448
438
445
457
461
468
481
491
501
509
513
506
497
487
473
454
437
422
409
397
391
397
407
412
404
385
381
393
417
452
444
447
454
444
427
404
382
372
360
348
345
341
340
350
366
369
377
390
396
402
406
412
413
406
393
378
360
351
342
336
332
334
337
352
364
377
392
407
411
408
403
397
392
398
396
386
370
358
348
344
343
346
351
360
369
372
380
398
413
430
440
440
435
426
418
405
389
380
371
365
363
366
367
371
379
400
418
430
436
451
462
470
445
422
422
413
399
391
380
379
382
386
396
402
408
421
447
457
458
452
448
453
469
464
449
445
444
441
425
401
389
387
388
395
404
418
437
458
479
495
507
496
482
475
472
463
455
446
440
436
435
435
433
430
438
449
451
453
460
471
487
498
498
491
479
459
443
434
426
420
410
400
406
423
443
459
468
488
507
514
515
516
510
499
482
465
456
443
430
423
421
424
429
434
443
449
465
487
500
509
516
517
516
512
507
482
457
440
433
419
402
386
375
390
409
442
486
534
508
496
485
475
477
478
473
466
454
438
426
419
417
418
426
432
437
445
460
475
492
501
500
498
497
497
502
478
459
445
429
419
421
426
439
448
458
460
464
470
482
495
494
488
490
486
477
465
454
446
442
430
408
403
412
427
442
457
474
490
502
509
508
504
500
498
489
471
459
447
433
417
409
412
419
422
435
450
466
479
494
500
504
511
518
513
506
494
479
439
402
382
388
417
436
442
441
445
464
482
487
496
503
507
496
488
477
464
463
459
440
421
421
432
424
420
435
456
473
493
514
514
510
518
522
511
497
484
472
456
446
439
433
434
449
434
441
460
479
497
513
521
527
534
530
526
519
510
489
477
462
450
449
455
473
490
504
511
520
531
535
542
552
558
557
550
532
506
482
463
452
451
455
469
476
487
499
514
528
545
556
543
520
513
520
528
518
496
482
478
469
459
456
470
478
460
451
454
482
495
500
501
494
483
473
460
456
455
438
424
418
407
404
409
413
406
415
442
463
489
490
484
483
492
493
488
474
458
447
440
433
425
413
410
417
420
427
435
453
474
486
495
496
493
496
491
464
447
433
427
415
397
394
401
415
425
434
444
462
476
490
499
497
495
490
485
475
453
435
427
415
410
414
423
436
450
467
482
484
472
441
429
439
462
470
458
440
423
407
388
370
357
364
382
424
448
458
492
521
558
602
646
685
715
738
768
792
817
853
890
938
984
989
988
987
987
986
985
985
984
984
984
983
984
984
984
986
987
988
989
895
789
682
587
474
377
309
267
248
255
280
302
332
339
337
337
330
332
324
303
300
306
312
316
317
316
323
336
356
374
386
394
396
388
375
363
351
337
329
318
302
292
298
306
315
316
320
325
334
356
385
408
419
419
403
382
363
356
358
359
357
353
331
317
315
329
348
375
404
410
426
452
469
464
446
415
383
365
362
370
367
366
370
375
388
390
387
401
427
443
452
455
459
464
439
431
418
410
408
404
396
394
392
396
407
415
426
441
456
466
475
482
490
495
490
483
472
458
435
413
397
406
428
448
465
463
443
433
451
472
500
526
536
535
525
503
480
467
459
449
438
427
424
437
453
467
477
496
513
532
548
553
558
559
552
542
532
518
503
484
468
459
464
476
483
496
516
544
565
556
567
577
581
579
574
564
546
530
503
493
489
492
502
510
521
536
541
549
569
592
613
623
624
620
600
581
570
542
533
520
507
508
514
525
534
533
536
544
559
577
588
588
581
573
564
556
536
515
497
484
475
472
469
467
471
471
479
486
500
520
536
532
516
502
500
503
492
464
431
412
395
389
401
405
413
415
418
426
435
450
464
469
471
465
454
444
420
396
378
373
361
359
363
364
378
395
386
393
401
403
406
415
425
430
427
411
384
365
359
355
353
345
338
342
348
352
365
378
397
410
417
423
423
418
412
407
396
386
385
368
352
354
364
368
364
361
366
384
402
417
430
440
450
438
432
423
404
387
384
380
383
381
377
385
401
418
418
400
410
439
459
466
463
455
439
427
417
406
397
392
387
385
382
373
369
383
415
431
440
458
478
486
489
491
494
488
462
443
428
404
388
374
377
387
408
435
447
454
461
465
465
457
464
487
491
487
480
461
441
427
409
397
402
411
420
427
434
450
470
483
491
497
502
497
493
485
470
447
430
420
415
404
394
397
417
437
451
466
483
497
510
513
511
510
504
496
488
463
454
442
415
383
379
392
416
436
456
471
475
490
505
511
503
492
483
483
475
462
453
445
435
435
435
429
420
416
425
448
477
492
504
505
497
486
483
489
477
455
441
433
424
422
413
404
412
432
460
485
501
524
536
530
517
501
485
471
452
440
428
424
423
429
433
432
434
438
441
452
465
471
471
478
493
508
515
507
471
427
415
419
415
420
424
427
433
443
452
468
482
498
501
501
502
501
494
484
467
453
439
431
425
421
425
439
449
448
448
458
468
467
476
490
515
525
517
508
479
462
452
447
439
428
421
419
416
423
443
458
481
498
501
500
513
501
493
480
469
460
441
433
428
420
420
431
441
459
471
475
485
500
513
518
512
506
498
479
459
447
446
447
448
447
443
430
422
426
435
454
476
507
527
526
521
510
497
489
476
456
437
433
434
437
442
448
458
460
469
484
500
516
528
533
537
534
527
521
505
487
476
466
463
464
470
477
489
507
527
537
550
561
559
553
547
539
537
525
514
499
488
476
469
469
476
490
473
462
472
489
513
535
547
548
549
548
537
522
502
486
473
464
455
448
448
447
444
445
450
457
477
497
510
518
531
518
503
456
423
418
413
411
403
402
403
401
406
415
431
454
479
492
496
498
494
484
476
460
446
434
430
417
404
395
389
395
414
440
453
462
469
470
472
488
495
491
482
473
462
447
430
417
407
401
397
401
418
432
435
445
462
484
499
506
505
501
492
474
443
417
404
402
408
410
413
423
438
446
457
470
476
479
482
488
486
481
455
429
388
369
370
381
388
400
425
450
485
514
548
584
629
676
716
744
779
814
853
897
932
967
989
989
988
988
987
987
986
985
984
983
983
983
983
983
984
985
986
987
988
957
846
721
622
504
387
304
243
206
207
228
253
286
322
345
363
365
358
349
340
337
335
331
324
304
288
292
309
325
343
361
375
380
363
344
344
361
370
362
345
328
315
305
298
299
302
305
307
321
338
354
370
383
397
410
417
417
410
395
381
384
356
328
300
297
320
317
337
361
380
388
392
408
426
433
432
429
425
414
401
389
381
378
368
357
355
363
377
394
417
443
458
463
465
465
462
455
450
440
424
411
405
394
390
396
407
417
419
423
437
453
475
482
488
496
506
501
485
485
469
448
430
402
381
382
402
431
454
463
460
468
482
503
518
525
526
523
514
498
479
458
450
448
445
446
452
463
475
490
508
519
527
540
559
551
546
543
532
517
508
501
495
480
457
450
465
491
517
535
541
554
570
604
608
582
581
577
561
546
540
532
529
518
510
503
511
531
545
550
555
561
575
600
615
613
614
607
596
576
553
540
534
523
508
504
511
516
523
538
557
573
576
571
581
579
571
565
561
544
524
496
476
447
441
446
457
468
477
488
480
486
500
510
516
517
513
505
490
467
447
440
433
419
392
376
375
391
401
407
416
428
440
448
452
453
453
446
439
430
413
391
369
354
345
354
360
338
325
336
363
390
410
425
438
432
412
406
400
389
377
370
357
344
332
324
320
328
341
362
388
404
411
419
428
431
430
428
423
411
400
387
371
353
334
323
324
337
354
370
389
406
416
423
433
435
441
438
424
401
378
376
377
375
374
380
388
389
387
397
409
428
427
432
442
452
440
431
424
417
407
401
393
386
384
385
380
382
389
407
428
444
459
465
471
477
479
474
474
469
445
414
391
386
386
401
407
399
405
415
427
446
466
482
490
492
486
476
473
462
456
448
431
411
400
399
416
432
443
448
449
458
475
489
500
504
501
497
487
467
447
435
427
419
419
409
401
408
428
447
465
483
503
513
519
514
505
487
472
461
455
450
446
442
416
404
410
418
419
421
439
460
483
498
506
508
506
497
487
471
457
447
439
442
432
428
435
433
433
436
448
474
490
501
501
496
487
467
451
439
441
453
451
434
424
420
424
423
426
438
455
470
488
499
507
506
503
495
484
471
463
461
462
427
412
407
404
417
441
450
454
467
483
496
502
511
513
505
492
466
444
430
420
413
414
417
423
435
444
454
466
474
483
495
510
516
505
495
487
468
443
424
416
413
415
424
420
422
430
442
456
476
492
509
512
505
504
496
485
466
451
443
432
427
419
418
426
439
454
466
472
480
493
500
509
522
514
496
485
471
452
438
426
421
409
400
407
428
427
433
451
472
495
523
522
517
511
502
495
474
450
434
421
411
414
429
425
428
437
447
459
475
495
509
516
517
508
497
487
473
465
457
442
432
421
415
421
435
446
452
459
477
497
515
521
514
509
503
500
491
474
450
437
431
430
439
445
456
470
483
492
484
475
489
508
516
519
510
498
485
473
462
452
447
443
439
451
462
463
466
478
490
509
524
535
551
562
556
540
519
500
487
479
462
455
462
477
477
491
511
531
543
535
529
539
553
561
555
537
514
494
486
471
460
457
449
450
463
478
491
509
519
527
547
545
535
531
517
500
482
465
451
441
428
422
428
431
435
440
446
452
460
470
487
497
499
503
486
466
440
425
417
420
419
417
413
417
418
422
434
451
473
490
494
492
503
505
495
476
457
451
442
420
399
381
378
394
410
430
441
456
465
480
488
484
475
471
478
484
478
469
465
448
417
390
382
393
407
417
428
439
456
477
489
493
490
494
494
483
467
453
424
399
395
405
410
413
420
427
432
455
471
472
479
486
478
457
430
411
403
405
410
423
441
455
476
510
533
551
589
641
698
751
813
872
909
946
982
989
988
988
987
987
987
986
985
985
984
984
983
983
983
983
984
985
986
987
988
911
780
662
545
416
318
250
204
183
195
217
251
295
331
344
362
365
358
356
341
331
331
327
333
333
329
292
266
265
285
313
338
361
374
391
400
402
390
374
361
347
332
325
321
312
311
311
312
315
323
328
343
356
363
368
382
403
419
417
406
393
375
354
342
346
331
323
325
329
339
353
374
396
423
426
426
432
439
441
440
428
409
395
388
381
376
370
371
380
391
405
420
435
456
473
478
479
477
474
468
462
449
429
399
374
372
383
398
403
410
426
447
459
472
484
486
492
504
513
516
499
459
432
427
421
418
427
421
418
431
446
468
490
503
515
523
523
525
512
514
505
486
473
467
458
450
447
453
464
478
486
500
515
528
544
555
564
563
553
547
538
520
500
485
484
483
485
491
504
520
532
536
543
555
567
576
578
591
588
582
575
561
547
535
524
516
515
521
529
543
551
553
559
586
616
633
633
624
613
597
578
551
522
504
501
492
498
507
521
532
538
549
552
549
544
552
556
557
558
557
560
548
525
493
473
453
440
439
448
461
465
469
478
494
507
508
498
490
486
487
480
453
431
415
401
396
393
388
392
411
410
414
425
433
445
466
472
457
438
419
398
386
382
370
360
357
348
350
352
355
365
378
396
415
429
437
435
429
427
423
405
385
368
361
327
307
312
327
341
354
365
381
398
400
405
406
416
422
415
406
394
385
377
366
348
353
355
352
369
386
399
415
427
430
418
408
407
421
426
395
375
375
383
386
382
371
367
370
379
386
394
402
416
434
450
464
466
466
462
454
443
425
411
402
389
389
390
401
417
411
416
421
429
441
460
475
486
484
473
467
459
445
433
423
416
408
398
401
405
413
416
430
441
454
474
489
494
498
492
477
458
443
429
417
411
411
412
415
428
454
455
449
466
482
493
495
511
524
524
508
471
439
425
424
423
413
408
410
420
432
444
457
469
482
498
511
521
522
517
496
464
439
425
410
409
418
423
427
430
437
445
452
464
484
500
511
514
507
492
483
474
466
451
438
435
437
449
435
427
434
443
452
468
481
493
501
505
501
485
473
468
461
451
440
426
420
423
426
430
436
446
466
481
496
514
527
516
495
476
464
457
456
448
436
444
441
405
403
421
434
448
463
481
491
503
512
514
510
497
484
472
459
441
431
417
408
407
415
425
434
447
463
475
479
488
491
498
506
501
492
482
471
451
439
439
418
415
426
439
443
443
457
473
489
508
516
513
504
499
492
478
466
455
436
421
416
422
438
451
458
469
475
481
494
500
515
531
523
506
496
486
475
462
446
436
431
416
402
408
430
449
464
482
502
511
524
524
518
506
492
477
474
447
428
429
428
420
414
428
463
476
476
497
514
522
508
498
498
494
480
468
461
457
451
446
445
441
439
439
444
446
450
472
498
518
527
521
512
500
493
477
462
454
448
444
441
440
452
457
448
453
469
489
509
519
513
503
508
509
513
507
498
483
468
453
445
444
442
444
448
452
465
485
503
520
529
529
529
522
518
506
494
477
470
457
449
447
454
466
468
481
499
518
533
534
534
541
539
531
530
521
510
496
474
463
467
480
488
483
491
506
519
535
553
563
579
578
565
555
547
533
521
514
505
507
487
464
449
459
468
478
499
522
545
558
565
571
566
561
548
523
506
487
465
449
443
441
443
453
465
477
482
482
478
465
461
461
469
473
472
471
469
462
453
443
438
441
438
441
444
451
462
477
491
504
509
513
511
507
495
479
465
456
447
441
426
418
422
422
427
434
447
464
483
497
512
523
526
516
499
485
450
408
388
389
401
416
420
428
434
442
455
478
495
508
519
512
505
494
483
464
448
438
436
441
438
426
410
423
440
459
481
501
506
498
496
497
491
480
464
441
414
395
385
390
397
404
417
436
460
496
535
576
615
654
686
721
761
805
846
889
925
948
964
989
989
988
988
987
986
985
985
984
983
983
983
983
983
984
985
986
987
989
908
803
696
601
485
376
300
253
231
241
271
287
312
345
365
375
371
351
334
322
318
314
318
320
337
330
337
349
354
376
393
404
408
409
408
401
381
354
339
332
324
312
310
318
320
307
305
321
350
383
416
415
412
413
409
410
410
399
379
367
353
348
341
336
334
354
380
399
412
420
422
433
446
450
447
440
436
426
418
410
408
406
397
390
387
397
403
412
427
444
462
482
486
484
479
471
462
449
441
431
416
403
396
402
421
438
456
479
479
479
495
507
505
505
506
502
490
481
457
448
428
421
425
429
439
448
464
477
487
508
529
529
531
536
541
542
542
533
521
500
475
454
448
455
464
471
484
497
520
534
548
558
561
569
571
568
557
522
492
484
495
512
499
496
506
516
525
534
549
567
588
608
614
613
608
599
591
570
552
537
531
529
530
530
541
556
566
571
578
593
606
622
632
632
631
618
594
575
570
564
556
549
543
543
539
551
550
555
569
589
604
608
606
601
598
590
588
571
540
511
495
472
460
465
469
481
495
493
504
524
538
551
552
549
542
528
510
493
478
462
453
444
433
409
378
369
391
424
451
464
475
478
476
483
470
447
437
423
407
397
389
391
392
388
387
379
375
381
399
410
406
404
415
431
434
418
401
392
377
365
357
350
343
344
355
372
386
384
390
410
423
438
453
453
441
429
426
410
389
370
356
346
344
364
383
383
386
390
383
381
397
437
465
470
460
444
433
407
381
376
371
363
366
369
373
382
393
406
426
446
467
480
489
488
483
461
438
418
390
378
381
387
394
401
407
414
422
435
451
461
465
485
509
506
491
486
471
439
414
391
387
391
403
411
409
420
436
456
474
491
504
514
531
527
510
490
459
426
417
422
425
426
423
421
421
419
427
443
465
488
501
516
511
506
504
499
488
472
460
452
445
441
439
439
444
445
452
464
482
493
506
516
519
526
511
496
485
470
460
450
438
435
441
446
448
448
453
462
477
496
515
525
528
513
498
488
479
460
449
443
443
443
438
436
444
457
466
472
487
502
506
500
500
512
514
511
510
495
476
456
447
430
416
412
416
430
447
457
469
486
502
498
499
505
506
503
495
478
466
452
440
441
427
413
420
437
450
457
470
492
514
525
517
516
509
498
490
478
465
453
433
434
446
451
455
458
461
471
482
485
487
497
507
514
505
496
482
475
472
449
438
440
445
451
455
448
438
432
442
463
489
509
525
524
513
497
489
473
459
449
438
433
429
433
441
451
463
474
480
490
502
511
512
515
514
508
500
475
463
454
445
437
437
449
441
441
451
465
486
505
521
521
513
508
501
493
497
490
485
484
481
463
427
404
417
450
456
468
482
497
508
517
519
525
524
520
502
488
471
465
455
442
437
442
448
442
441
458
484
506
525
534
542
546
538
524
512
488
471
467
455
454
450
449
456
463
472
487
503
519
536
550
555
553
543
532
517
506
500
500
492
478
469
477
492
505
506
512
524
543
558
569
579
579
566
555
541
526
515
505
496
473
455
454
467
487
502
505
514
537
563
579
576
556
530
517
520
490
461
453
444
434
433
431
433
444
453
454
461
482
506
528
516
499
490
485
479
467
453
447
445
443
437
435
443
444
449
468
486
492
499
503
499
476
459
455
434
426
432
432
426
418
409
413
429
435
451
468
488
507
496
471
460
476
491
487
477
458
442
430
427
424
413
410
418
430
438
453
479
497
510
514
512
514
509
491
483
462
445
437
425
416
413
408
415
429
446
464
474
485
492
490
489
489
486
479
461
447
444
451
457
469
482
490
509
540
588
641
686
748
809
858
901
930
972
989
989
988
988
988
987
987
987
986
985
985
985
985
985
985
986
987
987
989
935
842
750
653
567
455
345
263
205
185
204
240
261
283
311
314
330
344
352
367
378
368
349
332
324
324
323
328
339
353
355
352
352
365
386
411
426
422
418
418
409
404
398
380
363
353
347
349
347
349
352
357
355
352
354
366
375
392
416
430
428
424
411
396
384
376
354
350
352
364
379
394
410
419
434
449
465
458
462
472
477
462
443
422
409
400
393
392
392
397
404
408
422
437
443
454
472
488
506
515
511
503
488
466
453
441
426
418
415
415
418
438
463
467
476
499
512
515
510
514
520
522
519
501
480
457
431
420
420
437
456
471
479
489
507
531
542
548
552
548
538
531
513
496
488
479
468
466
472
475
472
487
506
525
548
565
572
574
574
560
544
541
541
534
526
523
521
520
516
519
531
542
551
564
580
592
607
619
636
640
618
599
585
571
562
552
540
535
533
543
552
554
563
569
576
600
632
644
631
615
603
598
588
573
567
560
536
519
518
524
539
547
546
554
569
575
576
580
584
578
573
563
554
535
520
510
480
467
466
469
472
482
494
499
508
506
500
498
499
504
498
485
470
449
430
415
399
388
389
393
401
400
405
416
431
445
456
449
440
438
435
428
409
395
387
368
351
347
351
354
359
367
359
352
373
389
401
420
434
406
378
364
367
369
360
339
327
334
342
349
360
371
388
375
370
378
389
398
403
410
409
408
396
385
377
360
345
337
338
340
344
352
364
379
399
421
434
442
442
440
429
418
405
397
388
379
371
363
359
366
372
380
397
399
414
436
452
461
464
466
461
442
424
413
412
410
398
387
386
388
392
398
410
416
434
451
468
476
477
479
471
461
446
432
431
431
400
389
390
402
414
431
449
451
451
460
472
484
486
486
486
482
471
450
425
412
407
406
412
423
433
441
451
460
474
491
498
500
502
505
503
500
487
473
451
422
404
403
407
419
431
442
441
440
459
481
502
501
502
512
507
498
480
468
456
442
431
427
431
435
439
441
447
457
471
487
507
511
511
510
499
488
471
453
438
434
429
430
435
424
420
429
443
459
478
494
511
512
514
513
502
484
468
458
444
431
421
418
418
423
428
433
439
449
470
494
520
519
524
520
503
483
467
455
417
390
387
401
417
429
441
459
475
479
484
486
480
482
489
489
485
478
463
450
442
434
431
429
432
433
427
425
432
454
475
491
497
492
487
492
492
486
469
460
448
438
431
430
433
436
445
460
464
469
474
482
487
495
503
508
504
498
484
463
447
433
425
430
443
451
443
452
463
471
485
507
500
502
514
520
511
502
490
479
472
460
454
452
455
456
465
476
488
503
522
540
557
566
566
566
560
539
507
487
458
450
450
449
454
452
454
468
487
506
530
547
551
547
539
540
535
525
505
486
467
454
441
435
437
446
455
453
455
463
468
474
482
495
500
504
503
498
476
446
413
399
401
400
397
403
413
424
433
440
451
467
487
495
493
487
475
461
444
430
429
429
419
407
404
421
435
427
422
438
446
460
480
504
496
482
476
471
458
441
432
419
409
405
410
414
418
417
422
430
443
467
486
493
490
491
479
462
447
437
439
445
427
410
402
403
413
422
439
459
478
492
502
504
494
484
472
452
429
405
395
391
396
401
403
407
412
426
451
484
520
555
584
612
639
667
692
716
738
762
792
827
867
906
947
989
989
988
987
987
987
986
985
985
985
985
985
986
987
988
989
904
817
738
668
602
539
446
348
293
266
262
275
297
318
329
325
314
298
285
282
287
287
284
284
302
322
316
328
355
378
397
421
419
408
402
376
363
362
367
363
357
338
324
322
326
338
357
373
389
396
402
407
413
419
424
431
429
403
373
358
350
345
349
349
347
354
365
381
401
421
438
449
452
453
450
444
441
428
415
404
393
391
387
395
402
413
421
429
434
441
454
465
474
479
480
476
468
452
439
431
427
416
409
406
413
427
440
452
466
478
480
483
480
481
488
481
477
473
467
455
447
445
438
434
436
447
456
464
479
501
526
535
528
521
531
530
514
497
491
474
458
447
448
463
467
483
483
488
503
519
533
547
558
568
573
568
553
540
517
493
478
475
487
504
514
521
519
520
517
534
561
581
599
599
586
577
572
560
544
532
522
514
511
513
525
539
551
563
577
594
611
622
629
630
629
618
602
586
566
546
534
533
535
533
530
525
532
557
578
580
578
582
592
597
593
580
563
540
526
516
506
498
493
496
505
485
478
482
497
513
524
523
516
515
514
511
497
474
456
449
431
413
403
405
412
412
412
418
429
442
459
473
487
480
471
455
434
409
389
372
357
347
347
350
355
353
358
370
378
386
400
411
412
411
410
403
392
377
367
354
339
333
331
334
337
336
331
343
367
393
415
427
438
439
421
401
391
375
366
359
352
342
330
330
342
355
362
372
384
400
420
442
444
441
435
431
412
386
370
359
357
353
354
363
372
384
384
385
398
419
436
441
438
442
441
438
431
417
400
387
379
371
365
368
376
389
411
427
434
452
462
460
464
474
478
472
462
438
419
403
389
376
380
371
382
402
416
426
439
454
469
479
486
491
495
487
475
461
438
406
397
405
419
426
415
406
416
432
444
464
489
509
508
496
489
483
480
468
451
442
434
431
432
423
421
429
424
426
449
473
488
500
510
524
522
506
482
454
446
441
431
420
419
426
436
442
445
455
470
489
505
509
498
494
496
495
491
470
444
429
425
419
424
426
431
440
447
461
467
482
499
508
508
527
523
500
478
457
452
427
409
403
407
415
423
437
447
457
473
493
504
520
505
491
490
486
481
471
455
443
426
412
409
409
419
434
443
453
465
484
499
500
487
471
464
474
478
475
459
440
426
416
412
411
416
425
435
448
468
490
501
505
511
519
515
495
477
459
443
435
423
415
414
415
423
436
437
435
450
469
492
501
505
506
500
491
479
460
445
434
423
420
416
418
424
434
444
455
462
472
486
503
505
499
496
491
480
462
461
449
432
422
416
418
425
442
473
464
463
472
484
497
508
506
499
493
483
471
460
452
442
432
433
442
451
459
462
463
457
465
482
498
515
522
507
511
481
460
453
458
462
457
454
453
457
462
474
486
505
518
524
528
536
538
535
528
523
510
494
483
476
470
466
464
459
457
467
481
506
529
544
552
554
549
538
524
512
494
483
481
466
440
425
433
444
460
472
477
493
507
522
541
537
521
498
486
466
448
437
417
395
396
405
410
412
420
428
442
457
467
480
490
492
496
493
481
467
449
434
428
425
417
412
419
426
433
441
443
444
449
468
471
465
470
475
480
476
459
448
424
399
395
394
401
409
420
427
430
438
456
480
493
495
487
478
470
455
437
426
416
411
405
408
414
420
424
430
440
449
462
480
494
499
491
479
472
457
435
411
396
386
373
355
345
345
358
374
398
436
478
516
549
569
581
587
608
628
642
668
712
760
792
837
888
944
989
988
988
987
987
986
985
984
984
984
984
984
984
984
985
986
987
988
982
889
793
697
620
529
436
365
302
262
236
233
257
273
278
285
282
279
277
282
293
305
317
325
328
335
348
367
381
388
384
374
365
357
342
328
329
321
305
291
283
289
307
317
327
343
359
367
372
377
379
374
369
359
343
328
322
316
309
304
300
302
317
335
352
375
408
431
429
428
426
426
420
402
377
358
350
342
345
356
359
357
363
378
394
409
427
442
455
462
467
452
445
436
431
421
391
368
362
365
372
375
389
401
413
434
455
471
485
493
497
490
479
466
450
438
427
412
403
402
410
414
416
422
428
451
478
495
503
506
510
511
504
494
487
466
444
429
415
420
436
455
476
487
500
494
498
509
513
517
521
511
499
493
488
483
474
468
465
463
464
471
481
494
508
526
545
558
568
571
577
567
540
531
527
522
517
509
502
500
499
501
511
525
542
562
583
595
605
598
585
577
575
571
557
544
534
525
530
518
507
507
511
513
527
553
579
598
618
592
560
554
546
535
529
517
499
484
473
465
466
474
479
488
497
512
528
545
557
551
537
514
507
500
473
454
436
418
398
392
403
417
414
398
399
424
446
457
464
466
460
444
441
431
411
394
377
365
347
336
343
356
372
383
386
388
401
418
422
428
425
410
398
390
384
372
364
358
349
341
333
333
339
351
364
378
394
409
418
420
419
410
396
393
383
353
344
343
345
355
363
357
353
359
374
388
398
414
426
433
436
435
438
440
421
398
369
343
334
333
350
370
384
381
372
383
404
420
429
437
437
429
426
419
413
401
392
378
368
370
376
384
389
392
405
417
440
461
471
475
474
469
461
442
418
397
383
386
371
379
391
393
393
405
423
440
463
486
494
495
489
478
469
454
441
425
416
410
401
402
412
418
422
425
430
450
470
485
490
491
502
487
473
459
437
424
417
414
415
418
419
419
426
440
456
455
470
481
485
486
487
492
489
473
453
432
423
420
421
420
422
434
447
456
462
462
456
458
475
496
501
498
491
471
450
439
432
426
421
421
419
421
417
417
428
453
477
492
506
504
496
500
493
463
442
435
428
420
415
416
423
419
421
432
444
460
479
500
517
517
510
497
483
466
450
430
413
406
397
389
401
421
446
471
467
471
466
459
462
479
490
497
494
483
468
453
439
430
424
419
416
418
418
435
444
453
474
492
510
511
504
491
478
466
453
437
423
415
412
415
418
417
422
439
456
470
483
495
511
514
502
486
472
464
450
437
425
415
407
409
412
421
431
440
453
467
478
489
500
500
497
495
492
487
491
470
444
432
430
418
412
416
417
428
444
465
485
499
499
497
497
488
477
466
457
449
443
436
428
423
423
430
435
449
453
467
504
502
496
496
486
483
483
477
479
471
457
442
429
409
403
419
436
454
476
500
512
499
501
506
509
505
501
487
477
471
462
453
443
438
448
459
460
471
492
511
525
539
546
548
547
533
520
507
501
503
501
484
463
455
455
466
470
473
490
513
529
537
541
546
545
543
516
488
479
481
473
462
454
448
446
456
469
480
489
495
504
511
527
523
517
503
488
460
430
407
388
381
387
390
388
393
404
421
447
466
475
484
495
504
509
492
471
447
420
404
398
397
394
396
397
402
412
425
448
454
468
482
491
496
502
501
483
443
411
400
396
395
391
391
398
406
411
415
427
447
463
475
483
486
486
482
474
463
447
431
416
404
395
393
387
394
413
436
449
466
488
506
504
474
464
472
484
471
444
412
384
359
349
348
347
350
362
384
412
445
475
505
543
562
589
610
628
644
666
706
720
738
765
817
870
930
989
988
988
987
986
985
985
984
983
983
984
984
984
984
985
986
987
988
989
906
811
719
639
531
426
362
300
248
233
232
238
256
277
294
301
301
291
283
278
273
283
305
317
323
331
347
370
393
404
410
378
364
349
322
287
259
260
272
281
296
312
319
327
341
355
365
375
382
387
381
375
360
339
317
311
308
304
307
318
331
338
347
361
384
404
411
393
379
385
396
408
400
378
362
352
344
346
348
356
376
372
383
402
424
441
451
452
450
448
441
433
422
405
391
383
380
378
381
385
391
394
411
436
461
479
483
477
477
487
486
471
449
434
427
417
410
404
403
402
397
387
385
412
460
499
515
518
517
515
507
505
490
471
449
429
417
417
432
441
451
461
474
488
507
526
530
522
519
522
519
530
513
499
484
467
457
456
468
478
491
497
508
523
527
533
545
559
573
580
575
572
556
543
531
514
497
489
480
477
489
505
532
565
591
595
595
602
606
603
588
573
561
555
544
531
522
511
508
511
521
528
537
552
572
586
594
595
594
582
572
569
544
525
513
492
472
473
466
435
436
457
485
517
535
547
553
549
541
532
520
513
501
479
465
446
429
418
423
412
400
406
413
428
442
456
449
440
450
460
461
446
424
407
394
379
373
367
354
348
364
373
380
382
395
416
425
422
414
410
403
394
378
362
348
333
324
323
340
337
334
339
352
365
379
397
412
419
419
414
406
397
388
373
364
352
342
337
332
339
349
361
375
393
403
422
411
397
410
424
429
420
402
393
389
364
345
337
337
346
363
387
400
402
415
424
429
435
432
436
429
428
420
406
396
382
369
359
355
367
382
386
407
428
454
467
463
461
453
452
446
446
438
421
402
392
390
384
375
365
370
385
408
429
451
465
471
481
484
478
469
460
442
417
405
410
415
411
410
411
416
426
430
439
452
468
482
494
492
484
473
468
461
450
438
427
410
396
395
402
421
431
439
451
464
475
491
499
494
494
499
502
482
456
427
412
416
419
416
407
402
417
447
473
494
511
526
519
506
504
488
468
452
437
424
417
410
408
405
412
421
430
433
438
458
484
501
499
500
493
487
483
468
457
449
439
430
418
415
408
395
394
416
449
475
493
506
509
502
486
473
462
459
451
430
419
411
404
403
402
412
423
431
442
459
479
502
510
508
505
494
483
465
443
427
421
420
404
389
388
396
420
450
465
489
504
492
490
506
516
517
502
473
453
441
422
407
409
414
418
422
429
436
451
474
501
526
528
507
490
468
448
435
432
431
441
424
408
406
409
419
432
440
456
475
479
483
486
495
496
486
473
447
424
425
420
412
413
414
416
424
432
441
452
465
483
497
505
506
501
492
484
470
446
421
409
402
403
410
422
433
441
448
460
479
500
520
522
520
526
516
500
476
458
436
413
395
396
408
429
449
456
465
477
494
506
520
533
540
545
539
512
500
488
450
426
426
431
444
454
467
481
495
507
518
523
530
539
541
543
543
547
531
501
487
474
458
444
441
456
474
480
491
508
523
536
548
554
546
534
528
521
496
471
454
443
434
434
434
445
454
456
454
455
461
478
492
496
494
488
475
462
445
431
424
420
413
405
401
405
422
432
434
423
431
449
476
497
497
497
495
485
468
455
430
409
393
383
391
409
423
432
432
433
450
462
478
499
498
478
468
467
472
459
437
433
422
390
378
384
392
410
436
457
455
462
486
512
512
501
485
471
439
421
407
421
414
398
398
398
403
409
425
441
458
477
488
492
484
476
474
459
435
411
393
385
379
374
373
398
428
451
474
505
540
580
622
664
695
722
749
782
799
823
855
897
945
989
988
988
987
987
986
985
985
984
983
983
983
984
984
985
987
988
989
884
788
699
624
523
402
311
264
245
245
263
287
300
304
306
311
307
304
313
300
278
265
272
286
299
314
326
331
342
363
384
382
388
393
390
378
370
351
342
335
325
318
316
321
324
314
322
343
359
366
379
405
412
404
401
399
397
386
376
364
349
339
330
318
325
336
342
358
389
414
433
446
452
453
445
442
429
411
407
406
394
380
368
376
388
391
400
406
420
438
455
455
451
451
452
450
443
432
419
395
375
372
385
407
422
433
442
460
477
489
494
495
497
498
487
478
467
457
442
427
422
420
419
429
443
469
466
459
472
491
508
519
532
540
542
520
508
500
483
463
442
431
433
447
453
473
484
487
496
522
539
551
561
569
557
545
545
537
512
489
472
469
480
485
490
502
513
533
542
560
577
589
596
600
593
581
578
573
559
543
525
505
506
514
531
548
545
540
556
572
587
609
622
618
600
586
584
577
561
548
539
529
522
524
524
532
539
550
553
558
578
593
607
609
606
596
580
561
541
516
493
470
477
470
470
466
469
486
500
506
511
516
523
530
527
513
501
486
471
429
408
402
404
412
415
416
423
428
428
432
445
457
467
474
463
439
418
407
397
385
381
371
353
339
339
354
371
387
396
410
423
432
432
426
416
397
382
377
362
357
361
355
346
344
347
359
359
369
387
403
413
419
420
423
416
412
404
393
385
387
387
370
357
348
337
326
340
365
392
412
423
438
438
423
407
416
429
428
410
389
378
370
367
373
381
389
396
398
412
427
440
447
462
474
476
460
436
408
396
386
374
382
387
386
392
401
407
429
428
444
465
482
486
492
497
484
465
449
442
427
418
413
407
387
374
384
404
421
440
459
474
486
495
498
496
493
492
472
448
440
441
425
409
410
423
438
439
434
440
448
463
499
517
511
515
507
489
474
461
452
444
430
417
409
412
416
429
446
471
491
504
513
520
509
484
481
485
485
475
457
441
434
430
431
436
444
450
458
469
486
505
521
534
543
540
528
503
471
446
427
422
426
429
427
428
443
460
468
460
468
491
507
524
515
500
490
482
463
446
432
427
434
431
432
443
456
466
471
475
485
507
517
517
541
550
524
488
458
438
413
394
408
421
425
432
437
436
449
469
490
501
524
530
530
533
512
497
477
461
444
428
418
418
418
429
445
452
465
475
481
485
500
519
532
530
511
487
471
459
452
449
445
439
438
437
443
448
461
477
501
522
540
531
530
529
506
481
463
457
447
428
413
413
423
436
443
455
464
476
491
501
508
520
532
526
510
498
474
447
442
439
438
447
458
463
457
453
454
469
498
514
530
540
525
504
489
478
470
471
474
471
464
456
445
436
432
438
450
468
490
514
529
532
528
520
518
498
470
464
456
445
437
435
440
448
470
492
481
489
514
536
551
555
554
557
553
539
529
513
497
486
480
472
456
457
471
494
521
529
526
528
523
530
551
568
561
542
520
501
494
488
482
474
474
473
471
472
489
511
527
538
540
542
535
522
503
475
454
452
464
454
443
432
412
401
411
421
426
447
476
491
498
496
499
500
497
483
465
448
433
419
412
409
413
420
423
435
457
457
465
487
502
508
501
493
490
481
452
432
423
421
412
403
400
410
422
430
444
463
484
498
503
507
509
510
505
491
462
448
450
432
405
387
373
375
390
419
445
474
498
502
504
509
500
492
483
471
449
432
414
398
391
391
382
385
391
390
401
422
457
483
509
534
563
575
584
596
601
613
640
672
702
747
802
853
892
942
989
988
988
987
986
986
985
984
984
984
984
984
984
984
985
986
987
988
989
904
833
751
655
540
428
337
267
230
214
223
237
247
263
272
277
271
261
274
301
322
340
359
374
381
382
391
396
384
380
371
347
324
311
312
306
311
312
302
299
312
328
341
363
383
396
409
386
367
364
363
358
339
322
317
319
320
316
336
356
369
386
407
413
413
404
408
419
416
410
403
396
388
379
362
352
346
341
351
365
379
404
414
421
438
452
456
461
460
460
444
420
410
404
392
379
365
367
386
404
415
415
423
446
468
490
499
495
489
482
473
459
450
441
431
434
414
387
390
417
454
470
475
488
492
492
503
510
520
516
497
476
467
457
448
453
461
454
462
452
448
459
479
506
541
558
559
555
544
536
522
506
492
472
471
470
470
477
483
488
499
518
543
569
592
603
609
599
584
568
554
538
526
517
510
498
503
508
508
519
531
538
549
573
594
613
621
614
599
590
589
576
554
538
533
523
518
523
538
536
532
538
559
588
608
615
613
599
579
570
563
560
549
528
508
500
500
493
484
477
484
494
527
545
553
556
556
553
539
520
506
490
469
462
456
442
434
436
433
433
438
435
433
434
455
471
470
462
451
449
449
443
426
408
384
368
361
363
372
381
393
398
399
416
437
452
460
463
448
425
395
367
356
354
351
352
357
366
348
330
338
345
360
384
409
428
436
438
435
425
413
397
381
363
352
348
345
350
358
358
356
367
393
419
441
451
454
445
446
437
416
397
383
370
365
362
362
361
367
382
405
426
431
438
442
451
460
468
469
455
433
414
391
380
380
382
384
387
389
394
402
413
429
447
461
465
468
469
460
444
436
437
431
422
411
413
417
407
404
416
441
461
466
483
486
478
467
470
471
465
447
438
432
426
421
410
401
398
412
422
424
439
458
478
499
504
492
492
491
486
482
466
445
432
423
422
424
427
436
438
443
458
474
502
514
509
514
525
512
493
492
481
455
424
398
396
404
419
440
451
464
478
490
497
491
488
497
507
512
502
482
464
456
451
441
421
413
420
437
451
457
469
484
497
502
503
509
519
502
498
480
459
447
438
427
416
413
420
438
444
450
458
475
496
504
504
502
504
491
481
473
454
435
430
433
441
431
425
436
443
440
444
459
476
501
514
523
535
536
531
496
449
413
404
410
412
423
428
425
430
438
451
469
484
508
515
517
517
513
511
495
471
446
435
426
416
410
409
416
436
458
470
485
505
516
516
520
513
493
475
468
460
453
435
420
422
434
444
440
434
441
438
459
493
515
516
506
496
490
487
480
466
454
450
443
427
427
433
443
453
456
465
482
504
520
524
522
519
519
513
501
490
470
444
434
431
447
449
439
446
454
453
470
501
527
531
529
529
526
520
500
474
456
451
444
440
438
443
454
469
487
504
509
522
542
551
549
549
539
522
505
495
495
495
492
490
487
491
490
495
506
519
532
543
548
552
560
559
559
544
532
522
509
491
463
439
428
426
450
473
492
517
528
538
545
556
564
567
560
545
517
468
425
410
400
394
390
390
406
431
451
460
473
480
488
498
507
511
512
510
493
471
443
415
401
410
414
407
414
424
435
443
452
461
469
479
491
505
503
484
460
445
435
425
411
398
393
401
409
421
432
449
469
497
521
511
512
508
492
477
469
453
436
422
413
413
417
426
437
447
448
447
445
456
474
490
496
499
505
497
479
463
450
437
425
410
396
380
368
361
370
390
411
435
460
484
509
530
538
556
568
573
575
578
598
627
664
713
767
828
891
945
989
988
987
987
986
986
985
984
984
984
983
984
984
984
984
985
985
986
987
989
950
852
760
654
533
428
338
274
237
207
207
224
244
261
265
284
301
311
325
340
341
351
377
394
397
398
387
373
358
345
341
339
330
320
303
289
293
300
307
320
336
361
383
385
387
389
386
380
366
340
317
310
320
329
332
333
343
346
345
358
374
388
405
424
432
435
432
428
412
391
356
343
337
341
353
362
380
393
395
409
426
444
464
475
479
483
450
437
432
421
407
389
377
380
387
383
379
390
403
418
437
455
468
478
482
486
488
483
467
448
439
436
425
420
428
430
421
432
439
452
470
482
497
509
519
523
530
511
491
472
458
452
448
443
432
427
433
444
459
487
514
535
553
560
563
555
537
528
523
518
507
495
480
473
475
483
495
507
516
533
547
565
573
580
599
595
587
572
554
539
531
524
525
522
495
480
508
540
552
560
574
587
599
615
615
606
598
593
583
578
564
557
537
521
512
517
531
551
570
569
575
585
605
614
611
606
589
581
566
550
534
528
516
507
502
501
505
508
519
534
544
555
561
554
537
536
533
530
529
518
481
442
434
439
450
458
457
454
459
468
480
488
495
501
486
461
439
441
437
431
417
390
372
364
362
361
372
380
390
399
416
434
447
448
441
441
434
416
399
385
371
360
338
319
312
326
341
354
369
376
384
399
407
414
412
421
406
392
381
366
355
347
342
345
349
359
355
347
361
381
396
411
425
432
432
434
432
421
402
386
360
335
336
351
368
378
392
392
398
408
422
439
438
430
427
428
437
449
429
379
348
344
359
371
380
387
395
381
395
422
451
473
471
461
447
443
449
447
437
425
415
408
398
397
395
392
394
403
420
439
454
465
484
508
508
508
491
475
455
425
406
399
400
399
391
396
407
421
445
470
481
483
476
478
484
489
489
485
479
471
458
445
430
410
391
384
398
420
437
448
459
483
510
521
511
495
484
466
451
443
436
428
420
415
418
420
425
430
440
461
486
520
525
511
513
514
498
489
474
445
428
422
418
422
424
435
451
459
456
455
460
474
485
498
514
529
525
501
480
464
451
443
428
416
404
406
424
435
444
446
454
471
487
501
508
499
486
479
465
460
451
427
422
413
413
419
425
434
436
443
465
492
507
511
515
519
510
492
470
452
427
406
398
403
427
447
444
442
445
448
465
488
498
510
519
512
497
488
476
461
434
410
405
416
433
436
440
448
454
472
491
509
519
510
504
505
498
493
498
487
461
431
400
382
382
403
423
431
446
466
490
506
511
516
509
490
475
470
463
456
432
419
411
407
414
423
437
446
455
469
481
494
501
511
517
511
509
506
485
471
456
440
431
420
418
425
445
451
456
470
492
514
522
517
514
513
513
510
496
475
462
456
453
440
447
460
472
486
505
510
508
514
540
556
553
549
538
524
505
489
481
475
471
473
475
480
494
516
507
499
514
544
561
564
568
553
538
530
518
499
477
459
453
455
459
458
465
471
483
494
510
524
532
543
545
541
522
502
485
468
450
444
427
398
381
386
398
415
425
429
442
470
497
513
513
508
497
486
466
446
436
420
414
405
408
416
434
440
437
447
463
473
480
490
496
496
477
460
443
432
425
415
408
407
409
413
420
430
443
455
472
476
483
484
483
490
493
489
474
458
439
420
411
405
406
410
405
403
416
436
454
470
486
498
508
515
501
470
421
400
408
412
413
396
387
395
414
423
425
430
436
441
442
459
489
513
526
531
539
555
570
593
620
657
694
729
785
859
948
989
988
987
987
986
985
985
985
984
984
983
983
983
983
984
985
986
987
988
989
940
859
777
686
557
442
359
292
243
212
205
204
226
245
264
274
282
290
291
302
328
330
342
364
379
389
392
385
368
350
335
326
317
307
292
293
302
316
320
325
339
360
375
386
388
377
363
359
356
356
348
337
339
326
323
332
344
340
350
368
390
403
394
377
374
383
403
420
422
412
395
381
370
363
360
361
367
381
401
418
428
435
451
470
468
450
442
441
437
426
414
402
393
397
405
402
397
404
412
428
436
451
467
461
458
467
473
474
463
447
433
427
421
418
409
407
413
424
431
445
461
477
492
508
519
515
501
496
502
496
481
469
457
450
449
455
467
477
479
490
498
487
485
509
537
559
566
554
534
511
499
489
486
490
493
499
516
524
518
519
520
534
558
576
591
601
595
587
586
570
554
549
540
523
519
499
504
524
540
553
565
575
586
599
609
613
616
607
600
595
570
547
532
520
518
520
532
547
554
558
571
588
598
596
590
595
602
596
584
566
553
555
532
510
507
512
514
517
514
513
530
557
575
572
549
523
518
523
526
516
497
481
474
469
464
463
461
453
435
427
440
462
466
477
493
497
479
461
450
438
425
414
406
399
392
387
389
386
385
395
390
402
408
416
418
421
431
432
427
408
392
375
354
341
333
335
337
349
356
364
375
391
410
426
428
425
423
407
389
370
363
361
359
352
349
352
365
374
366
363
372
396
425
439
435
437
434
427
426
415
387
347
337
345
364
380
387
386
388
397
409
422
432
451
459
450
459
462
451
429
408
382
360
357
371
382
388
396
402
409
418
437
459
477
485
487
486
480
454
426
413
411
425
437
436
423
396
372
383
400
428
459
482
506
510
498
487
476
469
461
447
440
438
424
418
409
408
417
433
440
456
489
498
511
519
523
510
490
482
460
446
446
443
441
437
436
435
448
453
450
457
482
509
515
516
513
505
494
486
475
463
443
434
429
419
425
433
447
459
469
481
497
508
515
524
527
521
511
500
478
457
448
445
446
443
446
448
452
459
456
463
484
510
534
539
524
514
504
492
458
418
408
417
430
442
441
439
445
447
447
464
490
510
528
539
540
532
508
489
479
472
464
450
424
407
409
417
434
447
457
470
485
498
506
517
522
525
528
504
480
471
446
424
425
432
442
452
447
446
457
472
488
502
514
528
536
538
527
502
473
459
447
430
423
427
442
457
454
454
464
480
496
512
514
513
519
523
515
495
469
450
442
446
445
444
446
454
447
435
449
474
500
519
532
540
548
531
520
512
488
470
464
462
458
447
452
461
465
471
486
496
511
530
535
540
544
538
521
508
495
491
485
478
469
472
480
481
491
501
514
528
535
542
557
572
577
577
574
570
553
526
508
497
485
480
468
455
460
482
513
542
564
579
588
593
587
572
559
543
529
517
505
489
480
472
459
451
480
501
513
522
535
533
532
529
527
505
486
486
469
460
450
440
441
443
443
437
437
437
447
461
478
502
525
523
520
516
515
500
474
459
447
437
429
424
426
432
442
454
462
474
494
505
509
515
521
518
514
514
496
467
442
430
416
401
396
396
412
431
456
484
502
513
519
516
513
511
502
496
486
478
460
446
432
438
444
434
448
453
456
473
488
499
517
522
519
509
492
480
474
469
451
444
417
400
402
411
426
440
460
491
524
553
572
598
636
650
660
679
692
721
755
788
818
859
912
966
989
988
987
987
987
986
985
985
984
984
984
984
984
985
987
988
989
902
827
765
712
650
575
466
381
331
302
292
296
309
314
314
322
325
323
317
311
307
305
308
323
335
338
358
383
403
424
434
425
422
426
413
394
383
374
365
356
343
345
366
381
373
363
379
394
408
426
439
448
442
434
433
422
403
377
361
352
345
346
364
383
391
403
416
435
459
462
465
468
473
467
456
447
431
416
416
419
410
410
426
422
419
443
471
475
461
462
478
496
511
517
502
480
451
423
415
423
432
433
439
446
445
448
471
494
516
524
522
514
521
522
514
499
480
468
461
462
454
451
460
471
490
501
515
532
547
566
564
542
526
523
539
517
499
473
470
478
476
475
480
492
497
498
522
555
581
595
599
600
591
569
544
518
509
511
516
521
526
527
527
534
537
553
578
595
609
612
622
641
648
632
602
582
562
551
550
540
535
536
547
565
582
599
616
627
630
642
640
642
633
624
613
601
596
585
575
569
572
564
565
565
571
580
596
616
626
624
621
618
616
614
608
586
555
528
516
515
520
517
511
520
538
557
561
545
533
536
542
550
551
544
547
527
496
478
467
468
459
437
411
392
394
421
456
470
486
495
506
498
479
467
448
430
409
393
382
378
386
388
388
392
391
397
401
410
428
440
438
449
442
423
413
396
369
349
340
335
337
345
348
365
376
385
403
424
440
449
454
449
441
425
400
373
364
355
348
348
354
357
357
370
386
403
408
412
411
419
435
444
450
446
434
417
407
398
391
382
378
381
379
357
349
374
412
447
464
468
464
460
448
452
458
452
432
408
395
386
384
386
398
410
421
434
449
464
476
486
488
482
478
476
468
451
435
426
419
426
423
417
426
433
431
440
465
488
516
513
508
506
498
504
489
458
442
432
429
436
445
454
460
456
454
471
483
477
473
476
496
502
501
496
479
457
443
427
414
407
415
439
454
458
464
477
490
507
528
530
520
511
504
499
496
484
473
468
458
451
442
441
447
459
474
485
490
496
501
514
528
523
523
527
507
491
473
460
443
434
431
432
445
435
435
448
473
500
510
523
531
527
521
506
494
484
480
468
454
447
446
431
420
434
439
460
492
519
528
537
541
534
514
491
479
467
459
454
448
442
443
439
446
457
465
471
480
495
515
529
541
543
536
520
512
503
495
495
481
457
440
433
442
461
481
491
509
528
546
550
549
551
555
555
544
522
500
486
479
474
478
484
492
501
515
527
543
563
581
587
590
600
558
521
523
507
493
482
475
464
457
456
462
463
460
485
519
533
542
546
548
546
542
529
501
474
454
433
408
404
410
422
429
434
435
436
449
472
502
499
496
496
499
488
483
471
456
452
444
429
426
430
439
446
443
451
466
473
482
495
501
500
498
492
480
468
454
442
429
412
405
403
414
433
440
447
463
486
508
522
522
519
515
509
490
475
458
448
442
440
449
433
437
436
432
442
460
468
480
495
507
510
508
493
476
475
469
450
428
423
428
427
421
418
418
430
453
490
522
546
559
564
568
558
549
551
562
585
612
645
682
715
756
812
879
939
988
989
988
987
987
987
987
986
986
986
986
986
986
987
988
988
989
939
855
786
728
684
630
551
456
383
333
290
265
262
269
279
291
303
314
326
332
332
330
339
356
369
389
399
406
411
422
419
394
380
380
378
374
385
368
341
346
356
367
383
401
421
434
448
449
447
448
444
432
389
363
362
359
356
351
339
352
368
381
394
408
428
453
476
480
477
470
456
442
426
415
407
400
393
392
401
413
416
414
423
444
467
484
489
497
500
497
490
478
463
446
432
420
414
415
419
432
444
463
479
493
515
508
505
511
514
506
491
478
476
487
498
492
462
420
404
428
462
479
485
499
527
531
528
544
556
562
564
530
488
473
469
456
447
445
449
457
469
479
494
521
549
563
566
573
575
569
556
540
527
517
507
500
497
498
497
501
515
529
539
557
575
591
601
605
607
605
599
589
572
561
548
541
537
539
545
557
568
578
590
595
606
622
628
626
624
616
613
602
589
577
568
557
551
549
553
563
571
576
585
597
609
619
625
630
629
625
624
595
572
553
540
530
526
525
534
543
548
552
556
533
524
535
552
559
558
549
529
496
479
467
465
455
436
421
418
422
435
444
456
469
486
504
516
488
462
450
451
449
445
438
413
358
310
310
334
363
383
389
395
410
423
432
434
432
432
425
416
401
380
357
344
337
339
341
343
351
361
369
381
396
411
425
429
435
428
415
406
398
389
385
382
369
356
351
333
326
339
360
382
405
422
434
450
446
438
432
428
423
401
385
368
353
355
356
364
377
384
395
413
424
428
432
446
465
464
448
443
433
419
399
385
370
363
371
373
371
374
394
415
442
458
453
458
470
482
484
474
461
446
426
402
383
380
389
403
420
430
442
454
461
476
486
488
496
499
495
485
467
446
427
423
415
403
389
392
409
427
442
452
470
492
511
515
512
503
494
481
467
454
444
434
426
423
424
429
436
441
446
462
475
488
507
512
504
501
503
488
490
491
473
453
436
424
423
430
438
455
458
459
482
502
516
516
513
514
504
486
472
461
447
436
431
419
418
423
437
445
458
478
498
508
512
529
537
529
507
485
476
471
466
443
420
405
398
407
425
447
457
469
485
496
505
516
522
527
521
506
484
461
439
431
427
424
420
418
428
438
452
463
476
491
506
512
516
522
513
506
497
480
449
420
413
420
427
434
430
433
449
468
488
502
514
525
527
519
507
501
486
457
437
436
446
445
442
446
456
470
475
472
483
483
488
494
495
504
511
508
493
476
463
457
452
441
431
423
426
436
452
479
504
521
531
531
533
541
522
506
500
488
475
466
461
464
464
468
472
482
493
511
532
546
555
557
558
558
551
544
533
517
500
492
480
468
467
473
482
491
496
508
526
541
548
553
553
550
548
544
542
513
483
468
462
466
465
460
450
454
459
470
484
496
506
513
510
496
482
478
474
459
434
419
417
414
406
413
432
443
443
439
453
477
497
511
515
510
512
486
464
440
422
417
412
400
391
388
396
414
430
438
452
471
497
508
484
477
473
470
463
452
438
423
416
411
413
415
424
432
438
449
465
486
500
505
506
508
499
484
462
444
429
423
417
411
413
417
426
438
450
456
454
467
492
486
472
466
457
453
444
437
408
389
381
383
396
416
441
468
493
524
555
599
646
692
733
776
814
848
890
923
955
989
989
988
988
987
987
986
986
984
984
984
983
983
984
984
985
986
987
989
925
817
708
614
506
391
314
261
240
232
248
276
312
341
350
362
364
359
343
340
340
327
322
318
311
308
297
296
304
324
352
373
387
394
399
400
387
384
377
354
338
323
319
301
269
257
280
313
336
345
350
367
391
402
410
413
409
408
396
377
362
343
330
328
331
331
342
358
372
380
394
404
409
432
460
449
430
417
405
403
389
374
372
377
381
387
387
387
388
402
421
440
451
461
471
478
474
463
438
420
413
408
416
416
400
397
406
414
429
447
470
490
503
507
506
501
491
480
471
467
457
445
434
429
427
444
451
441
444
447
467
496
519
530
530
524
508
496
488
484
482
474
456
454
446
437
456
476
490
512
537
547
552
541
532
529
536
545
535
517
502
492
478
472
474
485
498
507
517
535
556
568
574
578
588
596
583
577
579
550
514
497
495
503
515
515
520
531
545
558
562
572
588
605
612
606
597
592
579
553
534
524
518
516
513
516
518
523
540
548
559
565
569
566
566
557
556
570
556
524
499
484
471
465
464
471
483
491
500
513
523
529
524
505
477
468
472
486
482
457
427
407
398
393
401
407
412
415
414
425
439
443
449
452
455
465
470
460
433
398
368
357
349
351
357
358
363
362
371
384
398
417
439
456
457
444
424
410
394
383
367
358
348
342
333
319
322
334
354
381
401
416
433
448
452
440
425
420
383
357
357
358
371
361
354
372
366
362
374
397
428
443
437
423
424
440
448
450
442
428
410
385
358
344
352
367
381
395
406
419
440
457
469
472
467
457
445
445
439
427
411
392
384
379
381
391
405
406
414
429
453
467
470
474
480
488
489
484
471
452
437
408
385
387
399
405
411
418
429
436
448
459
473
489
495
500
494
482
467
446
429
417
411
409
403
402
413
436
452
458
470
474
475
477
490
508
511
506
482
470
453
430
408
402
400
403
426
441
441
453
477
503
517
515
516
513
506
496
477
454
432
418
409
405
407
414
424
430
445
458
470
482
493
501
502
505
500
497
485
470
454
433
421
408
411
427
449
456
451
438
437
449
459
487
511
522
510
492
472
456
447
436
430
427
427
427
435
442
452
469
477
484
500
506
509
504
486
465
449
439
428
417
398
389
396
416
443
458
469
482
492
502
487
489
492
485
482
479
466
452
446
443
440
440
435
432
442
451
459
461
467
476
485
490
492
494
492
486
481
467
445
430
418
424
426
418
428
444
456
471
487
488
491
505
524
528
505
478
463
453
456
461
457
454
450
445
453
464
470
478
490
507
527
535
544
544
534
524
506
494
475
448
435
438
439
441
456
479
496
508
516
521
526
536
548
556
556
537
514
494
479
475
474
476
478
476
487
496
507
519
534
533
524
521
526
528
516
506
481
469
458
445
433
424
428
432
431
425
425
443
466
485
502
498
498
492
476
465
451
440
433
435
419
400
404
405
406
415
421
446
480
493
492
486
485
488
480
469
458
443
428
413
399
394
390
394
400
406
421
438
452
467
483
494
497
495
485
476
456
435
426
414
406
402
397
394
402
411
432
446
456
471
483
490
498
499
490
478
451
431
421
421
412
408
413
420
433
444
450
455
460
473
460
449
441
440
421
407
401
397
401
413
429
441
461
478
510
547
581
613
663
722
788
850
904
940
969
989
988
988
988
987
987
986
986
985
984
984
984
983
983
983
984
984
985
987
988
959
842
730
619
481
364
282
216
182
169
180
219
266
315
346
360
367
374
376
366
355
339
329
313
292
280
285
300
308
312
316
324
339
356
377
391
394
386
377
364
358
350
340
319
304
309
293
281
281
296
302
303
318
346
375
393
400
400
401
390
384
378
371
359
339
329
326
332
346
360
350
361
366
381
408
433
434
403
393
402
412
408
403
399
387
372
365
362
368
383
393
403
421
440
456
462
463
461
466
461
455
445
439
427
410
399
396
402
417
416
399
397
415
435
463
481
493
502
506
497
487
473
461
447
433
420
419
425
430
443
457
461
469
485
503
517
524
553
543
525
510
478
462
464
462
453
447
443
453
469
475
481
482
486
502
525
539
554
563
564
565
555
542
523
488
466
466
482
491
494
503
517
538
558
576
583
592
600
614
605
589
574
557
540
523
503
507
516
506
517
535
549
563
579
593
603
605
606
606
593
581
565
551
537
524
511
505
505
511
523
535
540
540
537
532
536
553
565
559
543
524
513
502
490
478
468
462
460
462
462
463
461
464
476
494
513
509
506
499
483
456
423
409
411
403
391
376
368
375
392
403
423
439
453
461
457
443
422
416
410
382
359
359
363
359
353
347
346
345
345
351
368
385
387
396
409
419
419
416
407
397
384
372
359
347
340
336
339
350
363
373
375
373
375
391
406
414
419
423
422
413
391
375
367
353
345
349
356
362
374
381
393
402
402
414
431
445
448
448
441
440
423
392
376
373
360
352
354
368
397
412
427
432
436
449
468
471
466
465
461
443
424
410
396
381
362
337
339
351
373
400
416
430
445
458
472
477
477
475
468
459
442
429
421
407
402
399
402
408
418
422
424
429
449
473
491
502
505
494
473
466
457
441
429
421
412
397
395
403
417
433
448
463
476
488
503
510
506
497
484
477
468
453
440
425
411
408
413
415
418
424
439
463
490
508
518
519
513
510
496
482
471
459
440
403
397
403
410
418
428
441
452
470
461
463
483
502
508
499
492
480
467
462
453
441
433
426
423
425
441
455
464
458
455
466
477
490
504
503
486
464
440
424
421
424
426
425
421
423
429
434
444
460
476
492
504
509
512
514
511
495
475
461
453
436
412
398
400
413
426
428
427
436
462
496
504
497
490
485
484
487
483
470
453
433
417
412
413
420
431
438
447
460
478
491
494
491
492
496
498
490
473
455
441
432
430
435
430
420
432
443
443
464
487
510
523
530
519
499
487
479
475
453
435
425
416
402
392
399
423
442
457
471
481
498
507
508
510
516
509
499
487
480
465
448
436
427
422
424
434
449
462
475
493
511
526
524
518
511
511
507
490
464
457
463
452
432
428
438
469
479
481
485
499
522
541
545
550
552
547
535
521
508
496
483
470
465
468
476
485
492
498
512
527
548
573
581
578
556
542
532
511
486
460
454
450
438
435
450
461
450
453
458
464
481
494
505
509
512
503
488
466
441
423
407
399
405
409
414
422
430
441
455
473
494
509
513
508
495
489
480
466
446
427
411
403
405
410
416
420
425
431
442
457
472
482
486
485
486
482
468
445
434
427
423
421
412
406
402
408
428
449
468
485
502
501
496
486
474
468
466
457
441
423
407
409
422
435
429
414
416
434
453
475
490
504
498
480
474
467
458
443
427
415
406
372
357
362
369
376
399
435
459
489
528
575
612
645
677
701
725
751
780
816
848
876
918
986
989
988
987
986
986
985
984
984
983
983
983
983
983
984
985
986
988
989
925
823
721
629
513
394
322
286
268
257
270
288
308
323
327
322
320
317
309
308
318
305
300
309
330
338
338
328
329
332
343
359
378
387
377
353
331
319
315
309
311
309
303
302
295
294
315
349
375
390
395
398
407
393
381
368
349
326
317
313
317
326
337
351
364
366
372
383
401
419
421
419
424
425
413
390
373
365
362
361
360
360
369
379
386
399
416
437
457
470
476
481
474
461
453
428
417
414
404
394
392
392
395
399
409
413
421
436
467
496
507
503
492
478
466
456
449
445
433
424
424
428
427
417
400
417
452
487
519
529
524
517
515
514
501
484
476
469
447
429
430
441
467
482
476
474
489
509
516
523
535
545
551
551
545
533
527
517
503
487
474
466
462
470
485
508
539
562
570
587
598
596
591
590
578
561
546
538
536
526
508
497
501
514
533
556
581
599
602
601
604
604
604
604
601
587
571
548
524
513
513
519
528
544
553
540
555
586
589
587
588
588
586
578
568
554
539
525
516
488
470
454
449
462
473
486
500
518
534
546
547
526
499
484
478
473
463
453
445
433
410
393
399
406
416
421
433
456
484
494
485
465
451
442
427
405
392
377
367
361
361
363
363
363
362
369
387
412
426
429
428
423
419
415
415
403
387
384
375
357
350
342
343
347
359
379
396
404
408
403
404
415
420
422
414
384
381
380
355
330
322
341
346
339
351
374
395
418
433
431
432
434
440
436
421
409
404
400
390
393
396
378
374
380
381
392
408
432
438
444
449
457
467
465
452
436
419
400
391
386
380
382
386
395
405
419
435
454
468
482
492
491
489
481
470
455
446
436
428
422
413
401
400
412
431
447
462
469
469
468
476
487
490
478
463
455
447
436
426
419
413
416
424
429
445
462
475
493
496
493
498
490
492
492
483
471
457
447
438
434
433
431
432
442
462
468
464
480
504
518
521
515
510
505
497
483
462
441
438
437
430
441
436
435
442
461
479
496
513
522
528
529
525
508
489
472
461
454
446
439
438
433
434
445
449
462
482
498
506
509
505
505
509
509
504
497
493
486
477
465
453
426
397
399
409
434
462
485
503
516
527
534
518
496
477
462
444
446
438
427
431
427
435
447
463
484
489
489
500
509
514
521
518
506
501
492
466
446
433
432
434
434
436
444
449
461
480
496
507
511
518
510
511
507
498
483
470
462
463
458
456
454
454
449
445
453
472
495
521
534
527
520
512
500
492
482
468
457
452
451
443
446
457
470
481
490
504
523
521
507
510
528
536
521
496
477
465
456
459
457
456
458
456
462
472
467
485
504
521
544
547
545
548
543
522
507
495
488
496
499
484
469
464
473
496
520
534
549
565
571
567
569
572
564
548
531
521
511
494
487
488
492
497
507
520
540
564
568
567
570
566
565
558
547
532
515
496
472
458
463
454
449
453
462
471
484
493
502
510
511
511
511
503
494
490
484
471
454
436
422
416
417
418
423
438
460
484
502
514
524
523
509
499
500
493
483
469
434
428
420
424
425
428
443
450
469
494
499
498
507
513
513
514
496
467
450
446
450
442
432
424
428
447
467
474
480
484
494
502
491
480
487
496
497
493
490
464
438
425
423
426
433
433
441
454
475
488
494
507
513
514
511
505
495
477
461
442
428
420
412
405
414
433
462
493
518
547
573
600
634
673
718
758
800
831
856
890
929
963
989
988
988
987
987
987
986
985
984
984
984
984
984
984
985
986
987
988
957
864
769
690
622
521
397
307
262
248
258
290
318
341
345
345
356
352
341
337
339
327
315
318
331
327
322
337
363
380
398
410
414
422
426
432
441
415
382
356
348
346
343
337
336
341
352
370
393
412
417
421
427
428
412
412
421
423
406
386
373
368
371
369
364
371
380
392
410
431
451
463
472
477
478
471
464
449
437
429
416
407
400
394
403
415
422
433
451
457
469
483
491
496
499
499
490
480
469
457
451
444
428
426
429
436
444
460
474
487
502
525
536
539
534
521
506
496
485
490
491
471
447
441
447
455
467
483
496
510
531
557
578
568
556
542
534
514
502
488
465
467
478
485
490
496
496
508
527
549
566
571
574
581
591
587
577
569
553
541
542
525
516
521
532
545
548
551
558
571
584
583
594
605
616
629
626
613
589
570
563
563
568
574
580
585
597
596
584
578
594
617
632
641
643
641
624
602
591
588
584
573
570
572
568
556
554
563
568
582
601
626
640
630
622
604
581
570
557
555
548
520
482
472
476
486
507
518
518
520
546
552
544
546
547
537
522
503
480
461
452
447
438
422
420
427
431
435
437
447
467
472
467
459
452
454
459
463
442
421
405
394
392
393
385
380
376
373
381
406
410
408
415
429
441
442
432
412
394
379
374
371
373
372
369
363
359
360
372
397
417
431
438
442
445
443
430
413
394
383
376
384
385
372
371
382
389
383
383
396
419
441
460
469
469
464
455
442
421
399
386
377
374
378
386
389
396
407
421
441
462
483
493
496
455
421
415
420
424
420
413
405
400
399
403
413
424
433
446
459
472
479
489
492
495
494
484
471
459
444
433
427
424
426
425
433
452
451
454
459
485
502
511
520
522
517
499
478
460
449
441
434
434
436
443
448
453
458
467
485
503
515
522
515
504
502
508
504
491
473
455
444
435
433
435
447
459
473
488
501
513
519
524
525
530
527
519
501
477
459
451
446
446
451
452
456
465
466
473
486
507
508
515
525
524
516
507
498
485
469
462
459
448
440
446
454
458
460
466
472
486
506
529
542
549
556
534
503
472
452
441
443
453
457
456
453
446
447
452
469
494
516
539
542
524
513
508
499
483
469
456
447
443
441
440
437
441
456
475
498
513
526
531
532
533
525
520
504
481
463
461
458
451
446
448
455
463
472
487
507
522
534
537
538
539
538
534
520
500
480
465
455
448
451
452
456
458
471
491
516
546
567
566
556
547
539
536
529
519
511
499
489
480
479
493
505
513
525
534
540
536
529
537
563
591
587
571
545
517
501
495
481
472
475
481
486
490
497
504
523
542
542
540
532
527
518
513
503
483
467
446
433
422
422
435
447
450
449
460
480
500
514
523
523
520
511
495
464
444
436
435
438
441
436
435
436
442
463
463
472
488
498
508
516
517
511
505
499
488
473
456
440
432
432
426
424
433
448
458
462
467
485
498
506
506
501
490
475
462
446
439
435
431
428
433
436
442
456
475
497
511
514
509
505
513
519
505
484
465
452
451
449
432
424
411
404
429
430
422
442
465
481
494
503
513
506
503
512
530
549
569
587
607
631
662
701
741
784
841
907
973
989
988
988
987
987
987
986
986
986
985
985
985
986
986
987
988
988
989
951
889
826
753
679
589
467
368
301
257
234
231
239
256
274
291
320
342
347
354
367
369
370
372
381
386
393
397
394
389
378
353
344
342
349
346
349
361
367
383
392
401
409
419
427
436
435
430
414
393
376
366
359
350
351
358
370
380
389
399
407
420
438
453
464
474
464
447
434
421
421
431
411
387
382
381
387
398
410
430
456
474
483
486
489
488
480
470
459
445
422
410
396
397
409
420
437
452
470
474
485
501
493
479
476
489
502
502
485
463
450
442
437
433
437
440
443
449
465
489
509
527
545
562
569
563
543
515
473
436
436
452
459
466
469
472
484
498
507
512
525
538
534
549
558
566
559
549
545
526
508
492
481
479
488
502
525
539
552
570
583
591
582
560
562
585
580
572
563
557
551
547
539
533
539
543
549
549
555
570
594
610
617
623
626
628
623
620
606
589
570
558
550
545
547
547
553
559
567
580
593
608
619
625
621
616
610
600
582
565
552
542
536
534
541
545
547
553
556
560
568
555
540
534
540
546
540
518
495
487
476
469
461
464
471
449
438
448
454
467
489
497
501
504
503
497
490
476
454
430
414
399
383
374
374
381
390
395
397
404
418
437
447
448
443
436
423
413
399
389
373
360
353
349
353
355
348
341
354
368
380
394
410
420
429
433
428
418
398
378
366
371
354
346
348
353
359
367
375
383
402
423
447
445
437
435
430
428
422
405
388
375
359
359
357
363
377
384
388
399
417
438
452
458
452
445
445
428
399
395
400
401
394
385
379
389
405
413
416
420
438
462
476
484
484
475
449
435
428
422
417
410
411
414
408
410
410
415
422
433
447
462
477
485
492
498
498
491
474
458
427
401
395
403
409
411
417
423
435
453
478
497
509
506
507
502
493
488
479
467
452
444
437
437
428
428
438
449
464
473
487
507
527
531
532
524
510
494
470
450
434
426
418
419
427
438
446
453
463
471
485
503
518
528
533
535
523
499
467
436
414
411
424
434
445
456
461
462
464
474
485
496
508
518
525
528
521
502
473
453
447
440
435
432
429
432
452
452
454
466
488
492
486
495
496
497
501
499
488
480
473
448
427
411
407
428
435
446
453
457
467
481
494
497
505
515
513
510
497
482
463
454
438
414
407
416
431
446
462
483
494
488
481
483
490
501
507
497
482
461
436
420
414
418
435
443
452
455
461
469
488
509
514
513
511
508
505
502
488
468
448
431
420
420
427
434
441
452
463
474
489
512
534
536
518
504
482
469
459
451
440
435
432
427
431
441
452
456
462
479
497
505
499
501
508
520
521
490
480
484
477
440
412
407
420
436
446
453
452
459
475
497
518
527
526
522
516
508
494
483
471
460
454
444
431
420
434
462
471
481
499
518
534
550
558
549
531
520
507
496
484
477
480
481
482
484
495
506
515
523
530
548
559
562
550
541
536
534
526
518
514
492
474
473
458
446
451
467
480
491
513
544
568
557
554
553
542
533
516
503
486
465
445
440
446
453
453
447
435
432
444
461
473
488
498
489
480
485
477
433
421
412
412
414
411
415
425
432
443
453
470
485
491
492
492
490
487
486
470
451
436
433
426
419
415
417
418
418
428
445
465
486
501
504
500
488
476
450
431
422
420
415
414
416
421
428
438
443
454
471
488
496
500
503
499
488
482
472
460
452
434
414
410
412
409
406
411
414
424
439
451
454
442
440
440
444
451
449
442
439
443
458
479
489
504
529
555
583
637
683
743
817
884
936
977
989
988
988
987
987
987
986
986
985
984
984
984
984
984
984
984
985
986
986
988
981
867
748
621
474
351
262
208
181
180
200
231
259
292
318
341
353
360
370
384
397
394
383
364
348
319
288
285
288
295
298
301
312
328
339
352
367
378
382
380
387
395
375
346
325
313
314
311
310
314
322
325
315
312
342
376
393
394
404
403
398
393
391
384
372
363
356
353
354
357
354
359
371
382
394
410
426
442
448
450
456
455
454
444
434
410
378
357
349
349
366
382
408
420
430
448
465
475
476
470
466
462
463
452
437
432
429
414
403
395
396
414
434
448
441
437
452
481
501
506
499
495
488
476
466
450
438
430
422
426
435
449
464
479
471
459
483
490
507
523
525
519
509
503
486
468
461
459
464
472
474
478
485
493
510
528
547
561
568
562
556
552
547
537
529
502
470
469
483
502
511
513
512
520
535
555
576
594
604
604
605
602
582
556
540
523
515
509
511
525
537
550
551
541
541
564
591
608
615
616
604
575
541
526
523
517
491
481
487
497
514
527
526
526
532
546
560
578
576
563
561
555
540
519
484
444
440
431
448
468
461
459
463
475
483
497
506
510
516
516
502
481
462
441
425
408
394
397
400
402
409
412
407
409
415
425
436
440
442
438
434
424
413
397
386
377
371
361
352
346
346
355
373
395
408
412
406
399
408
418
414
408
399
387
370
347
334
330
333
339
341
350
368
386
403
427
447
458
441
418
392
370
361
367
385
381
357
347
352
368
367
379
389
393
398
415
422
435
446
449
450
445
427
410
396
393
398
400
396
390
395
402
392
392
406
429
450
466
474
478
470
458
441
425
416
401
385
372
372
388
399
411
418
427
449
474
482
478
477
483
484
472
457
434
413
406
404
400
399
400
398
404
421
437
451
465
478
487
486
484
484
484
479
463
449
439
431
418
404
402
417
433
454
451
463
494
520
527
523
493
462
447
449
444
430
421
427
435
432
430
421
425
425
426
449
478
500
511
500
486
477
472
471
464
458
448
435
431
432
416
415
423
432
450
465
487
486
490
499
501
498
495
486
470
455
446
433
421
413
418
430
441
448
463
475
481
480
483
490
498
500
485
461
444
437
433
431
425
422
419
422
435
453
471
488
495
498
504
504
498
492
486
471
445
420
407
409
418
423
425
433
429
438
448
462
480
493
512
520
511
493
482
477
469
452
438
434
424
417
417
427
434
429
436
457
475
480
486
493
501
502
494
476
453
441
432
428
435
432
416
424
442
456
466
471
487
498
488
490
495
496
492
483
469
455
450
446
439
437
448
459
470
461
437
432
450
479
500
512
517
512
494
467
446
432
419
404
402
409
416
430
443
454
470
471
484
499
496
490
491
496
503
503
482
458
439
425
422
426
428
427
436
449
472
493
485
484
504
512
519
519
520
506
486
462
436
428
428
428
426
429
441
452
468
490
495
505
520
530
531
523
515
507
496
485
480
479
479
473
480
478
480
479
490
509
516
530
542
544
537
525
513
506
497
499
498
489
479
468
464
466
475
483
498
516
533
545
552
547
542
535
526
515
511
492
477
476
468
462
450
440
448
460
487
511
519
522
521
516
506
493
480
464
449
434
418
409
409
418
424
422
418
423
439
460
485
509
527
526
516
513
514
488
456
426
399
374
376
389
402
416
424
430
438
459
478
485
489
482
478
478
472
463
448
433
419
404
382
367
381
411
432
434
444
459
471
483
493
496
497
494
484
471
458
447
430
415
406
413
420
425
430
434
437
453
475
494
515
507
493
478
465
458
444
430
424
415
406
405
398
393
396
400
415
433
445
458
476
504
531
552
562
568
572
583
606
634
660
712
766
814
871
931
989
988
988
987
986
986
985
984
984
984
983
983
984
984
984
985
986
987
988
989
920
822
729
629
506
398
322
272
247
237
236
245
258
267
271
277
274
275
293
320
342
368
394
400
400
407
389
367
335
327
326
331
327
308
284
284
289
299
317
328
340
356
372
393
404
401
390
366
343
320
316
311
311
320
320
312
309
317
332
347
369
371
372
389
409
415
412
408
406
393
383
377
380
374
358
353
356
365
362
363
385
414
429
435
442
451
461
463
463
453
432
416
398
384
375
377
379
390
401
413
422
438
455
471
476
480
488
484
479
470
461
446
433
413
407
395
392
396
415
437
464
487
485
489
503
510
511
501
490
477
465
461
458
451
443
440
445
454
459
461
474
481
499
518
524
524
524
522
513
498
484
479
480
478
473
472
477
480
489
501
519
537
560
579
591
592
586
580
562
536
512
503
499
501
511
516
520
520
525
535
549
572
592
590
590
604
608
607
591
573
566
560
547
534
524
523
518
522
529
541
560
577
587
586
589
595
585
574
573
559
550
544
529
514
506
506
517
506
506
516
517
528
538
533
503
514
533
535
528
512
492
475
461
448
442
438
434
434
435
438
446
456
467
470
471
477
477
461
447
428
404
384
373
371
371
374
377
380
383
389
401
422
446
465
472
460
431
415
395
380
367
358
361
358
341
334
339
346
356
360
367
385
403
422
423
425
418
402
399
398
388
381
374
359
347
349
358
370
369
362
382
401
414
428
424
429
457
461
450
410
360
344
344
346
344
347
354
363
372
381
389
407
428
448
460
460
453
439
425
406
400
398
395
389
387
392
397
395
400
402
409
425
445
459
469
481
495
477
464
454
433
409
395
394
393
399
404
406
419
434
447
467
489
497
488
484
486
479
462
444
433
410
403
399
396
405
415
431
443
439
439
448
469
488
496
501
501
498
493
478
452
431
424
419
418
417
415
409
420
443
449
462
482
518
519
491
476
467
472
473
471
460
442
430
426
427
430
436
448
458
470
484
502
511
520
518
508
495
489
471
452
439
431
432
438
424
425
435
447
461
473
492
513
525
519
513
507
506
501
479
458
437
418
405
407
423
438
440
437
441
456
477
494
496
502
506
501
497
496
479
458
448
439
426
409
410
419
445
465
469
475
478
466
477
500
522
516
499
489
474
458
446
440
431
432
436
450
449
456
467
481
492
495
508
481
480
487
500
510
497
468
446
429
420
419
422
431
443
450
459
468
491
518
501
492
499
495
491
481
468
455
446
442
436
428
428
433
441
450
460
471
493
510
508
499
501
499
493
494
477
463
457
439
428
423
423
431
446
458
462
466
489
508
512
520
523
530
523
497
479
465
460
448
433
427
430
442
453
470
484
499
523
543
542
511
487
485
485
481
469
459
451
457
439
443
432
433
456
465
465
475
494
506
514
519
520
512
505
496
478
463
463
460
444
433
430
443
461
472
482
490
493
497
500
506
505
502
503
500
489
480
465
449
444
443
450
456
461
471
470
468
483
499
508
524
529
523
515
506
494
482
472
470
466
458
464
473
482
495
490
489
503
515
521
521
520
519
518
515
505
504
490
470
454
449
459
466
471
482
492
509
516
521
528
534
541
554
563
561
541
520
503
494
488
488
508
520
532
524
521
522
527
556
564
568
569
569
561
545
526
517
503
487
476
477
487
495
496
498
505
523
544
565
569
569
564
555
543
521
493
476
473
471
465
449
435
425
425
438
444
460
487
503
507
517
526
522
504
496
481
464
446
432
418
419
423
428
428
435
442
465
501
516
527
529
527
525
518
493
459
447
444
433
414
398
401
409
441
451
462
475
492
494
491
494
502
510
509
497
480
462
451
444
444
430
426
435
443
452
464
482
499
510
520
528
536
534
526
504
477
454
443
434
425
438
438
434
432
440
452
468
481
493
502
503
506
504
489
472
448
424
412
404
417
442
466
494
520
554
589
620
656
689
719
770
836
891
923
955
987
989
988
988
988
987
986
985
985
984
983
983
983
983
983
983
984
985
986
988
989
893
782
682
566
435
330
267
226
207
219
259
307
346
373
378
381
381
378
373
356
349
344
325
312
311
319
332
340
346
355
373
399
415
421
412
399
393
392
389
376
363
353
335
324
321
319
338
348
360
371
381
408
412
416
410
405
404
402
394
383
379
379
374
372
369
377
389
395
393
381
378
400
435
440
442
444
441
433
436
428
422
414
406
393
383
386
394
404
421
440
455
474
481
490
489
488
489
488
478
460
444
426
417
415
418
426
430
440
456
465
478
493
508
516
523
529
525
517
506
488
477
471
460
450
452
440
438
459
478
492
508
523
533
536
545
555
567
570
559
536
514
492
474
472
474
482
496
495
496
511
534
572
584
580
547
530
533
539
555
551
539
532
530
534
523
518
518
511
512
526
547
575
598
610
608
612
614
609
588
568
550
547
545
538
541
543
550
562
571
579
590
604
617
622
629
634
635
634
619
592
572
561
554
546
539
541
549
556
562
573
583
600
615
614
611
613
604
586
569
556
543
537
523
504
496
488
482
482
487
492
514
524
543
560
552
532
517
507
494
479
467
461
454
446
438
425
404
392
394
416
436
470
487
490
495
488
484
474
465
453
426
383
340
342
362
370
383
395
398
405
414
425
445
451
448
447
444
442
430
410
395
387
382
379
376
372
372
379
387
391
399
422
440
454
457
456
446
442
431
419
402
385
368
362
366
379
395
397
399
407
428
447
459
460
461
478
479
465
451
432
424
414
398
374
373
379
386
397
402
405
415
439
459
476
491
482
480
484
467
460
443
419
397
384
384
390
406
418
433
445
460
479
491
504
509
508
501
495
487
475
463
457
439
420
414
418
431
443
452
462
481
502
523
524
505
494
492
493
486
477
468
457
447
440
432
433
441
444
452
467
483
498
509
513
520
522
525
526
514
495
472
449
435
432
441
449
454
461
462
467
478
491
511
533
532
521
509
501
512
510
478
452
430
438
444
441
458
479
499
485
474
488
504
519
528
526
517
506
499
483
470
460
448
445
447
454
458
463
471
470
471
486
515
534
550
558
544
521
496
470
460
451
438
436
437
442
455
466
473
477
484
493
508
513
519
521
516
513
499
483
473
461
452
446
439
438
449
459
468
474
488
506
518
527
534
536
532
529
518
498
474
460
450
448
460
466
458
444
436
445
472
497
520
529
510
496
496
497
491
475
465
467
471
447
448
449
448
465
468
465
471
485
506
527
542
535
520
510
504
494
484
477
460
448
442
436
439
447
458
474
491
515
537
545
550
545
529
504
476
459
457
457
448
443
439
446
458
469
474
486
505
522
536
538
542
534
516
506
485
459
455
457
449
445
437
443
450
462
469
480
497
521
537
539
536
527
514
507
507
481
463
449
437
431
432
440
448
457
464
477
489
504
505
505
511
520
522
519
508
493
479
469
466
476
464
460
468
476
479
476
483
483
487
499
524
544
539
524
509
503
489
468
452
450
449
454
460
465
474
490
513
532
536
540
539
542
543
534
516
495
477
470
467
451
437
446
463
482
494
503
515
526
528
540
546
552
547
535
514
500
496
483
462
459
473
486
491
507
522
535
548
561
576
577
578
579
565
555
531
503
490
487
493
502
502
505
514
523
514
514
531
547
559
570
582
586
563
542
534
514
495
481
468
465
472
487
487
475
474
479
498
517
524
523
518
516
508
497
480
469
458
446
441
435
432
432
443
455
458
462
482
502
521
531
528
524
509
496
490
471
453
441
424
414
413
420
433
441
454
468
488
507
523
518
500
489
490
490
486
478
471
457
437
419
416
411
418
433
447
460
474
484
504
515
517
516
514
497
471
455
435
421
425
420
409
420
444
459
452
459
473
489
500
507
509
511
503
496
484
453
416
389
378
381
397
409
429
439
452
472
500
534
565
589
618
646
671
696
715
740
775
808
848
882
924
976
989
988
987
987
986
985
985
984
983
983
983
983
983
984
985
986
988
989
934
847
764
674
573
461
382
350
321
288
275
279
292
307
319
339
331
315
304
296
295
308
317
328
332
332
347
369
385
390
393
398
407
425
398
366
355
346
334
323
316
307
314
313
319
341
367
389
400
405
410
415
408
399
387
379
376
365
353
346
354
360
357
364
380
395
405
414
425
440
455
457
450
446
427
399
380
373
361
356
365
381
398
406
408
421
442
451
467
472
486
496
491
484
469
452
428
412
400
402
413
412
405
408
429
453
475
488
489
500
512
519
524
520
498
473
455
443
431
428
429
432
439
441
441
459
496
509
508
506
517
532
529
529
533
511
493
483
470
464
466
473
478
488
499
509
523
538
556
562
570
579
569
556
520
480
471
473
488
501
506
514
521
540
545
552
572
590
602
597
595
592
586
576
570
558
554
531
505
500
516
535
543
544
554
568
580
592
607
621
623
628
628
619
606
587
573
563
561
555
549
540
535
542
557
576
584
594
607
618
626
623
609
592
564
546
543
530
520
500
481
482
491
500
508
521
537
552
551
536
539
542
537
532
523
498
465
449
446
438
426
425
407
401
411
425
451
481
496
493
492
487
466
452
447
418
395
389
382
371
372
377
385
396
390
400
404
412
422
435
449
456
453
446
412
365
326
312
311
313
314
324
334
351
370
381
394
409
425
434
438
437
427
413
400
386
370
368
357
349
348
351
361
375
389
407
409
406
417
433
448
449
438
431
413
390
373
362
345
332
340
354
369
386
402
418
435
449
456
461
473
454
431
435
431
425
410
394
382
388
386
380
384
387
388
406
436
461
474
476
483
490
490
492
479
436
410
389
378
384
398
410
417
424
449
446
449
449
451
469
483
491
492
486
472
461
448
435
422
409
404
406
415
423
436
454
470
485
501
512
526
525
518
497
468
448
439
443
436
436
434
432
426
418
419
436
459
483
502
514
519
519
513
505
493
478
469
452
440
427
413
405
416
431
440
466
473
474
490
507
504
501
498
494
487
474
463
450
435
419
409
420
447
456
452
459
484
510
534
551
530
513
501
489
472
448
437
429
419
419
403
398
407
419
446
457
478
499
512
511
513
512
507
496
480
464
454
446
435
436
438
434
432
432
435
452
471
491
508
502
500
510
517
516
500
473
452
432
417
414
410
411
422
433
441
449
464
486
501
507
518
517
509
500
492
480
468
449
434
406
399
416
430
441
449
462
486
504
516
507
496
506
497
481
472
463
465
433
408
408
414
422
432
447
456
461
465
471
497
515
519
522
522
507
481
468
465
450
433
420
411
412
418
437
451
468
494
510
515
511
507
510
505
499
487
468
451
447
436
429
426
428
449
456
462
480
491
503
519
530
537
545
541
531
509
491
457
424
403
403
409
424
438
458
480
493
505
519
527
533
534
540
545
539
503
472
459
449
450
452
442
449
470
492
501
512
530
544
562
575
578
577
547
526
524
502
483
477
476
475
479
468
454
459
470
497
518
532
542
553
552
559
546
523
506
490
474
464
452
441
439
442
451
464
473
469
466
476
493
507
516
515
501
480
454
440
430
427
412
406
410
413
410
420
432
446
468
478
486
496
504
506
493
484
467
443
428
416
401
399
402
411
422
428
425
421
440
469
487
511
527
532
525
514
492
451
434
420
397
365
364
398
403
412
420
435
457
480
502
528
518
494
482
475
463
447
440
428
412
405
409
418
429
430
432
443
463
480
501
505
504
490
464
453
443
427
415
406
397
398
408
430
458
485
514
547
586
627
665
693
726
762
796
825
851
883
918
943
973
989
989
988
988
987
987
986
986
985
985
985
985
986
987
988
989
895
799
713
639
560
475
379
298
246
220
224
252
285
324
350
345
349
354
354
346
330
326
308
299
303
311
319
336
367
356
340
351
370
394
423
435
422
406
397
384
367
353
337
331
323
323
324
334
343
351
368
392
411
428
436
434
433
423
418
405
388
385
382
363
337
327
346
365
372
377
399
432
450
460
456
457
459
452
442
427
413
406
394
382
377
376
384
405
425
440
459
477
479
471
465
462
461
464
467
453
441
434
411
392
405
403
401
415
443
457
470
478
481
488
493
500
505
505
504
487
468
459
452
446
440
437
438
443
451
457
470
496
524
546
546
537
523
515
517
513
507
499
485
459
432
429
444
465
480
493
511
534
555
565
561
565
571
572
565
543
529
514
505
495
482
489
501
517
534
552
572
586
598
601
613
622
624
610
591
569
552
541
528
515
517
525
524
535
551
566
594
610
617
625
629
622
625
621
607
589
571
555
547
543
545
537
527
528
540
558
579
595
611
599
604
617
605
588
571
550
535
507
481
482
480
487
480
472
476
483
503
531
550
560
551
527
494
468
451
445
434
425
423
414
411
409
409
411
419
422
422
432
450
456
452
451
446
438
427
414
399
384
373
357
343
330
330
336
341
351
364
383
396
412
414
407
398
393
383
363
348
341
331
332
346
339
334
336
344
354
368
390
405
420
425
423
413
404
386
364
352
348
339
328
326
325
328
342
364
375
388
410
424
441
453
453
443
427
409
386
361
349
346
346
344
352
366
367
359
361
373
393
414
429
453
472
459
435
413
403
390
374
370
371
383
376
378
390
407
421
429
436
445
457
460
463
470
473
459
434
413
404
385
378
379
378
387
395
402
416
426
452
468
479
488
486
479
477
473
457
439
430
422
413
405
403
407
396
405
422
442
461
478
493
502
505
510
505
489
467
449
443
431
428
422
405
409
427
438
444
446
464
493
512
518
510
501
486
465
441
431
421
418
421
416
422
426
435
450
455
461
476
501
520
518
502
496
493
491
484
472
472
464
440
415
399
404
410
422
432
449
468
483
495
498
496
490
477
469
455
444
442
441
430
421
411
420
434
448
453
457
473
491
503
515
514
507
494
465
444
433
423
414
408
409
416
423
430
434
442
461
482
502
516
518
512
501
498
488
464
444
428
420
411
402
403
405
420
444
463
473
492
509
517
512
506
495
480
473
463
452
434
419
407
408
409
419
430
443
439
447
471
495
507
511
515
511
500
483
464
449
446
436
423
416
415
421
427
438
447
452
465
487
502
503
497
489
493
484
460
444
435
425
421
419
422
432
443
450
459
473
476
475
493
508
518
527
526
503
492
483
467
441
423
414
413
418
428
444
467
486
507
515
515
521
531
536
524
505
489
465
447
442
444
450
451
458
472
491
490
497
518
533
544
558
570
570
563
539
506
484
482
478
470
464
458
461
466
472
476
488
503
522
536
542
547
543
531
512
486
469
460
458
457
455
453
452
456
462
471
488
504
522
545
520
489
471
461
446
428
414
413
413
408
400
398
409
424
434
448
470
487
501
509
504
486
466
463
463
455
431
430
428
418
406
385
388
397
416
437
453
463
480
492
503
498
491
480
458
436
419
413
410
410
411
409
413
421
424
434
450
473
488
487
493
495
487
479
467
454
437
415
397
388
382
392
407
417
427
436
454
475
485
495
503
502
499
486
467
439
421
398
376
364
364
373
390
412
436
462
494
531
561
589
613
640
667
699
731
757
783
814
850
889
938
989
989
988
988
987
986
986
985
985
985
985
985
985
985
987
988
989
939
834
748
673
619
543
426
342
300
283
284
289
299
314
322
325
334
333
315
289
283
273
269
277
287
302
329
355
357
372
393
408
417
417
416
411
397
354
325
313
307
305
310
315
325
337
346
344
354
377
398
413
418
419
412
400
383
360
352
345
337
335
341
346
362
375
386
393
410
416
427
431
423
422
425
425
416
397
379
378
377
364
350
352
367
387
408
423
441
453
474
489
487
480
486
477
453
421
398
393
387
389
390
388
398
412
422
440
461
476
494
504
509
509
506
497
484
466
460
439
415
412
420
419
429
422
420
443
467
491
510
520
526
526
519
517
509
483
464
451
450
453
443
444
454
476
483
491
500
521
536
555
549
545
545
538
521
502
487
477
461
460
469
486
508
513
511
513
527
552
572
588
588
589
580
574
567
553
538
520
498
494
501
518
531
535
536
546
559
579
603
619
626
605
593
587
585
576
555
536
521
518
522
525
526
527
530
545
564
580
587
586
598
609
605
583
553
525
507
506
494
489
493
486
478
467
487
498
504
512
518
532
536
531
521
512
495
469
441
433
431
425
425
421
425
418
408
418
447
458
466
464
458
463
460
450
432
410
400
396
379
365
359
361
369
375
381
387
399
416
435
441
441
438
435
427
411
393
375
365
358
337
320
324
338
355
369
382
406
427
429
421
424
425
424
416
400
373
371
361
347
348
349
351
351
380
392
395
407
427
425
425
440
437
443
440
439
421
412
397
381
369
352
341
341
348
369
396
415
429
444
466
479
475
466
456
436
411
400
393
401
404
401
398
400
400
410
424
443
454
475
473
478
478
471
456
443
428
417
409
405
400
398
405
429
427
409
413
438
471
496
502
505
505
499
489
471
462
455
446
431
415
408
417
430
445
454
458
462
474
483
487
498
505
500
495
489
478
478
467
436
421
412
422
438
450
460
468
487
514
523
519
515
504
493
485
473
471
467
451
440
432
430
440
447
452
465
476
486
495
498
503
507
508
507
509
509
478
452
440
433
433
438
440
446
461
466
471
491
520
529
538
533
524
508
492
474
463
454
435
432
433
436
439
445
453
464
487
513
525
526
515
498
495
497
502
495
474
462
458
452
446
442
443
442
441
446
456
476
502
516
533
528
523
523
510
488
468
451
445
436
433
438
444
455
464
473
482
488
503
518
508
489
482
493
504
496
479
469
461
452
447
434
426
438
461
482
498
508
514
509
509
520
524
514
508
504
474
451
443
442
438
438
442
454
455
450
457
482
511
519
527
531
536
532
521
493
469
457
451
455
454
453
460
465
471
470
471
486
503
523
542
544
532
507
491
472
462
463
459
451
450
450
452
461
461
469
484
491
490
505
519
538
542
530
520
507
494
481
467
467
470
476
479
491
498
490
476
484
502
528
546
538
526
516
506
497
490
474
467
460
458
458
461
476
497
501
502
500
513
535
525
520
528
536
536
531
518
505
493
495
501
504
503
494
492
503
516
532
552
575
589
595
596
583
563
541
517
502
485
470
468
475
498
503
502
512
523
537
552
570
579
576
553
551
548
535
521
509
502
498
494
497
491
480
478
474
483
499
514
525
532
527
515
499
495
490
480
464
446
441
444
448
454
464
463
476
488
505
504
509
500
498
490
494
495
487
478
472
461
439
434
437
434
440
448
452
465
481
500
516
521
519
509
502
496
485
477
480
464
444
444
448
446
441
434
438
460
493
513
522
522
529
526
522
515
505
494
478
463
446
438
432
437
439
443
450
463
484
505
515
519
519
513
506
493
465
441
424
416
408
416
430
455
483
512
547
586
591
608
644
688
735
789
839
865
871
894
923
969
989
988
988
987
987
987
986
985
984
984
984
984
984
984
986
987
988
989
915
829
726
637
540
435
358
304
281
280
296
327
356
380
378
375
380
392
387
380
366
356
349
348
354
365
368
364
359
372
388
408
424
430
428
418
410
395
373
358
355
343
325
317
330
344
353
357
357
365
378
400
414
419
421
424
430
434
423
408
400
392
376
358
346
344
358
378
397
421
439
453
459
463
469
461
442
425
415
422
431
430
421
404
384
378
396
420
437
442
460
476
487
493
498
498
490
479
466
451
433
419
417
415
415
423
444
459
462
461
473
502
512
516
516
526
499
479
469
467
465
455
446
447
447
447
457
474
487
494
507
515
520
527
535
536
529
520
505
491
488
489
483
478
479
482
490
492
498
508
528
551
558
561
571
573
580
559
538
525
519
516
503
479
474
489
513
532
539
542
572
588
590
598
599
598
594
583
567
556
544
536
532
525
531
539
550
572
595
611
632
643
641
618
585
568
575
584
581
568
557
548
534
532
529
540
557
563
551
543
552
571
594
608
610
614
608
579
555
539
523
511
503
496
491
494
495
492
496
510
531
555
564
558
549
538
502
499
484
464
450
438
429
432
441
447
445
437
440
457
473
482
481
473
454
448
451
460
446
428
413
400
390
377
374
369
366
382
400
431
463
475
465
465
455
434
422
418
403
382
373
361
350
345
357
367
374
381
389
410
422
431
432
432
432
431
429
426
417
401
384
380
381
372
359
359
368
379
386
394
421
451
473
474
475
473
467
458
426
410
408
408
387
370
377
399
410
415
411
418
435
452
468
476
480
481
478
467
441
421
413
405
404
405
408
417
432
441
447
456
457
465
476
497
520
514
516
512
480
441
413
400
409
415
415
421
411
415
427
453
481
494
495
503
510
507
498
490
477
469
456
444
441
430
424
423
430
448
447
451
471
486
507
514
517
514
508
500
485
468
455
451
448
450
449
443
439
446
459
462
475
503
508
507
517
521
516
504
489
474
458
444
433
430
433
444
455
468
480
493
499
504
509
506
508
511
505
493
474
456
457
464
456
442
435
438
443
448
464
492
514
531
545
540
534
520
500
491
488
475
462
442
440
462
469
448
443
448
450
447
464
492
518
536
541
532
516
499
478
461
451
445
434
429
433
441
445
444
447
466
496
517
514
517
515
515
520
513
486
453
443
444
442
437
434
439
447
453
463
474
494
517
542
540
524
515
511
502
485
458
437
426
433
451
465
469
470
465
444
438
459
485
511
532
538
532
527
520
504
487
472
450
432
429
434
439
448
458
471
483
497
510
526
538
523
500
487
481
474
478
466
454
443
434
432
438
447
462
471
481
495
508
517
523
530
537
524
528
488
465
458
448
431
419
417
418
431
450
459
475
494
512
525
529
523
516
515
514
497
482
476
469
457
450
440
421
421
436
453
470
491
518
538
532
531
535
525
509
499
496
487
475
459
449
441
449
463
476
481
492
507
520
536
544
547
553
547
530
492
472
474
475
484
485
478
475
481
502
517
530
559
572
580
583
577
571
565
547
526
509
506
498
489
482
484
488
486
485
492
518
533
545
554
561
565
559
546
532
519
505
491
472
468
465
447
436
433
446
460
469
468
476
496
509
519
520
515
503
473
448
432
420
410
412
419
427
436
448
454
466
488
509
508
498
494
492
485
480
474
462
446
419
413
421
426
433
435
438
450
471
491
500
488
487
496
503
499
488
477
471
455
439
438
437
431
425
436
435
440
442
455
477
485
484
489
493
493
483
463
447
438
425
424
422
418
424
433
444
457
468
490
509
515
516
503
488
467
438
412
393
383
376
369
375
395
437
475
500
515
546
593
625
662
695
728
768
804
838
875
913
957
989
989
988
987
987
986
985
985
984
984
983
983
982
983
983
985
986
987
988
965
856
739
645
527
396
308
243
211
208
240
282
321
350
349
341
339
333
320
317
318
315
317
311
298
299
313
331
345
360
378
392
412
425
416
388
372
352
340
333
328
323
311
304
304
314
314
313
316
333
358
376
382
392
400
404
400
399
368
356
350
343
328
320
330
350
368
382
389
400
412
427
438
443
437
434
429
422
415
403
399
394
383
377
379
386
395
420
424
435
425
426
447
460
466
469
464
455
438
428
416
410
395
394
393
397
405
424
440
461
478
498
514
521
523
509
489
482
472
454
444
440
428
422
420
420
425
434
450
470
490
509
521
531
533
531
519
502
477
464
461
461
462
464
461
469
487
491
493
509
535
553
566
563
557
539
528
524
511
502
497
495
487
493
481
486
503
520
539
561
580
597
600
592
593
587
584
576
553
533
520
521
525
527
531
535
541
561
551
551
573
584
603
613
617
615
607
595
581
573
576
574
551
532
524
516
519
525
535
554
577
596
594
589
579
560
549
545
533
515
498
485
477
466
459
467
475
482
501
518
527
537
542
534
517
511
507
498
481
464
447
431
409
391
388
395
407
420
429
443
461
479
486
480
471
461
451
435
419
396
384
366
359
368
363
375
368
363
365
370
383
403
422
434
434
415
399
387
375
366
350
341
342
350
360
361
353
353
365
382
397
406
416
430
428
418
406
394
392
397
360
325
323
342
352
361
377
397
403
395
391
400
420
433
435
419
409
398
390
388
386
380
372
360
363
375
387
398
409
415
430
449
460
463
462
451
431
420
416
415
409
396
386
375
377
382
393
407
416
437
452
463
467
470
470
464
454
451
434
414
412
421
409
410
404
397
401
416
435
459
477
485
497
498
485
483
490
480
449
415
402
399
393
397
410
432
449
458
459
464
476
493
492
489
488
485
487
480
461
453
454
440
423
420
418
420
428
441
446
467
483
481
482
490
501
510
525
523
502
468
438
410
397
400
404
421
440
452
457
459
473
494
507
512
516
510
497
476
462
446
436
437
435
431
424
429
439
453
471
479
483
500
510
508
500
490
490
477
452
431
425
422
420
414
413
426
428
429
437
458
478
495
501
506
509
501
490
479
459
441
426
417
422
433
440
439
430
438
447
464
488
510
526
532
525
504
484
460
447
443
442
438
439
431
428
426
414
422
445
464
481
496
511
505
491
478
478
481
476
460
449
437
424
419
425
443
446
448
457
471
484
499
503
512
507
489
482
473
454
437
434
426
424
421
424
432
440
448
465
477
481
488
497
505
512
504
492
479
469
454
436
421
412
412
415
428
433
439
453
476
501
519
522
533
540
532
516
484
449
422
420
423
427
427
432
431
432
438
450
463
483
497
510
519
510
498
487
484
476
453
436
431
424
435
434
418
426
437
457
488
502
498
494
498
511
510
501
479
457
446
442
441
440
435
434
441
447
458
471
491
500
509
514
521
522
517
508
492
483
477
469
473
470
448
440
440
449
469
491
512
517
524
529
533
535
524
501
475
464
464
468
462
461
461
471
479
489
490
494
514
536
556
573
580
578
573
556
531
493
469
466
468
474
481
480
482
488
485
479
487
520
551
569
574
564
559
535
526
518
479
452
437
428
425
417
429
435
435
436
439
439
450
483
513
532
532
524
495
468
453
443
431
422
413
414
424
437
443
433
437
456
479
484
482
488
493
491
478
453
430
421
410
406
410
418
418
412
409
419
442
466
480
490
488
485
469
456
445
432
428
432
423
412
412
430
451
455
453
457
464
466
468
468
443
450
459
471
462
451
439
426
417
413
421
421
431
436
442
455
475
478
475
466
451
450
469
474
458
431
422
413
388
361
357
365
382
408
429
480
547
615
657
681
708
740
770
804
831
840
872
914
958
989
989
988
988
987
986
985
984
984
983
983
983
983
984
984
986
987
989
964
881
741
618
517
410
325
275
244
229
223
227
251
277
298
310
334
351
344
329
321
308
294
296
300
310
318
332
352
368
378
362
373
392
393
381
369
362
355
341
322
301
291
283
279
278
287
294
315
338
365
382
389
401
415
418
403
389
351
340
338
329
322
329
340
352
368
371
383
399
415
428
431
438
441
452
457
446
424
396
370
350
347
349
344
347
366
378
399
423
442
464
477
460
437
420
421
438
456
463
446
424
394
378
375
398
387
374
378
407
450
490
530
534
532
511
493
465
436
420
409
411
417
425
430
428
423
431
460
470
500
544
539
537
542
528
504
488
485
480
475
469
453
441
435
434
451
485
506
519
552
572
577
580
578
560
543
527
502
480
464
468
477
479
481
499
513
522
533
561
578
574
552
547
565
587
595
581
549
489
468
490
519
533
521
515
515
514
535
561
592
608
617
626
634
629
619
589
561
547
535
528
518
513
517
519
532
557
576
570
576
578
577
589
599
593
580
557
530
519
514
490
466
451
460
478
490
497
505
518
539
543
544
530
519
505
493
466
444
415
401
401
393
387
391
400
412
435
450
453
447
478
491
468
472
463
429
403
378
355
351
339
337
340
350
363
374
382
392
405
426
442
448
449
443
443
421
388
363
353
343
327
325
316
326
349
364
369
380
382
387
409
429
438
445
432
420
402
373
356
352
361
367
359
356
352
350
357
379
402
401
384
390
401
384
377
390
415
435
428
390
367
350
341
344
353
370
387
400
413
435
456
462
457
452
452
459
447
427
411
383
364
358
365
376
387
396
405
418
437
451
457
462
464
468
466
462
453
437
421
414
408
404
409
415
420
418
422
428
448
474
498
516
504
498
479
464
447
432
418
404
396
390
388
394
400
421
449
457
470
485
497
486
473
480
494
496
479
466
462
461
443
404
394
397
396
415
439
470
497
519
527
521
524
513
490
473
462
457
434
400
386
376
373
396
437
458
467
470
475
485
493
499
513
517
508
496
475
454
425
413
431
446
448
449
442
442
438
441
455
475
489
495
491
494
500
486
466
445
447
428
409
406
417
424
446
458
461
467
483
492
502
503
501
489
462
433
429
436
424
423
408
377
397
416
426
412
446
479
506
535
531
513
503
503
501
498
486
469
457
437
421
409
398
404
413
421
427
439
465
478
488
495
502
505
499
484
466
445
428
434
448
439
441
442
430
418
423
452
482
496
508
515
513
512
504
485
464
443
419
409
422
430
436
433
433
433
438
459
480
489
485
493
496
494
498
504
485
459
443
442
429
426
445
458
458
468
467
450
453
463
464
464
476
489
491
497
491
477
461
426
410
409
415
432
457
472
480
481
479
482
500
516
514
513
520
515
492
476
458
447
428
422
431
436
432
439
433
452
472
491
494
490
488
490
493
483
475
459
455
459
464
467
474
471
458
472
489
489
490
478
476
501
524
533
529
509
467
417
392
404
436
463
474
498
503
515
520
523
533
556
553
542
530
526
538
548
531
501
485
472
468
469
467
458
462
478
491
512
545
573
582
566
543
531
520
525
514
498
498
497
497
488
480
471
464
472
484
490
494
500
503
496
489
503
522
518
500
492
477
445
415
410
422
443
452
449
447
451
470
469
474
485
488
481
469
466
453
441
426
405
396
395
411
416
414
408
404
427
460
490
501
522
531
504
493
491
479
470
453
434
416
399
392
387
399
417
417
440
444
461
485
506
497
474
454
436
426
400
402
439
472
467
456
439
423
420
430
444
467
490
503
517
523
521
504
481
453
432
413
399
395
393
396
398
385
377
383
403
433
465
474
488
498
504
511
526
533
549
572
591
619
657
711
756
815
886
947
978
989
988
988
987
987
986
986
985
985
984
984
984
984
984
985
985
986
987
989
951
868
785
702
588
445
331
256
213
218
231
237
232
245
259
288
294
275
276
288
318
354
375
385
394
388
392
379
358
340
326
318
317
325
321
312
316
327
333
336
334
350
372
390
386
376
368
340
341
352
370
365
335
315
327
332
335
322
334
340
366
393
419
436
443
437
415
396
370
342
328
362
379
375
379
374
392
393
400
414
425
437
444
435
430
432
439
454
434
408
384
367
352
339
331
368
419
452
459
453
454
457
467
482
497
485
485
489
480
450
430
434
434
425
412
399
407
418
440
445
444
465
487
502
520
532
535
538
535
516
472
430
411
411
421
431
456
477
495
508
509
513
503
499
514
524
521
501
488
480
488
501
502
489
493
487
466
451
463
490
505
521
546
556
561
560
554
534
539
552
539
532
507
533
542
537
533
537
541
542
552
564
578
584
585
615
633
634
616
594
590
563
538
520
503
503
509
515
533
546
561
582
624
641
624
606
580
558
563
560
556
555
539
522
506
494
503
530
543
534
527
532
541
558
551
545
535
531
516
510
502
500
483
466
450
411
395
398
419
439
451
450
448
452
451
474
486
472
452
428
408
397
384
367
362
363
368
367
377
392
399
424
442
447
438
442
436
413
396
386
374
353
343
338
339
334
320
323
338
353
368
381
401
422
432
430
435
435
396
360
346
333
322
311
317
343
338
346
359
348
366
391
413
423
436
438
432
419
388
361
352
363
381
381
355
344
356
365
356
354
351
357
388
428
448
444
428
421
421
417
405
404
389
370
365
360
368
360
360
391
424
434
438
458
480
492
485
471
453
425
397
384
379
378
388
392
399
405
414
420
424
433
438
458
477
487
481
474
472
453
426
414
399
390
383
376
377
383
386
409
448
483
508
527
522
498
455
406
412
424
441
475
475
455
429
421
431
435
431
425
463
493
519
523
509
489
480
465
451
437
429
435
431
422
424
424
431
430
441
455
469
489
484
476
478
475
482
487
487
461
444
435
432
421
412
412
404
426
439
466
485
482
484
488
485
490
503
495
484
451
418
417
443
438
437
454
453
434
436
455
469
483
504
521
520
513
492
463
443
442
450
462
466
457
446
425
407
416
422
388
383
435
467
492
489
486
482
470
469
461
459
452
423
407
405
417
417
425
447
460
457
470
488
504
514
502
486
475
461
441
427
427
429
437
442
449
444
435
435
441
462
487
486
463
444
449
451
445
419
422
459
469
452
445
430
437
451
459
443
434
458
498
530
559
550
515
498
494
492
470
440
423
414
414
424
426
417
410
413
415
447
491
520
521
520
513
484
484
473
464
479
479
462
439
422
419
426
445
462
477
487
500
509
526
536
526
506
488
481
456
420
407
428
456
473
491
501
506
496
492
485
476
476
486
491
497
509
513
508
503
501
487
457
428
428
430
440
467
506
514
526
534
544
541
532
534
525
523
518
518
503
518
522
518
508
508
504
480
461
461
501
528
545
533
519
509
495
493
505
499
480
463
430
404
379
366
361
385
456
480
483
490
504
508
506
496
477
453
436
438
432
432
456
477
458
447
447
447
457
470
489
485
484
458
452
458
458
451
435
419
416
391
370
375
404
428
425
416
410
420
442
476
480
472
490
509
513
495
471
450
432
409
387
386
406
424
449
465
429
405
398
401
423
449
502
512
513
517
501
475
450
439
445
436
427
438
418
413
425
440
456
465
458
459
467
466
481
492
496
465
433
426
434
452
492
520
542
574
607
644
702
776
841
893
943
982
988
989
989
989
989
988
987
986
986
985
985
985
985
985
986
986
987
987
989
944
843
750
642
534
421
319
248
193
169
173
174
184
230
281
321
356
386
397
404
402
348
339
346
354
366
353
322
307
295
287
294
311
332
363
389
407
438
453
432
418
407
402
392
367
347
328
314
316
311
311
322
326
334
344
365
412
463
487
488
465
439
396
375
363
363
376
383
345
332
368
395
389
398
421
439
437
436
451
455
472
478
452
420
402
399
422
400
376
376
391
404
393
385
405
424
459
487
510
520
519
501
481
467
448
423
390
374
384
398
418
427
451
470
472
491
514
528
530
526
516
515
516
509
492
464
456
461
468
446
439
437
447
464
490
493
514
532
548
548
538
517
517
528
517
499
479
470
478
488
487
479
470
458
464
485
518
561
598
621
620
553
477
458
495
506
516
552
570
559
551
544
548
548
550
572
593
601
613
626
621
605
586
579
570
553
545
536
541
525
522
539
557
567
576
590
605
629
637
645
648
649
651
619
582
553
537
520
511
507
511
505
513
525
549
561
564
558
570
580
558
542
538
540
531
504
489
498
511
521
517
518
508
485
469
451
453
458
465
502
539
543
518
480
444
420
407
387
370
368
362
366
373
384
394
408
416
436
458
467
467
448
411
389
403
389
372
360
346
350
358
372
381
352
349
378
414
432
428
409
390
354
365
400
393
376
374
340
322
312
306
317
327
307
310
366
420
440
429
439
453
426
403
402
413
405
397
379
370
369
374
384
359
333
339
356
387
426
430
434
435
425
411
377
331
325
341
367
389
396
397
398
404
405
389
369
385
382
404
444
493
505
494
468
431
403
385
377
367
342
344
403
435
437
436
449
464
471
475
477
482
477
466
446
423
419
422
396
387
384
393
397
405
428
442
475
498
499
497
496
498
490
482
457
435
469
471
459
446
422
406
414
423
423
418
430
447
476
484
483
486
481
479
503
506
496
465
441
445
445
416
404
402
408
415
436
464
486
505
526
533
509
488
455
417
393
405
429
435
446
463
468
472
459
448
453
477
501
499
518
525
510
465
438
406
420
457
457
442
450
434
423
419
407
418
479
539
556
534
508
490
474
506
483
459
444
444
449
447
417
413
421
437
451
434
448
464
504
499
495
494
486
490
497
492
472
448
434
430
445
458
442
428
427
446
470
475
495
497
488
474
456
433
414
372
386
438
464
461
455
454
453
441
442
461
472
464
481
512
509
485
495
495
477
456
444
458
440
413
402
421
451
459
434
419
425
421
434
513
548
537
493
468
460
455
472
500
483
443
422
431
461
476
475
471
466
456
467
504
518
538
531
508
490
470
463
462
459
467
469
463
438
418
420
450
510
545
548
556
569
567
543
522
515
493
455
457
487
473
459
448
474
476
489
506
524
543
538
540
542
543
534
541
530
534
515
469
449
459
480
490
477
463
473
491
496
494
474
456
516
567
587
564
524
485
436
410
388
382
363
353
362
424
475
476
475
491
510
497
482
452
410
417
429
433
458
465
431
381
344
345
486
551
534
511
498
508
513
505
501
500
504
491
446
419
414
408
390
365
359
378
391
411
437
457
473
494
510
523
534
503
461
427
424
419
414
394
378
368
364
372
436
464
473
467
464
434
442
492
515
538
537
521
500
461
441
426
414
388
379
392
393
343
329
358
423
480
494
503
515
527
531
532
510
473
467
489
534
582
636
673
708
748
787
845
932
989
989
988
988
987
988
987
987
986
985
985
985
985
985
985
985
986
987
989
948
885
844
766
707
624
489
350
239
167
173
226
238
235
265
288
306
303
288
289
282
263
253
279
317
358
392
356
392
428
380
379
362
354
339
332
342
351
352
360
379
385
379
371
381
348
313
312
341
351
387
396
371
355
354
347
339
348
364
360
328
372
444
505
513
479
437
414
349
316
307
343
402
414
408
408
418
424
409
397
408
429
424
426
448
452
437
469
462
447
430
411
383
339
336
373
420
436
419
437
469
501
515
500
447
395
376
448
499
515
481
453
423
395
387
385
391
397
408
426
439
471
505
544
543
543
524
501
473
459
425
407
440
490
525
526
493
475
480
491
510
529
532
515
475
510
514
492
420
443
561
553
529
514
497
491
494
503
520
526
536
546
521
508
556
589
602
608
604
593
559
520
476
457
471
494
513
543
564
569
578
597
610
606
613
621
600
566
553
546
495
474
499
528
550
566
568
541
529
521
521
567
627
668
675
667
631
607
583
564
547
503
432
340
345
428
553
641
635
563
568
588
578
560
525
507
493
489
494
496
485
473
467
460
476
481
477
473
469
463
454
424
427
469
538
558
517
476
441
417
407
407
387
369
361
371
385
392
392
389
394
389
373
370
402
436
449
432
394
388
414
413
368
331
325
345
348
338
331
332
366
428
428
428
434
425
398
376
358
343
351
357
352
347
330
314
279
284
301
300
385
482
487
463
467
497
488
470
437
394
358
329
306
314
332
335
353
375
389
392
388
371
382
408
427
458
456
469
438
434
434
417
390
356
346
352
371
381
388
400
427
453
470
462
457
454
462
453
443
435
424
432
395
360
354
375
397
406
424
422
436
434
428
440
484
503
481
438
428
401
378
404
393
403
431
434
445
438
441
457
461
462
483
498
509
511
496
483
456
431
440
445
452
462
461
460
447
429
402
383
421
475
504
512
505
484
463
449
436
439
424
434
420
407
407
427
441
449
447
452
474
494
512
519
525
519
502
491
478
463
452
439
414
397
394
407
419
435
445
457
475
496
513
526
534
528
510
487
463
456
452
452
439
430
426
425
421
423
413
430
476
497
488
493
479
479
502
501
483
459
441
438
441
433
421
423
420
433
444
448
449
457
485
528
544
530
505
481
473
462
454
439
406
382
398
423
449
456
450
462
475
502
508
508
513
517
504
490
470
448
438
427
422
423
430
433
433
434
438
444
469
487
509
521
522
519
511
498
480
461
453
443
422
415
432
460
450
435
442
450
469
498
520
527
518
486
467
449
432
426
432
434
427
419
430
430
425
428
440
465
497
521
532
528
526
512
499
499
466
440
439
432
429
426
410
399
420
446
466
475
486
500
521
529
529
528
516
505
482
455
433
430
424
424
417
416
435
459
467
473
491
509
538
541
543
545
521
503
487
466
453
444
434
437
446
473
489
500
510
530
550
561
565
565
579
585
573
548
515
490
477
470
461
466
473
476
487
487
489
515
527
535
562
570
571
537
514
513
500
485
459
446
448
454
458
477
481
463
448
454
480
501
523
527
528
521
508
480
468
454
438
424
396
384
392
416
434
444
442
452
469
489
513
510
502
493
479
494
468
435
433
427
415
405
395
407
423
435
444
453
465
474
490
492
496
495
483
473
461
450
436
426
409
411
414
421
428
434
439
453
466
487
494
489
495
505
518
529
515
494
449
387
345
337
359
395
419
430
433
440
456
481
505
500
485
481
481
478
459
437
411
393
377
369
383
398
406
414
401
409
454
509
543
571
577
595
616
629
636
658
684
724
757
803
861
913
971
989
988
987
987
986
985
985
984
984
983
983
983
984
984
985
986
987
988
966
881
786
692
602
489
398
344
299
264
252
257
278
289
290
285
277
289
302
309
327
339
336
338
330
330
332
352
361
360
363
375
367
349
337
336
336
311
291
270
270
292
314
337
354
371
393
401
396
388
385
392
384
367
355
351
341
336
320
312
328
340
340
341
353
384
413
431
442
443
433
423
414
402
385
374
370
370
365
367
371
379
394
384
392
428
437
448
470
479
482
478
465
439
408
395
387
387
392
395
393
404
420
438
448
456
456
447
447
462
481
481
472
457
437
427
417
405
406
412
437
445
438
458
471
476
470
472
477
485
492
498
503
488
474
466
457
449
449
453
462
467
464
471
488
514
531
545
540
543
546
544
542
519
497
494
481
465
469
483
506
520
513
508
527
561
564
562
563
563
558
555
552
548
546
539
525
514
513
513
515
516
518
516
535
563
592
618
619
613
608
593
577
558
550
552
547
536
520
518
531
535
535
537
542
557
576
602
615
621
623
613
572
510
475
472
481
493
499
501
492
495
503
505
518
536
555
564
558
551
537
524
514
486
463
450
439
433
423
419
423
423
409
403
423
448
474
483
488
500
492
450
432
430
430
419
409
389
372
352
359
360
356
350
369
399
421
431
439
440
426
405
396
381
365
358
350
345
338
335
341
346
355
364
373
391
411
421
423
422
421
419
411
400
391
368
339
312
315
329
345
365
381
385
395
409
422
427
429
421
399
392
396
394
392
382
367
354
344
359
364
370
382
389
402
435
466
477
474
470
477
465
462
461
432
390
373
352
322
332
351
373
396
412
420
433
455
475
488
481
475
463
453
438
421
413
401
399
401
402
401
401
411
427
440
458
469
487
489
475
475
476
469
444
418
412
419
403
389
377
391
420
442
455
458
461
474
489
492
487
485
483
474
451
429
424
424
434
432
427
442
454
459
450
450
473
507
520
511
507
497
483
464
448
445
445
439
433
424
429
441
445
449
451
452
459
472
494
526
524
516
511
492
474
449
421
402
393
398
420
440
446
445
450
466
486
507
528
542
536
521
505
487
462
435
420
404
390
377
389
404
424
460
463
468
479
490
500
506
508
517
523
532
529
495
430
389
365
359
388
416
423
422
424
448
476
497
514
518
511
504
500
490
466
439
420
411
414
417
424
427
433
446
456
461
482
493
506
513
518
525
509
487
454
428
409
410
409
419
431
435
433
436
443
450
462
479
496
499
501
501
496
487
473
452
443
443
433
421
427
437
412
394
409
454
486
516
530
526
514
502
489
482
461
451
442
431
412
423
436
441
439
460
441
439
460
481
490
500
511
517
515
503
485
465
450
439
423
418
423
435
449
458
460
465
475
490
510
517
515
511
504
483
470
460
447
418
400
407
429
441
449
460
466
481
494
519
536
544
539
533
527
517
494
476
482
472
460
447
435
433
446
463
461
448
460
508
537
542
541
541
556
523
486
469
470
472
470
470
482
506
528
517
504
507
523
545
554
556
552
547
542
528
503
464
438
436
455
471
488
475
474
487
487
490
515
528
542
550
547
546
543
534
515
485
466
447
429
416
409
406
406
416
429
442
464
484
498
506
503
509
496
458
432
428
432
429
418
403
399
403
414
429
443
455
476
486
482
493
486
481
490
464
443
443
444
441
433
413
398
394
404
413
426
448
476
492
503
515
518
494
463
450
431
406
408
396
391
402
409
413
420
432
445
464
475
465
467
474
495
507
504
490
470
452
447
434
412
397
395
407
416
432
440
451
469
486
483
467
463
444
429
415
404
412
426
437
460
474
490
513
547
578
595
630
698
780
860
925
961
981
989
988
988
987
987
987
986
985
985
984
984
984
983
983
984
984
985
986
987
988
960
840
710
587
449
333
246
194
171
193
211
235
263
306
354
351
331
340
352
366
376
372
351
326
309
286
279
284
297
308
313
322
332
349
365
379
378
378
380
375
377
367
348
347
345
331
321
324
321
290
249
265
303
334
368
402
419
412
403
396
393
384
366
353
341
339
344
353
357
357
356
359
361
377
404
434
456
447
430
423
424
432
433
411
399
399
391
385
373
372
377
391
405
426
450
464
466
470
473
473
472
460
437
423
417
412
396
386
393
402
405
420
434
452
478
496
517
509
496
490
486
470
441
425
426
431
434
432
437
449
456
457
467
482
509
538
552
536
511
484
478
481
487
481
480
472
455
468
478
479
487
481
469
489
513
541
564
563
563
571
579
559
530
503
495
488
474
473
481
494
506
523
547
551
559
576
594
600
601
594
582
573
559
549
546
532
523
526
536
548
541
536
543
556
582
595
602
608
611
606
593
575
560
536
529
526
530
532
522
522
526
529
525
524
542
566
579
585
584
573
545
527
513
502
495
479
470
470
466
469
474
497
504
508
517
497
474
465
463
472
472
457
438
416
397
386
382
376
386
382
376
384
398
429
459
466
465
459
458
456
439
408
382
368
356
343
324
333
347
352
366
374
368
373
381
403
424
416
425
424
417
405
384
363
356
354
339
339
330
319
313
337
362
379
395
409
416
427
420
415
406
402
399
400
382
363
357
354
346
349
356
372
371
383
409
426
439
451
454
455
456
443
428
413
392
363
327
310
322
337
360
382
388
393
412
444
467
471
469
458
451
435
409
399
390
388
375
376
384
394
404
413
412
432
455
476
494
498
496
489
478
471
448
413
391
383
379
392
404
427
442
425
424
444
467
491
514
523
514
487
467
453
438
423
419
421
412
410
404
406
411
426
448
467
478
497
516
518
506
494
487
480
468
439
415
403
388
387
397
420
440
451
460
470
485
492
500
504
511
509
497
480
462
451
444
437
426
430
430
441
441
440
450
466
486
507
520
523
513
503
505
485
461
449
444
441
432
422
430
439
443
455
475
482
498
487
493
511
527
527
517
493
476
460
433
410
385
372
394
415
432
442
451
465
486
502
510
519
514
516
510
492
469
445
432
422
417
419
430
443
453
464
473
475
478
483
495
511
501
492
485
476
471
460
454
447
442
436
437
417
415
426
445
469
494
505
506
527
527
519
512
510
485
459
456
443
420
415
419
420
427
434
455
475
496
507
506
501
506
498
492
484
468
451
442
429
415
425
438
441
450
450
464
482
499
497
502
506
514
518
514
506
482
457
443
430
423
413
412
425
445
468
490
499
504
513
519
509
499
500
508
507
484
467
453
435
432
428
445
455
443
446
457
479
513
528
531
537
533
530
509
492
473
470
473
464
461
462
470
475
468
470
478
494
509
507
506
515
538
541
537
523
497
474
458
466
463
467
468
471
479
500
509
516
524
535
547
550
548
