318
345
359
357
338
330
347
394
428
430
437
430
403
380
368
357
356
353
347
332
313
333
352
359
343
331
340
367
388
407
431
435
432
426
413
388
373
365
341
327
321
337
344
357
372
386
406
427
444
455
460
449
437
423
412
395
373
360
357
358
358
365
373
386
396
398
418
443
463
481
480
470
465
461
442
415
398
395
399
386
375
387
401
412
419
416
415
439
458
474
477
474
470
467
464
455
436
422
409
390
381
384
400
410
414
426
447
480
498
499
499
502
499
496
483
460
441
421
405
393
394
391
403
418
429
439
442
466
492
512
521
527
514
505
494
474
458
453
437
421
413
398
403
411
416
435
448
467
503
534
525
508
495
488
482
466
448
436
430
415
411
413
424
433
440
453
466
485
500
501
499
496
492
493
487
469
445
433
416
402
406
419
435
438
444
456
477
493
500
491
494
506
508
503
483
445
418
419
418
406
392
391
403
420
438
447
456
476
503
526
535
532
525
513
501
481
459
443
418
399
396
394
409
421
438
454
468
484
507
524
529
525
522
512
496
473
451
425
411
423
423
431
441
445
443
445
463
487
514
529
535
541
540
530
518
503
480
461
442
434
433
433
444
459
478
492
500
516
536
553
558
558
551
544
535
511
499
490
472
454
451
456
450
444
460
459
468
490
512
543
556
560
547
532
515
486
468
462
435
415
413
412
419
422
423
428
445
474
487
495
497
507
507
494
475
448
429
411
404
396
397
402
408
415
425
432
451
473
493
504
505
508
502
496
485
459
433
427
410
399
403
395
385
370
378
400
435
471
504
520
516
511
495
481
460
439
420
413
403
412
400
397
410
423
433
440
455
470
489
507
518
518
499
464
437
421
421
424
415
412
399
383
391
409
428
444
458
477
500
510
509
483
460
444
440
438
435
443
443
452
465
486
511
540
577
595
638
707
780
832
877
924
965
989
989
989
988
988
988
988
987
986
986
986
985
985
985
986
987
988
989
967
889
790
688
597
510
406
313
253
221
209
225
241
258
285
308
322
356
377
387
383
370
364
353
339
333
331
329
338
330
317
319
318
331
353
372
393
419
429
435
435
430
422
411
393
350
329
319
312
318
332
346
353
358
366
388
404
420
426
429
427
432
435
431
417
400
381
362
344
337
350
365
378
393
405
426
429
443
464
473
478
478
467
432
402
386
388
388
384
386
389
396
396
401
408
425
453
479
498
509
513
507
496
480
456
437
417
420
411
392
389
407
419
429
434
454
484
509
540
551
529
521
518
503
472
445
434
432
424
422
434
446
447
460
471
483
511
535
544
552
544
539
538
526
510
505
507
491
464
446
441
439
455
482
499
526
545
555
572
591
591
586
582
569
547
515
506
509
507
488
479
485
499
517
529
550
572
590
605
617
614
614
614
597
565
541
532
529
523
519
526
539
551
561
561
577
605
626
628
626
621
617
618
604
580
566
550
535
523
515
528
537
542
541
530
534
550
572
593
605
599
588
576
554
527
504
489
478
468
468
467
452
454
462
457
466
487
508
523
535
512
489
481
470
451
437
421
408
399
377
389
415
416
421
426
429
425
413
414
431
442
454
442
414
383
359
350
337
320
314
320
335
354
364
367
377
392
411
444
446
434
412
403
386
369
353
338
327
321
327
335
346
345
351
367
388
404
415
424
423
420
422
422
402
380
358
349
339
323
326
331
341
351
367
376
392
415
435
452
457
457
453
451
430
400
379
371
360
351
345
345
349
353
370
396
411
424
446
469
482
470
456
447
437
419
402
396
387
379
379
384
394
407
402
404
430
456
480
483
473
461
464
468
464
461
444
436
417
395
386
386
383
383
400
412
437
467
491
495
496
501
504
497
480
458
442
432
426
420
417
424
439
461
463
455
458
466
474
488
508
515
510
498
475
449
432
425
411
403
401
411
427
439
451
454
466
483
505
517
520
516
508
497
484
469
462
437
419
419
415
417
425
425
434
443
467
487
508
525
532
519
512
498
473
455
455
434
415
405
402
412
419
430
444
446
457
475
501
505
510
497
487
488
473
434
423
429
439
446
442
444
447
435
423
427
442
471
498
514
522
517
513
504
491
469
450
434
421
410
406
417
419
418
426
434
453
477
497
526
533
513
503
497
489
469
446
431
421
417
417
422
426
430
437
449
466
489
508
527
528
521
510
495
481
461
441
429
418
412
412
421
427
434
446
449
465
493
514
523
510
500
500
510
489
463
449
443
435
426
425
432
440
441
447
458
471
489
494
517
533
553
549
548
505
462
433
411
415
414
412
416
430
433
437
453
480
509
531
545
535
524
521
531
529
492
458
453
460
452
447
441
443
461
490
509
519
537
551
564
567
565
560
547
524
504
484
475
470
466
456
447
464
479
483
478
492
512
531
543
550
550
552
545
526
495
472
461
442
434
433
446
459
443
430
431
441
465
491
496
503
509
507
496
480
461
441
426
408
400
398
400
408
424
435
426
446
451
469
492
507
525
509
490
472
453
443
427
394
377
394
407
410
407
407
415
436
469
490
505
512
504
494
484
470
449
429
413
389
375
379
390
406
416
426
438
454
474
493
496
501
504
505
498
472
441
417
413
405
400
400
406
415
414
407
404
422
454
477
482
477
464
446
433
428
418
405
402
406
414
442
463
493
523
557
591
633
684
748
820
873
916
942
967
989
989
988
988
988
987
986
986
985
984
984
984
984
984
984
984
985
987
988
989
873
736
623
514
396
292
222
182
177
197
227
258
305
338
346
350
358
344
344
375
377
344
325
317
298
286
287
300
308
315
323
316
333
359
380
390
383
374
373
365
356
335
320
307
298
296
298
307
319
325
331
340
354
377
393
401
406
412
406
397
391
375
361
350
342
331
326
332
342
354
364
368
388
415
428
436
441
452
451
431
415
389
379
376
364
356
369
378
381
378
379
383
401
431
459
480
483
482
471
460
451
426
405
396
395
389
395
401
412
419
426
432
448
469
495
511
515
517
509
493
479
464
453
438
413
400
402
417
432
441
441
449
481
484
496
528
528
518
508
500
493
480
462
452
442
439
439
445
461
473
484
489
498
519
540
556
569
569
556
547
536
525
501
485
475
470
458
456
467
488
506
520
537
564
594
607
605
591
579
579
571
552
535
519
506
495
495
505
512
515
528
535
563
582
579
566
571
588
602
612
592
559
538
525
517
506
513
514
507
508
529
547
567
572
564
557
558
560
571
567
550
527
501
486
470
461
454
449
457
460
463
474
487
501
513
521
533
530
509
488
477
446
415
404
395
388
384
390
402
410
424
416
426
449
465
474
486
479
465
456
444
407
373
351
337
334
333
341
352
355
361
371
385
409
427
430
430
419
415
415
405
385
374
360
352
347
331
333
340
350
354
359
378
400
421
439
463
465
444
421
404
381
354
345
344
341
337
356
363
366
378
382
395
419
435
444
456
452
445
443
426
410
400
379
363
355
351
359
366
372
390
402
421
444
464
475
480
478
465
456
444
423
394
383
378
381
392
394
394
395
398
409
427
455
477
488
488
481
472
464
455
436
424
407
396
391
388
400
414
425
430
431
449
483
505
511
510
501
502
498
471
442
419
407
388
378
372
375
395
414
436
450
467
479
486
494
500
503
503
497
481
469
445
426
415
403
408
415
425
432
426
428
455
479
498
520
527
523
502
493
484
452
435
410
402
408
425
430
429
430
438
445
463
480
495
505
512
523
525
502
476
453
430
424
415
410
408
411
421
429
434
446
468
490
518
519
515
516
511
509
488
454
427
413
404
398
399
400
411
423
436
443
454
475
501
522
533
534
520
494
451
425
421
421
411
410
403
398
419
420
429
442
464
480
497
508
520
525
517
508
482
461
441
417
401
396
388
384
397
425
448
465
481
504
517
513
516
511
500
487
468
452
437
427
415
406
401
410
418
434
438
447
461
484
514
523
512
511
509
500
483
462
447
433
422
413
406
405
416
426
443
452
464
487
510
517
533
528
519
500
480
463
443
435
423
419
410
408
411
420
432
449
478
499
519
526
529
530
523
507
492
472
460
457
444
440
445
456
449
458
472
487
496
493
495
498
510
537
545
526
495
466
462
464
454
451
443
450
465
476
485
495
511
530
551
565
572
569
559
549
532
506
490
484
470
460
460
463
457
459
464
468
489
518
538
546
550
543
539
536
520
499
477
448
421
411
415
421
425
417
417
429
458
486
500
520
505
491
484
483
472
445
424
415
412
414
412
404
401
394
404
425
469
508
502
508
510
510
510
497
472
438
418
414
413
400
392
394
404
418
425
436
463
497
516
498
486
495
506
505
475
442
428
424
402
384
380
390
405
419
423
416
426
447
473
482
493
501
499
496
479
453
432
425
414
416
420
425
426
420
421
424
433
449
463
469
472
467
450
435
429
440
443
445
453
459
472
498
533
567
603
645
700
769
840
902
958
989
988
988
988
988
988
987
986
986
985
984
983
984
983
983
984
984
985
986
987
988
982
858
740
615
479
354
262
200
176
181
201
226
247
273
307
341
371
388
396
397
382
371
355
339
324
316
304
293
277
271
276
289
307
329
350
366
374
381
387
381
371
364
338
313
294
291
290
288
294
300
312
318
320
330
354
380
405
416
424
425
419
408
386
363
338
333
330
322
313
321
333
350
362
378
394
411
431
443
451
455
455
455
426
380
355
367
369
367
370
372
371
380
385
399
429
454
470
466
463
462
460
453
434
416
402
399
389
383
384
398
415
414
422
434
460
490
513
539
528
493
455
440
444
432
416
414
409
412
420
425
427
428
438
457
465
491
521
533
537
538
534
524
507
486
468
459
446
441
441
447
456
470
479
487
506
521
543
558
565
571
568
564
556
537
517
506
481
477
473
472
482
488
500
520
544
567
584
587
580
580
584
589
581
562
540
510
490
497
503
518
541
561
557
551
570
604
617
615
613
620
607
594
578
549
529
527
501
494
495
496
495
492
501
518
538
569
581
574
567
561
561
560
550
521
503
486
468
461
450
446
453
461
467
467
481
503
523
524
519
506
491
479
470
449
428
416
406
394
384
392
402
387
386
398
412
429
445
455
458
454
448
439
424
403
384
370
362
344
324
318
328
344
362
373
391
414
431
440
435
433
426
419
397
368
350
343
332
326
321
320
328
340
352
363
381
401
434
438
441
445
426
403
382
369
368
365
356
353
354
346
350
355
375
389
418
439
430
415
418
425
427
425
408
388
377
384
363
352
356
362
372
381
386
399
417
444
464
480
484
481
470
453
430
417
408
398
392
387
397
409
409
399
391
402
426
449
468
474
476
477
470
463
445
424
412
408
399
394
389
396
410
422
420
426
445
472
500
513
508
483
478
474
463
446
423
414
410
399
388
388
404
424
439
464
469
481
498
506
501
499
492
486
473
458
440
428
416
409
410
424
445
450
451
448
449
471
496
525
531
523
501
476
446
437
441
441
413
403
403
409
419
423
430
442
463
491
511
520
517
510
502
496
476
455
442
436
428
408
400
406
420
431
442
453
467
488
507
520
522
519
517
499
466
433
419
414
410
408
413
421
439
445
439
433
447
472
496
506
509
511
507
499
475
453
437
430
424
432
417
405
02
287
279
278
273
272
280
283
301
317
336
341
347
338
331
323
319
315
304
289
291
297
294
303
318
320
303
301
322
349
376
393
398
387
377
365
341
321
315
307
293
283
289
300
299
308
321
335
362
378
389
389
390
389
391
383
368
357
339
324
322
324
329
353
378
416
405
397
409
420
409
418
427
416
407
406
394
381
371
364
352
353
361
373
382
403
396
409
411
413
416
423
427
431
430
426
399
373
349
335
342
323
305
326
337
345
348
366
397
427
439
448
437
439
426
409
399
387
379
375
366
373
381
397
409
419
413
420
448
458
444
449
444
437
424
407
392
382
371
368
367
375
383
403
399
407
420
439
456
469
480
493
478
467
448
424
395
384
374
372
352
346
355
358
365
378
382
402
420
434
445
446
456
456
450
438
419
391
376
372
373
375
388
407
421
414
405
412
420
421
427
439
445
441
443
439
417
402
387
376
372
383
378
386
394
403
398
401
414
436
433
429
435
433
428
421
414
410
402
397
392
389
390
393
395
400
422
425
436
442
450
451
454
441
433
429
415
403
394
370
367
364
360
376
394
401
394
401
425
438
450
455
445
445
449
429
424
383
380
382
378
385
390
398
407
404
406
423
436
460
470
467
472
475
480
467
453
440
425
416
412
406
413
424
445
463
447
464
487
507
514
512
499
485
478
464
451
437
435
431
431
438
459
469
463
452
462
482
503
514
513
515
512
488
469
436
411
389
371
356
351
353
364
374
381
385
388
403
416
431
443
445
427
416
414
398
390
382
384
382
383
398
401
403
397
386
381
397
417
434
432
419
408
423
422
404
384
358
344
338
338
347
357
366
374
382
391
425
443
454
465
460
454
431
409
394
371
361
359
363
366
376
397
416
428
429
435
435
429
415
403
411
417
416
416
415
378
362
357
355
353
348
354
364
367
376
381
399
414
426
436
431
419
414
416
430
407
411
420
433
452
476
508
544
579
626
680
741
798
855
910
952
972
989
989
988
988
988
988
987
987
986
986
986
986
987
987
988
989
941
871
801
726
659
583
479
342
243
180
142
132
138
151
171
188
216
242
271
292
319
336
349
339
345
348
315
307
311
303
292
288
303
304
316
332
340
353
370
369
370
369
362
347
341
329
315
298
289
281
276
273
292
310
322
334
349
346
356
369
388
394
396
388
379
370
355
334
325
323
324
320
324
329
333
342
346
368
395
418
424
425
423
414
402
395
380
368
361
349
339
335
344
369
365
359
370
389
413
436
453
468
469
461
439
428
417
399
388
374
378
398
408
417
407
408
416
445
467
471
471
459
452
455
458
478
451
414
394
392
394
396
411
428
439
442
448
467
504
512
523
531
518
493
472
452
428
411
386
376
376
376
399
429
423
424
440
467
486
508
517
512
516
518
516
506
489
491
487
481
475
472
491
502
502
496
489
497
518
535
552
554
564
550
547
543
510
471
482
478
464
468
483
495
510
527
538
550
556
575
586
574
539
517
518
519
513
506
491
466
447
440
449
460
466
481
488
498
520
537
533
543
536
514
498
472
450
433
425
418
405
393
400
407
406
400
404
416
436
451
456
454
449
437
442
435
422
399
365
338
322
318
321
324
322
323
319
341
364
374
386
383
366
337
337
332
324
317
306
289
284
291
310
323
336
330
324
334
356
374
389
392
389
370
351
328
310
295
307
305
313
320
318
292
284
298
315
331
356
368
373
379
380
374
366
352
339
324
320
312
304
312
325
335
345
355
371
395
418
425
426
431
424
391
365
358
333
316
309
297
293
288
301
319
339
353
356
369
389
377
390
416
428
419
397
370
352
344
344
339
339
342
348
358
364
375
400
421
435
417
423
431
437
439
436
412
401
380
367
348
341
346
363
403
392
358
379
418
434
449
462
459
457
455
452
442
426
409
398
367
345
351
366
380
393
400
403
415
427
432
437
445
448
436
424
414
404
397
389
380
387
410
426
411
380
383
393
415
438
458
473
468
467
467
470
448
413
403
403
374
354
352
366
380
387
394
408
428
437
451
457
452
459
463
450
429
418
409
397
381
380
378
377
386
392
390
400
424
448
470
491
489
473
465
450
430
407
386
373
362
362
374
390
403
416
430
434
430
450
461
455
450
434
417
402
391
389
395
380
393
400
365
357
369
392
403
420
425
437
444
451
443
432
434
434
419
396
368
354
354
362
354
360
367
383
396
410
426
447
463
474
484
467
449
435
417
403
396
391
378
372
380
395
411
424
411
424
435
447
466
477
474
477
473
450
422
394
379
377
381
386
391
406
402
404
416
445
442
451
464
470
471
466
458
454
451
455
426
409
407
416
432
432
410
390
394
419
439
464
486
497
500
500
489
471
453
450
457
452
436
428
428
441
448
460
473
473
501
513
518
506
491
482
473
460
444
431
422
417
408
408
407
412
418
426
439
465
468
486
502
516
515
505
505
495
471
454
425
410
386
384
385
394
409
422
403
402
406
414
415
418
426
429
427
413
391
384
366
354
358
357
365
384
409
415
402
403
422
441
442
438
438
433
436
423
400
395
390
382
384
387
401
399
398
407
426
451
478
497
475
451
441
428
422
415
410
406
384
364
352
342
342
347
358
371
384
408
430
439
451
469
450
440
425
405
393
395
379
360
363
367
384
378
345
342
347
360
378
390
408
420
427
437
452
451
446
449
471
463
475
494
535
597
649
709
772
824
880
932
989
988
988
987
987
987
986
986
985
985
985
985
985
985
985
986
986
987
988
983
890
786
689
576
445
333
252
201
179
189
175
189
224
241
265
285
306
325
354
367
369
365
355
345
331
312
296
278
264
254
249
247
257
270
285
294
303
318
328
340
351
334
323
320
326
319
303
295
276
263
255
260
283
304
319
334
353
369
384
394
370
349
352
360
356
350
357
329
296
284
287
296
307
317
333
349
371
382
390
394
407
404
398
396
397
392
379
372
359
355
348
348
348
359
376
384
389
415
437
458
456
447
443
442
432
414
402
387
366
363
350
350
359
368
368
367
369
390
415
448
449
442
440
441
434
422
417
409
402
394
387
399
398
402
409
421
443
469
486
499
511
513
495
476
464
445
431
419
405
424
433
406
415
412
413
429
450
479
501
511
512
524
517
505
509
489
467
464
453
431
423
439
457
467
479
490
498
519
543
568
576
578
576
556
533
512
485
475
488
502
478
486
496
506
503
498
507
528
552
550
552
540
526
523
516
497
471
461
452
444
443
450
467
469
476
485
496
508
521
515
505
508
496
491
474
448
433
417
399
383
379
390
402
406
411
413
430
438
445
450
448
441
459
447
424
396
366
336
308
314
327
348
343
350
354
356
375
388
404
414
403
389
375
363
347
327
322
315
293
293
298
317
318
325
322
312
332
363
380
390
384
372
363
362
360
352
325
316
317
318
310
313
307
328
335
328
345
377
393
394
405
402
400
393
375
353
332
321
318
315
316
324
336
348
344
352
373
394
412
422
436
438
442
437
421
404
398
352
325
313
317
331
352
363
367
377
394
390
394
401
410
422
431
437
428
420
407
400
372
355
366
375
383
396
406
400
413
435
439
428
404
385
381
390
392
388
374
353
339
336
335
360
362
374
391
404
422
447
465
471
468
459
449
448
434
417
407
386
369
365
374
373
370
376
383
400
430
446
452
457
462
466
456
444
420
404
412
396
357
364
369
382
379
397
416
436
453
464
466
473
482
480
456
454
435
410
395
386
378
374
385
401
404
410
415
424
431
451
470
481
482
484
493
468
425
429
394
355
344
348
353
368
381
391
402
413
433
454
471
479
477
472
461
447
432
417
409
409
403
396
384
378
388
413
426
422
431
443
449
449
460
459
439
423
404
393
400
399
370
360
364
379
388
395
401
410
433
448
460
468
470
466
458
448
434
409
397
381
372
363
369
385
399
405
411
416
433
449
458
458
470
479
479
482
436
407
392
382
384
373
363
366
381
395
412
423
449
460
472
469
467
463
448
435
429
402
390
381
398
393
380
399
424
428
430
440
450
451
464
454
453
458
465
459
438
427
413
404
399
403
418
394
384
395
418
447
468
485
500
504
496
482
466
438
430
410
413
418
420
426
449
472
474
457
448
451
475
504
518
520
524
520
515
508
494
469
456
457
459
454
444
437
438
433
431
445
464
478
486
483
477
470
480
466
447
435
432
418
414
411
415
425
432
445
461
460
471
474
467
440
432
430
423
421
420
400
390
381
362
361
376
392
388
389
401
423
441
456
462
462
453
452
448
447
428
412
403
391
365
368
386
376
390
379
366
387
409
436
448
452
447
442
432
427
418
409
381
368
359
363
393
409
395
394
399
419
441
464
473
483
475
453
433
410
387
374
367
366
367
351
354
369
382
401
413
433
450
471
485
485
481
474
457
430
386
348
325
316
309
305
326
353
370
392
428
469
514
555
558
568
592
627
671
703
735
771
811
841
877
927
980
989
988
988
987
985
984
984
983
983
983
983
983
984
985
987
988
989
890
794
689
605
499
379
294
240
216
217
240
262
286
302
305
300
289
277
265
260
263
281
301
308
306
319
338
355
375
370
368
357
334
330
342
328
296
282
273
263
258
251
248
259
272
292
319
343
341
349
348
353
354
346
338
319
303
301
288
276
276
281
301
319
332
342
337
329
344
374
399
409
415
400
367
341
337
335
330
330
317
325
327
332
346
351
364
382
402
418
418
424
428
425
421
395
378
371
369
360
354
349
345
341
352
356
362
382
410
439
455
466
459
447
444
436
435
420
395
383
367
363
380
398
397
403
415
432
466
488
481
497
508
470
452
434
425
421
433
409
393
404
419
433
451
465
474
487
506
513
517
520
515
509
507
501
485
473
463
463
453
448
460
467
456
456
468
486
513
527
533
538
540
536
531
517
511
502
492
476
466
464
471
479
485
477
479
507
534
561
570
562
557
546
533
509
490
476
463
458
468
492
497
491
486
494
500
517
532
539
541
539
536
545
513
482
449
434
428
428
430
430
433
444
453
461
461
467
476
494
515
498
467
447
439
419
402
392
384
375
371
374
383
391
402
406
412
439
438
433
434
429
424
439
436
397
379
364
344
324
317
317
319
323
328
320
337
359
372
361
349
348
352
350
346
330
313
297
285
286
289
300
319
324
332
341
355
375
387
392
393
394
399
401
385
365
339
336
320
293
302
315
314
322
332
343
350
369
392
399
405
410
407
400
393
372
346
336
317
294
301
307
321
332
343
355
363
384
412
421
433
429
422
415
391
377
364
352
351
347
344
342
354
357
367
375
395
414
443
461
453
446
432
424
419
421
408
384
371
364
368
372
389
401
410
412
425
439
471
495
457
430
429
419
401
382
366
358
353
355
362
380
400
406
418
438
457
437
440
449
458
458
456
447
434
411
399
387
384
390
385
391
402
406
411
413
436
455
462
465
461
462
462
446
417
394
382
387
388
391
391
391
401
407
418
425
443
461
478
485
485
473
458
453
438
418
400
387
377
381
382
385
396
408
408
401
412
426
440
461
466
470
462
448
432
417
403
403
399
405
380
356
366
390
409
433
438
448
480
509
516
516
492
455
408
392
386
395
385
380
395
393
398
403
404
412
438
470
487
495
488
496
473
425
390
370
368
372
372
369
371
385
398
413
431
449
462
479
498
498
469
462
457
448
437
422
405
392
364
346
349
375
387
390
406
410
432
446
454
462
458
457
451
448
428
416
403
404
399
397
397
404
408
416
427
426
427
455
448
449
443
446
446
448
435
426
404
395
387
389
401
399
410
419
428
430
446
470
479
485
480
477
468
455
438
422
407
407
408
389
377
395
414
420
399
403
424
444
465
479
488
492
493
482
463
444
411
382
376
378
401
388
390
415
440
447
482
509
501
487
487
482
476
466
447
418
400
377
376
373
397
410
421
428
441
458
482
506
531
535
526
507
502
492
476
465
456
443
432
406
417
432
447
474
480
464
465
483
498
530
520
503
502
492
482
472
473
448
432
424
422
426
428
424
427
442
465
481
479
461
445
435
434
430
425
416
405
393
384
399
404
390
399
413
428
447
469
467
465
470
461
447
436
417
400
377
367
368
363
356
358
370
380
390
401
411
431
447
458
457
448
447
447
433
417
387
376
370
372
390
390
368
368
393
409
420
445
465
469
455
442
433
437
428
411
397
399
387
390
382
391
403
401
404
415
411
430
462
477
483
480
467
439
411
398
379
375
356
347
333
331
338
353
368
388
436
455
479
512
536
553
593
627
648
654
675
713
745
779
826
883
954
989
988
987
987
986
985
984
983
983
983
983
984
984
984
985
986
988
989
909
806
698
605
481
367
277
222
192
187
195
211
236
258
255
245
246
249
249
260
276
285
298
312
337
354
350
363
371
373
379
366
349
340
328
310
305
279
264
252
262
264
237
265
287
295
320
344
349
349
344
333
337
335
314
315
309
288
288
299
285
293
319
333
330
345
370
395
411
416
412
394
375
360
350
336
326
323
321
326
337
357
356
349
364
397
432
439
439
432
422
410
402
395
383
373
369
367
367
369
378
394
401
393
410
423
447
446
431
426
426
427
423
416
408
389
372
366
366
362
374
395
412
412
425
449
468
488
509
501
512
501
451
420
411
411
415
403
404
403
409
419
431
454
487
502
529
533
531
546
520
487
475
460
453
441
428
422
417
424
442
462
475
474
483
502
519
540
548
544
536
523
515
495
479
466
454
448
456
463
470
482
496
507
521
542
560
566
562
562
563
561
559
533
509
494
483
482
475
483
489
499
512
511
515
530
548
555
543
538
530
526
512
481
463
460
445
436
429
432
440
437
445
455
469
494
510
523
527
509
489
474
481
459
424
414
387
378
357
346
360
366
375
392
417
445
463
476
466
456
445
433
421
405
407
370
326
313
307
307
321
323
335
340
348
374
392
381
381
388
381
358
348
338
332
321
309
314
310
307
316
319
319
328
340
369
389
401
414
390
382
385
370
331
305
282
283
291
310
318
326
330
340
357
371
384
400
417
429
425
405
398
393
390
375
362
358
362
347
334
342
346
349
353
347
380
397
404
403
395
387
382
383
378
370
356
340
338
335
336
346
353
371
385
402
420
438
456
463
470
464
450
446
438
414
393
360
346
356
362
374
368
377
389
407
429
443
457
464
462
455
439
426
411
408
409
398
393
380
376
386
387
372
377
404
432
450
459
465
463
468
482
453
423
407
408
402
393
402
403
400
404
411
417
428
446
467
471
476
469
460
456
443
426
409
408
409
399
415
411
406
407
389
375
382
419
447
453
443
436
448
451
443
425
404
399
390
383
381
394
421
419
438
445
452
466
476
476
465
463
460
453
437
419
409
389
383
380
373
379
392
400
410
418
443
466
485
490
504
486
461
454
436
415
399
393
383
375
385
390
400
409
418
427
445
464
480
486
498
483
461
440
411
397
393
400
388
370
374
371
369
388
406
425
452
476
484
484
468
450
444
445
435
421
419
405
382
385
396
408
411
416
424
423
425
443
436
451
458
460
453
444
432
414
390
377
372
374
381
396
408
419
424
426
447
474
490
495
498
513
479
440
428
428
433
411
382
371
369
376
380
383
391
400
431
457
477
477
461
459
454
447
435
420
401
389
377
381
396
421
429
436
438
444
449
475
497
525
531
479
453
426
399
396
390
373
366
363
371
381
388
399
414
423
441
464
485
486
484
478
476
493
478
447
423
410
411
419
387
384
397
415
418
420
438
468
461
465
464
464
454
439
421
409
395
391
397
404
419
422
415
429
436
442
455
470
474
483
493
485
480
474
463
445
425
413
408
409
421
432
443
448
459
475
492
508
518
523
531
545
530
511
483
466
462
450
444
444
449
458
460
464
466
473
496
506
514
522
507
495
484
472
460
441
433
427
422
423
422
426
426
418
412
432
441
448
475
480
475
468
448
439
424
418
403
387
386
374
378
388
384
394
412
431
453
469
482
484
481
476
472
461
446
424
427
411
395
384
377
379
369
352
355
398
441
449
475
488
476
447
419
394
374
369
368
348
351
370
391
412
419
417
413
422
440
458
458
453
457
465
459
434
411
410
400
380
368
362
368
389
404
424
420
422
429
441
444
447
443
438
435
415
386
373
371
349
332
333
361
394
423
449
483
529
550
590
622
659
704
741
788
812
840
881
913
952
989
988
988
987
987
986
985
984
984
983
983
983
983
984
985
986
988
989
914
822
709
602
492
376
286
222
188
194
220
254
287
311
317
320
326
331
308
285
265
254
257
262
271
287
291
285
303
334
361
357
349
339
349
343
335
325
325
312
293
290
294
281
253
262
278
295
318
345
367
385
383
390
400
398
392
371
350
326
304
296
295
304
310
304
283
291
306
326
354
385
392
401
394
380
370
361
360
347
348
354
327
330
348
337
334
342
358
389
416
447
446
439
442
442
428
405
388
370
368
384
375
383
394
403
408
409
406
424
442
454
451
453
459
456
431
409
404
398
393
394
397
393
378
386
399
413
435
455
476
494
492
489
487
481
489
473
458
476
482
467
411
383
409
441
451
463
478
511
534
528
529
523
507
488
483
477
470
454
444
462
457
442
457
488
491
497
524
513
526
536
553
560
564
567
557
518
498
487
474
453
445
444
456
471
486
498
512
530
564
563
551
556
558
548
541
527
522
515
508
499
486
496
514
516
518
513
519
535
553
563
564
560
549
544
522
496
474
443
439
442
429
428
435
445
449
448
449
466
489
505
500
493
487
470
454
434
419
404
389
374
385
343
322
346
367
370
381
386
396
404
399
393
390
388
393
365
349
346
333
323
322
327
329
335
345
355
378
405
429
443
423
398
378
368
373
363
332
322
322
310
315
323
325
327
333
336
344
365
391
406
400
388
373
361
357
352
345
314
309
309
300
306
326
352
358
352
380
408
420
421
425
418
408
399
394
383
366
353
340
334
322
329
345
341
356
388
404
391
400
407
411
413
408
408
402
382
367
359
355
353
336
333
352
366
382
392
407
430
445
444
441
445
440
434
426
414
398
391
370
359
356
365
388
406
403
414
422
431
448
455
418
423
429
425
413
400
380
377
367
358
361
374
399
409
407
414
432
451
466
479
469
467
471
474
470
446
432
434
410
393
392
408
415
420
420
421
429
447
460
470
487
497
494
472
450
429
410
399
385
384
394
384
393
407
425
447
472
470
462
473
479
478
470
461
447
413
391
385
391
399
388
394
416
425
412
425
445
466
486
487
482
475
466
454
434
416
394
383
376
368
378
400
433
436
440
455
461
446
426
424
444
462
441
421
416
415
413
406
396
390
384
384
396
397
400
415
437
459
477
494
481
470
464
451
433
417
414
406
405
404
401
409
417
419
410
411
448
468
480
484
476
454
439
429
413
399
395
386
377
371
369
372
388
393
399
411
439
459
471
477
476
477
478
480
484
469
435
431
426
412
407
398
412
426
429
447
462
483
500
483
477
479
449
412
392
377
373
382
381
371
379
388
399
409
423
434
454
473
488
491
477
466
453
439
434
423
391
368
361
356
380
407
422
432
443
466
487
474
474
492
508
481
464
454
437
429
414
392
388
396
405
426
427
436
442
452
466
483
484
490
489
483
482
477
478
487
453
412
420
407
406
432
417
422
431
463
484
505
524
518
516
510
502
493
474
449
445
436
421
423
433
459
452
459
463
477
497
518
533
543
547
549
543
533
502
467
441
424
407
398
413
440
453
464
467
475
489
498
503
514
514
500
488
471
445
420
392
372
377
388
403
410
407
406
402
426
441
443
460
462
452
448
452
460
442
445
426
381
370
380
403
409
402
394
397
422
449
468
467
465
471
476
474
462
434
419
404
401
408
404
412
417
422
412
403
414
430
433
437
436
438
432
440
452
419
369
371
367
355
356
376
394
402
412
433
446
437
437
449
451
461
456
457
445
419
413
409
394
381
373
384
397
407
416
420
428
442
443
437
429
415
411
422
425
431
447
461
471
495
525
560
594
646
695
755
810
868
936
989
989
988
988
987
987
987
986
986
985
986
985
985
985
985
986
987
988
989
960
880
805
719
630
524
392
294
228
179
156
160
192
221
246
272
295
310
309
324
331
317
314
320
322
317
309
306
311
295
289
284
288
302
318
326
330
336
348
373
395
399
392
379
366
359
342
329
314
298
291
290
301
311
321
326
326
338
353
384
409
425
432
418
389
371
362
358
347
338
338
343
355
379
394
406
407
398
398
421
422
432
437
426
418
402
383
350
332
347
351
339
356
376
371
371
386
411
462
467
468
471
474
469
463
464
463
437
375
358
355
339
351
372
389
405
411
427
450
466
474
478
477
461
458
453
440
433
426
418
413
401
407
413
418
423
434
450
479
505
515
519
517
505
496
497
483
474
472
485
482
465
469
469
464
456
454
478
504
516
531
541
538
539
540
534
524
510
504
499
496
496
497
506
520
534
534
526
532
554
557
553
550
547
545
529
521
521
531
536
526
519
519
526
524
530
516
523
535
549
559
579
582
571
570
561
545
533
566
527
499
494
494
501
485
476
462
449
469
494
503
508
504
511
500
483
463
444
421
410
413
409
414
423
426
433
430
452
464
469
476
466
455
452
441
426
407
383
372
358
348
343
349
359
360
359
357
360
376
393
413
419
419
414
403
386
361
335
327
322
331
339
341
336
330
327
330
356
381
399
415
413
402
391
383
369
348
332
332
319
309
302
297
294
296
311
321
339
370
381
397
406
394
384
382
347
335
313
320
316
313
325
330
332
333
351
372
396
421
452
454
414
394
387
385
376
357
344
333
318
324
361
352
315
318
337
352
384
400
414
434
440
443
430
423
419
409
399
393
380
359
347
362
380
389
394
404
416
427
428
427
432
444
410
402
401
383
373
365
358
366
369
375
389
403
424
436
455
455
452
459
460
466
474
462
451
438
405
393
377
370
371
378
389
401
409
422
446
467
488
479
464
465
463
464
444
424
421
414
399
386
375
381
395
405
411
423
447
456
465
471
462
457
448
445
430
419
406
400
397
403
409
417
411
402
403
425
449
479
499
504
500
489
479
456
424
408
389
386
387
386
391
407
409
407
407
407
421
468
500
497
512
497
458
441
426
427
406
386
396
393
385
384
387
399
405
420
439
457
472
473
482
484
476
460
435
424
412
413
419
409
409
419
430
448
463
472
487
494
481
474
468
460
451
449
433
432
395
366
355
344
351
359
364
371
385
403
419
436
450
453
467
472
464
449
432
428
417
409
407
399
403
417
420
428
441
459
483
476
476
487
486
477
466
454
439
426
415
404
395
387
393
405
417
434
446
468
473
482
505
513
516
521
512
481
448
428
425
408
414
421
430
434
448
461
478
500
522
533
538
538
535
522
521
497
472
464
468
464
445
430
436
433
430
435
432
438
482
495
481
490
500
511
505
477
460
449
442
441
441
426
414
404
399
401
405
426
441
456
466
457
455
460
439
417
406
399
397
392
389
384
384
388
393
400
418
433
456
472
478
479
468
455
449
442
429
409
393
385
371
362
362
376
393
404
402
418
434
453
458
454
444
448
458
439
422
407
404
404
395
387
380
391
400
413
430
451
473
495
497
481
461
447
438
421
394
379
388
387
374
372
371
359
367
382
396
425
463
462
464
470
456
442
430
420
408
396
376
385
391
403
420
436
451
473
488
521
568
612
661
697
740
754
781
824
855
892
928
959
985
989
988
988
988
987
986
986
985
985
985
986
987
988
989
922
830
748
658
579
509
418
316
253
216
199
210
233
260
294
311
319
333
321
312
301
291
283
272
273
282
290
313
322
321
322
327
344
361
382
396
406
410
399
398
377
344
338
322
304
305
304
323
350
371
382
370
374
376
376
387
396
403
399
394
384
377
364
354
342
326
302
277
281
303
324
352
373
396
419
430
440
443
438
426
404
394
393
385
375
370
374
389
386
392
402
407
418
429
436
437
438
442
456
437
412
402
401
393
381
379
387
408
418
404
395
408
430
456
479
483
483
482
477
469
453
444
440
427
425
425
427
443
440
433
430
440
461
485
500
527
522
508
495
489
468
456
466
458
431
431
435
452
465
482
494
502
528
565
563
556
541
533
521
510
493
499
496
481
463
457
446
453
461
480
499
516
544
559
565
587
581
571
559
553
546
523
498
494
496
512
495
492
506
517
520
530
537
555
567
574
570
564
560
548
530
528
524
516
507
497
490
496
503
515
521
532
532
548
556
553
543
530
523
514
502
484
464
447
436
444
442
451
462
469
469
470
474
491
515
511
481
466
470
464
432
404
385
370
360
350
345
364
382
382
372
383
403
427
435
424
409
397
391
377
357
336
327
324
325
325
331
347
361
358
359
395
400
414
407
401
396
373
353
336
320
304
292
283
273
285
295
299
309
322
332
348
369
394
401
402
396
386
394
368
348
340
335
322
307
293
295
299
311
332
355
358
370
390
400
405
408
406
400
385
372
345
330
323
321
332
344
351
353
361
376
401
415
433
429
412
405
405
408
389
363
341
347
355
342
344
353
365
366
369
397
408
416
440
446
448
442
440
442
449
421
384
376
380
386
384
387
385
390
404
411
436
467
473
461
447
440
432
423
415
400
380
379
373
377
379
383
388
394
400
409
422
448
468
481
473
467
453
434
422
417
416
430
400
392
401
411
419
422
438
451
467
483
497
505
489
476
448
440
430
406
402
400
392
395
389
400
397
399
407
410
439
448
449
460
456
459
455
445
435
425
409
408
400
385
376
385
406
418
424
432
446
469
474
481
487
488
481
458
438
401
389
390
389
383
386
398
412
437
442
435
471
488
474
487
487
475
463
459
448
425
409
399
389
382
367
366
382
391
396
411
427
450
472
482
485
482
478
478
467
445
429
416
408
405
413
419
418
417
418
416
432
439
456
466
463
443
428
417
410
403
400
398
389
380
374
385
405
417
441
449
465
482
491
500
499
495
484
468
441
412
381
364
357
363
372
389
394
396
408
419
441
462
471
481
480
484
484
461
441
429
417
410
400
395
399
407
416
422
423
439
456
469
482
486
472
471
467
451
435
426
414
403
387
388
393
415
440
456
463
471
492
507
504
501
494
468
446
448
444
426
416
429
419
400
401
411
414
425
429
458
485
504
521
531
528
527
520
506
499
492
451
435
434
436
438
454
471
483
487
493
513
519
519
529
521
515
503
492
477
460
454
451
445
430
431
443
451
458
472
500
515
533
539
547
533
494
475
454
413
385
369
356
356
357
359
372
382
394
400
417
432
455
472
475
479
470
472
452
429
410
405
391
381
379
380
393
406
413
431
458
470
480
475
471
461
447
435
411
394
386
378
369
343
332
345
370
387
399
416
438
459
482
496
499
487
472
454
433
409
386
381
382
386
393
399
410
418
433
446
453
466
479
452
449
463
466
433
408
391
372
366
363
352
341
342
356
368
368
377
404
435
471
481
496
513
532
549
548
540
544
568
593
618
666
720
784
843
914
954
989
988
987
987
986
985
985
984
984
984
984
984
985
985
986
986
987
988
953
857
755
671
583
477
398
326
266
223
204
199
211
241
259
253
250
255
279
302
321
327
334
356
368
374
384
383
368
347
319
296
279
278
286
283
269
269
289
294
305
320
338
351
345
339
352
349
337
329
319
305
297
293
296
295
287
299
320
325
332
344
364
387
398
403
408
408
397
387
360
334
329
334
310
295
305
318
336
349
361
373
389
415
433
436
433
426
424
420
410
396
388
377
363
354
343
345
353
368
382
389
417
443
463
476
476
466
444
436
427
396
386
380
381
377
375
389
410
419
433
452
480
493
487
495
508
494
465
440
417
399
398
403
397
396
391
402
410
422
430
435
446
475
494
511
517
528
511
485
469
456
446
441
431
435
445
464
485
483
468
476
495
514
528
540
554
551
541
526
503
482
485
487
480
470
473
485
495
513
521
519
531
548
559
578
569
555
546
543
524
517
504
481
474
470
477
502
495
504
518
534
546
555
563
561
559
556
550
540
518
496
476
468
472
455
452
459
462
470
460
461
475
496
507
509
504
491
474
459
449
443
432
424
411
386
373
378
397
416
412
428
448
463
447
432
421
416
414
403
384
366
355
352
362
349
340
346
344
356
371
401
409
418
435
440
433
417
406
395
384
376
365
326
305
305
305
306
309
321
334
358
384
412
429
421
418
413
400
384
354
341
337
328
321
316
330
346
353
363
362
370
398
409
421
418
391
388
389
378
344
327
327
323
320
326
337
351
362
369
374
393
416
435
445
460
450
440
432
424
413
396
364
351
315
306
305
308
332
356
374
403
429
443
449
460
458
441
423
407
398
376
364
364
365
364
375
386
387
387
399
427
460
467
479
482
465
444
444
436
422
407
403
402
411
376
367
387
397
409
423
444
463
478
485
478
468
467
475
466
445
412
396
384
377
381
389
403
413
425
450
466
490
497
494
493
472
453
443
428
422
410
402
393
382
390
380
407
425
411
421
432
452
469
475
474
470
469
481
468
430
417
421
416
407
398
397
394
384
390
413
442
471
478
473
466
455
460
455
431
424
417
412
396
387
385
385
396
415
431
437
447
469
481
491
498
496
500
480
461
443
413
391
380
365
367
383
396
397
411
431
440
454
459
475
485
482
483
476
462
458
423
402
400
387
389
408
419
433
443
446
462
468
475
475
472
465
461
450
434
417
406
392
377
379
384
401
420
432
434
432
454
479
497
495
484
481
468
439
424
415
399
388
377
377
378
383
405
421
430
432
448
480
485
472
467
462
468
466
460
432
410
405
401
377
383
394
405
431
449
457
467
477
469
461
461
466
469
466
455
437
426
419
405
395
388
392
409
420
424
438
457
469
485
496
496
496
496
504
495
450
400
393
381
391
417
432
424
422
444
456
470
490
501
511
510
499
484
468
452
435
426
415
405
407
416
438
445
459
464
470
491
504
512
522
513
514
504
488
450
429
434
436
439
437
444
451
455
466
477
491
510
531
546
546
541
532
521
506
489
476
449
425
416
415
425
439
448
456
460
472
494
515
523
525
517
507
496
484
461
449
412
397
390
385
382
376
364
392
420
446
472
488
469
466
466
465
458
441
425
417
409
401
398
394
403
409
407
412
420
439
454
467
478
477
470
454
444
428
407
406
405
377
371
383
405
406
400
410
420
436
448
458
448
452
450
447
443
434
419
408
399
394
371
365
363
372
401
388
386
415
432
451
461
470
471
463
457
443
423
410
400
389
394
392
388
393
391
387
387
405
417
429
420
423
433
438
456
462
461
458
470
481
496
525
560
589
631
667
718
783
856
925
983
989
988
988
987
987
986
985
985
985
984
984
984
984
984
984
985
985
987
988
989
920
807
695
577
435
308
222
172
158
153
142
168
204
235
255
280
304
331
352
366
373
372
354
335
323
306
297
299
312
319
297
297
298
291
294
303
316
335
346
355
364
362
349
336
314
294
282
287
285
284
282
296
309
321
335
323
324
360
382
389
386
379
381
376
360
338
324
315
311
314
314
323
344
358
353
363
393
418
431
450
445
424
410
400
385
371
361
355
346
338
329
336
360
378
391
410
425
440
458
469
471
464
453
443
432
416
399
370
340
330
339
362
383
402
411
419
442
460
473
478
478
482
476
469
446
430
431
445
415
401
402
422
431
427
424
425
450
474
496
513
517
485
477
473
454
445
443
440
434
428
437
446
458
468
482
488
506
523
552
560
555
558
568
559
504
471
462
456
463
463
472
477
479
490
496
500
511
519
536
548
553
559
555
538
529
526
512
502
492
478
479
492
514
532
558
589
578
560
563
560
556
557
546
531
511
500
492
476
463
447
452
468
481
490
480
477
501
534
544
551
549
529
509
493
472
452
447
448
437
427
441
421
406
415
424
437
453
465
470
469
463
453
440
423
402
383
372
355
345
337
338
352
357
359
368
386
417
428
435
436
434
429
419
402
392
388
373
333
330
333
341
343
346
359
375
413
380
350
361
356
356
362
368
375
363
349
335
316
312
307
307
316
314
324
330
340
364
387
408
419
397
388
380
384
377
350
334
325
320
327
344
357
362
363
372
384
390
407
422
439
442
433
421
404
371
354
348
353
367
348
325
342
354
362
371
390
415
436
445
453
439
427
420
415
403
391
383
375
365
375
379
391
395
397
396
412
427
448
460
470
470
469
472
470
453
423
383
346
325
333
349
370
381
396
406
447
460
457
459
466
466
462
459
457
461
430
404
398
393
411
429
410
408
421
423
440
463
488
475
463
465
459
459
452
414
399
391
389
380
379
384
395
401
418
427
443
467
491
484
475
475
472
467
459
450
432
409
416
410
399
401
414
428
433
439
462
471
465
450
446
447
443
444
439
430
420
411
407
396
393
391
399
409
421
428
455
476
481
481
479
481
474
472
464
458
431
417
403
400
397
405
417
423
415
412
421
448
462
472
468
467
464
467
437
421
411
412
412
411
404
409
418
428
436
445
464
484
498
508
507
511
490
479
465
446
425
409
378
365
357
369
395
410
428
455
472
467
457
466
467
457
446
434
427
421
400
395
385
388
393
403
418
433
445
444
443
460
484
496
503
481
456
451
448
417
395
385
374
383
389
400
409
420
430
444
462
482
490
498
498
491
475
455
434
419
406
400
394
401
389
395
406
412
419
428
453
486
489
499
502
485
473
469
461
439
418
403
396
391
382
399
415
416
426
445
455
478
494
501
507
503
490
474
462
448
435
426
420
419
422
424
431
427
431
444
466
499
515
519
525
522
499
462
430
411
403
404
404
385
381
390
401
413
426
435
464
496
524
534
532
532
508
493
486
477
471
460
454
456
460
471
479
474
472
494
543
547
532
545
532
516
506
513
494
466
460
458
444
442
437
422
427
437
459
464
482
514
521
526
526
518
510
498
483
463
442
422
411
391
396
413
418
420
410
425
454
470
477
474
473
471
449
440
423
405
391
376
368
359
367
380
391
400
415
429
454
467
475
479
480
485
485
479
458
429
411
395
382
374
383
390
390
400
403
419
437
456
474
477
470
471
459
428
406
399
396
379
372
371
377
394
387
397
415
430
438
447
466
475
480
479
477
463
442
419
403
379
367
377
391
410
415
426
430
439
448
464
475
468
464
460
432
386
369
362
359
352
376
415
451
479
513
555
590
648
700
764
815
860
906
954
989
989
988
988
988
987
986
985
985
984
984
984
984
984
984
984
985
986
987
988
949
830
708
606
473
345
263
214
174
155
171
208
236
274
315
345
367
365
348
337
328
308
303
301
291
277
275
270
283
302
315
315
321
334
356
370
373
369
370
371
373
367
346
322
290
268
271
278
287
292
292
295
299
305
331
356
379
391
402
398
381
365
346
333
328
321
312
321
339
353
372
377
385
384
401
415
417
409
403
393
393
381
377
370
357
332
316
328
327
345
362
371
386
406
437
460
469
472
476
452
433
418
408
399
399
397
394
394
403
410
410
411
419
429
432
445
467
482
469
447
436
428
415
398
396
398
399
399
407
405
422
443
457
474
503
529
517
495
491
483
468
448
433
423
418
411
417
419
420
435
448
455
483
517
514
505
525
535
523
524
526
497
482
475
473
469
466
467
480
498
513
523
533
549
567
573
566
556
547
543
543
534
508
498
477
474
486
489
487
500
511
519
533
553
573
591
594
589
576
566
563
541
508
489
479
472
466
471
479
486
492
499
508
522
535
551
558
562
561
548
538
532
496
469
450
425
419
432
445
450
449
454
458
463
473
478
482
477
455
442
420
406
396
377
353
342
334
336
346
355
365
378
387
390
406
424
435
440
432
429
416
402
387
375
352
338
330
326
329
330
340
344
347
361
373
391
382
376
370
360
350
343
333
324
319
323
315
321
330
336
348
364
387
408
418
428
412
391
379
383
356
337
336
344
329
319
316
319
343
350
349
358
377
411
428
427
433
431
439
433
421
411
375
349
336
310
302
309
325
336
349
367
384
403
443
436
432
439
449
461
441
406
388
377
366
353
346
344
359
384
388
384
393
424
457
474
480
475
457
451
443
419
393
367
344
347
352
361
370
380
398
392
401
420
443
455
456
457
456
454
441
426
413
406
407
410
410
419
431
434
442
451
448
429
451
473
472
464
459
451
440
424
409
396
386
380
375
385
406
416
420
431
453
468
483
488
491
480
472
458
444
435
439
405
384
383
385
384
390
409
435
435
447
469
488
494
504
501
495
482
465
450
420
398
389
391
392
405
419
412
410
435
457
463
468
470
474
472
468
470
444
419
411
409
400
395
387
389
399
409
412
431
453
470
471
486
479
465
473
480
455
449
449
436
427
423
414
410
409
408
397
417
441
464
478
478
472
463
449
436
429
421
398
380
371
372
375
381
392
397
403
411
433
453
476
485
484
478
462
453
440
431
419
411
406
397
397
404
417
425
434
450
468
491
511
523
520
504
480
477
459
438
419
403
399
403
395
403
430
423
423
428
437
452
471
476
470
472
461
448
432
430
419
411
407
398
397
399
410
433
446
455
464
475
480
488
488
483
469
458
436
417
409
401
395
398
406
433
453
437
421
426
443
455
461
472
459
460
465
462
449
431
418
421
402
392
408
417
411
420
435
456
467
488
500
508
517
514
513
508
483
458
438
429
423
409
406
411
413
405
404
417
439
466
476
482
494
499
500
489
465
444
436
422
411
404
400
411
422
435
447
455
477
503
514
526
521
524
530
517
497
484
467
446
419
423
437
454
465
478
491
506
533
550
553
552
538
523
510
493
465
448
445
429
423
424
430
441
453
467
484
510
552
562
566
560
545
508
482
476
472
462
442
421
392
384
380
381
390
405
417
423
441
472
491
483
487
479
463
450
422
392
375
353
343
345
377
398
398
396
404
418
444
458
469
474
475
463
451
433
410
394
391
383
378
377
397
419
421
436
440
443
448
453
444
433
440
451
455
447
433
415
408
394
387
377
380
392
396
404
417
432
448
466
480
487
480
469
452
439
419
408
406
398
386
382
385
405
417
423
424
435
456
468
476
481
469
460
450
427
409
404
417
433
457
476
495
523
545
568
590
637
706
774
840
895
946
986
989
989
988
988
987
987
986
986
985
985
984
984
984
984
984
985
986
987
988
929
828
711
602
495
374
269
204
168
168
190
212
239
252
277
310
340
360
328
322
325
319
315
306
297
282
271
268
276
291
307
314
318
336
369
387
391
397
396
381
365
354
331
315
315
315
305
306
297
303
316
311
315
316
331
361
399
404
370
368
370
369
370
360
346
334
330
327
331
332
341
355
362
361
366
380
402
413
429
430
405
392
386
378
381
368
358
349
352
376
381
381
390
412
415
424
433
448
453
458
454
444
424
404
384
383
382
383
412
410
415
429
434
433
437
453
474
490
487
481
471
467
450
428
411
416
411
416
410
398
415
428
426
428
448
475
498
505
495
495
488
489
478
475
468
474
460
455
454
457
463
476
476
473
488
508
532
550
531
536
536
534
521
512
497
487
471
459
460
475
480
481
489
501
527
553
571
585
584
588
581
567
546
548
553
527
511
520
526
525
528
522
515
521
537
563
580
587
576
559
544
532
504
494
495
485
493
490
492
500
509
513
519
545
542
538
561
573
584
569
543
523
496
468
448
435
431
427
421
431
437
441
429
419
441
457
473
469
462
461
457
452
429
399
386
382
373
362
364
372
380
384
397
401
415
430
444
445
443
431
419
384
338
301
304
298
303
307
306
321
330
336
356
359
381
413
441
464
436
403
383
365
355
326
315
304
297
296
303
326
340
338
339
341
364
385
402
403
393
383
376
366
352
329
319
301
298
300
315
336
342
353
359
368
392
419
434
444
442
440
439
426
418
384
366
350
335
325
325
335
351
360
356
365
382
397
416
431
430
427
419
415
400
376
367
365
369
373
367
381
398
406
415
409
422
438
448
464
468
457
446
437
433
425
414
402
388
370
360
367
384
402
411
425
441
444
449
452
442
427
428
419
402
394
386
376
380
386
398
420
417
412
418
425
448
460
461
467
465
464
460
452
441
435
420
408
397
391
400
414
432
447
451
457
472
486
499
496
490
475
457
440
426
412
405
414
406
399
393
392
397
404
412
423
439
461
472
486
490
494
487
470
450
432
422
415
409
405
398
393
397
407
408
420
435
447
457
476
482
481
477
469
453
437
399
378
378
378
395
413
418
427
426
443
469
492
498
487
476
472
476
483
472
424
411
405
395
391
399
426
432
434
436
444
446
453
459
470
470
471
472
465
452
439
414
380
364
358
383
396
392
397
400
416
439
461
479
488
482
472
466
443
428
414
417
414
408
405
406
409
417
428
429
440
465
488
496
500
490
485
483
451
432
417
408
390
384
388
399
405
411
424
440
449
472
484
489
495
491
480
474
461
447
425
420
423
405
415
434
445
440
442
461
491
517
522
525
514
496
479
456
449
441
427
414
406
403
405
417
429
440
453
471
489
511
525
534
546
541
521
508
500
488
475
463
456
451
439
440
455
478
486
500
507
509
500
494
498
501
495
486
479
464
454
442
437
436
423
420
441
446
445
459
477
483
475
479
491
489
473
459
450
416
399
394
383
378
390
401
425
436
428
430
445
471
494
489
484
469
450
446
430
411
394
387
389
390
398
404
413
412
410
416
440
462
470
457
451
446
442
434
417
400
387
375
369
371
368
378
392
405
422
435
454
471
485
490
480
479
463
447
427
417
406
402
397
388
387
400
396
391
403
417
439
452
470
472
472
471
464
452
437
427
426
409
378
370
363
337
350
375
396
417
457
490
517
540
563
582
597
615
633
654
682
709
724
737
778
843
896
939
983
989
988
987
987
986
986
985
985
985
985
985
986
987
988
989
911
819
740
673
605
533
469
388
324
280
254
241
239
246
247
248
255
253
255
257
268
270
284
299
303
322
339
361
384
393
396
395
390
379
360
347
343
335
329
319
306
307
317
329
337
353
389
389
382
394
397
401
402
387
363
334
312
311
308
311
317
336
355
370
368
382
399
410
426
434
435
428
421
415
398
383
379
369
367
364
385
393
389
400
411
419
434
459
490
481
444
427
435
435
421
409
408
397
385
372
368
378
382
391
391
403
425
450
464
476
481
480
477
462
450
435
429
426
418
421
403
399
407
419
434
468
480
482
494
497
496
493
482
469
452
433
432
429
427
434
435
450
461
475
486
497
510
535
559
575
552
540
532
512
491
476
470
466
450
439
443
451
468
476
490
512
537
555
572
582
583
582
573
557
542
519
506
487
482
494
505
522
536
544
552
578
603
620
609
604
606
601
593
573
558
546
528
517
511
499
505
517
507
512
525
539
563
592
621
625
608
593
588
574
541
506
484
471
475
474
483
501
508
498
491
493
507
522
520
518
507
480
459
427
411
407
401
398
386
384
393
396
395
395
401
421
436
462
479
455
431
424
420
400
377
360
349
329
318
316
327
331
337
342
352
363
386
402
409
410
406
393
382
370
346
329
322
310
305
305
314
324
344
338
343
358
383
390
387
380
379
369
364
359
348
336
338
327
330
332
341
351
355
353
359
377
403
420
436
438
435
425
411
394
381
359
340
306
287
295
308
318
326
338
345
349
370
399
420
406
401
401
399
391
372
371
383
362
349
342
338
341
344
349
349
368
399
428
451
445
446
440
423
401
386
377
383
373
371
372
370
377
386
402
413
435
448
452
456
454
448
437
433
426
411
408
390
378
375
380
389
398
415
434
453
481
496
494
479
466
458
456
469
440
413
408
398
395
392
400
399
401
401
410
421
446
458
470
475
476
473
464
453
445
430
423
406
391
394
394
397
408
424
443
443
453
472
482
482
472
467
469
461
448
437
430
418
413
404
411
414
412
412
415
424
454
483
489
496
491
469
458
460
448
429
416
410
402
397
390
398
408
416
425
426
437
457
476
489
493
482
471
464
448
430
407
396
403
390
387
401
408
408
414
425
444
456
456
461
478
488
482
466
441
431
421
394
383
385
395
412
419
430
441
452
462
475
479
484
479
474
471
469
459
448
426
403
391
411
396
394
406
414
411
415
430
458
471
474
479
478
474
460
428
416
411
408
404
397
402
411
411
421
434
448
462
475
484
483
477
476
470
463
446
436
426
404
390
369
366
390
422
432
429
450
467
480
494
498
492
491
495
462
436
438
440
397
382
381
388
402
407
422
424
439
465
484
494
504
487
486
468
459
454
443
438
435
422
417
427
441
457
444
443
455
478
503
512
514
501
500
506
493
469
456
440
434
430
442
462
468
468
476
478
484
510
530
543
555
549
540
527
514
498
478
456
446
432
431
441
441
441
438
447
469
496
511
511
513
508
521
509
485
461
432
416
410
403
397
399
404
408
419
446
464
466
472
467
460
454
449
450
427
408
402
395
386
376
382
400
409
408
424
437
445
460
480
487
483
465
457
461
450
424
403
390
374
367
374
382
386
395
405
410
427
445
459
467
470
476
476
478
471
441
428
423
417
429
434
408
371
365
380
394
405
432
453
459
458
462
459
447
426
409
387
386
379
375
373
375
387
401
410
418
430
451
459
453
447
428
411
411
417
407
397
414
441
467
481
488
502
533
582
639
700
756
813
874
928
970
989
989
988
988
988
988
987
986
985
985
985
984
984
984
984
985
986
986
987
989
908
809
704
589
443
319
235
175
151
154
184
216
249
275
300
320
341
341
336
338
339
339
333
320
312
304
295
287
292
296
303
308
319
324
332
349
360
362
359
350
349
348
329
310
307
321
305
285
284
286
303
325
330
348
375
392
399
411
411
406
407
408
406
381
323
286
267
270
292
301
319
326
320
330
360
395
407
414
425
424
417
417
401
377
370
362
362
358
362
373
385
392
399
400
415
431
445
453
456
457
449
442
428
405
392
382
372
373
376
384
410
410
405
420
428
441
465
481
486
489
479
472
455
438
428
417
410
411
418
431
445
469
485
477
483
493
504
524
518
516
517
508
482
464
445
425
408
394
397
405
421
428
440
459
491
518
535
552
538
517
513
515
507
489
474
467
463
459
461
472
483
497
514
526
545
557
564
563
564
553
533
532
530
524
502
485
477
478
483
485
475
492
515
535
547
568
576
583
586
578
559
541
526
516
505
493
486
479
476
479
489
501
503
509
519
539
542
545
556
543
529
515
496
484
471
447
430
414
409
415
428
434
447
449
462
480
494
500
493
496
481
454
425
406
392
384
375
360
369
385
399
400
404
410
421
428
433
438
425
410
398
379
363
354
336
319
304
297
319
326
334
338
347
368
387
391
392
393
385
364
352
352
354
339
317
312
309
306
308
319
334
347
345
345
363
388
405
418
417
411
399
388
370
342
333
332
331
334
337
349
361
369
382
392
401
415
416
414
417
419
418
406
391
381
366
354
346
330
332
342
361
364
378
395
427
444
453
453
438
428
423
418
412
406
399
387
389
395
401
404
396
412
436
440
459
469
475
483
466
453
433
424
411
392
382
377
365
349
327
334
356
376
398
412
419
440
454
461
463
454
453
452
441
400
382
372
369
359
373
395
412
428
437
444
458
475
489
495
496
491
481
467
432
409
414
409
394
390
401
412
433
444
448
462
475
477
484
477
474
480
478
460
440
416
404
391
384
383
385
400
414
419
421
427
446
467
474
482
480
471
464
454
447
435
417
403
395
400
407
425
427
438
448
457
481
495
504
519
479
446
432
423
417
415
394
383
383
388
392
399
407
421
431
455
477
510
507
501
496
491
487
486
456
433
413
406
401
390
384
391
399
412
422
442
463
488
500
477
467
464
471
469
453
438
418
403
394
384
387
397
402
406
413
434
466
488
494
489
484
480
476
458
425
412
402
388
385
391
410
437
441
439
440
450
457
465
475
484
490
487
468
444
421
422
408
387
378
391
388
394
410
434
447
459
464
474
485
501
485
469
452
436
424
409
402
393
385
385
395
413
422
422
436
459
482
498
503
497
510
490
471
450
438
436
431
429
427
453
436
433
445
441
423
432
459
475
482
487
493
489
473
439
428
424
402
397
399
400
416
423
430
439
447
465
486
506
524
517
507
501
489
457
429
409
400
395
384
386
402
432
451
450
453
464
476
493
501
509
521
517
511
490
477
464
445
424
424
424
438
444
459
467
484
503
516
512
539
538
525
515
515
504
485
453
439
433
435
438
455
469
503
468
465
487
497
509
522
532
525
507
495
469
450
439
433
422
420
430
439
450
457
463
468
483
509
522
519
513
497
477
460
434
421
412
396
390
375
373
393
412
427
412
414
423
441
452
463
474
481
479
475
453
431
420
410
401
401
410
422
430
433
437
444
457
483
500
505
491
466
440
416
398
395
389
385
383
385
388
405
412
416
415
418
437
449
465
483
486
493
474
450
433
417
406
392
380
374
382
402
417
406
412
428
452
480
497
498
486
489
480
448
414
372
364
358
338
332
337
369
411
433
461
504
534
565
598
624
652
684
724
748
770
809
861
889
915
961
989
989
988
987
987
986
985
984
983
983
983
983
984
984
985
986
987
989
930
822
719
620
522
420
330
270
244
237
259
273
281
301
318
323
313
296
288
270
274
278
289
314
322
310
306
309
331
349
363
379
377
375
364
346
327
312
299
290
280
281
292
305
312
334
348
367
380
383
362
348
363
372
376
389
344
321
307
303
304
309
324
342
342
348
368
387
396
408
415
426
441
421
402
389
375
365
350
340
337
338
345
365
381
397
403
421
451
479
490
483
452
436
430
422
406
388
374
371
370
377
389
407
401
421
436
440
439
451
460
466
465
462
455
451
431
410
400
392
383
385
390
403
414
429
445
468
489
507
507
517
498
476
484
483
463
451
445
443
435
431
435
460
465
468
475
498
519
534
536
544
557
569
548
532
514
492
487
478
473
477
502
510
500
500
514
531
552
581
594
595
597
608
609
594
563
534
507
489
492
498
507
525
533
517
501
513
543
562
596
588
574
565
560
551
539
526
525
515
518
525
530
540
542
547
552
567
582
594
598
596
584
578
571
558
536
530
519
507
496
487
474
464
456
465
483
508
527
538
532
532
530
521
522
505
484
455
433
409
400
402
413
418
424
425
442
469
463
454
457
446
445
444
440
425
408
401
374
358
357
360
374
391
396
404
410
426
444
463
468
467
465
460
451
436
417
394
373
353
344
331
324
326
337
356
391
416
425
432
448
451
441
430
423
405
391
368
357
353
352
356
358
370
386
389
401
418
435
455
461
451
444
438
436
425
411
397
388
377
375
376
375
384
399
412
424
425
444
461
463
465
466
464
462
449
441
436
429
412
406
412
430
450
450
438
443
467
501
517
518
534
546
536
520
498
467
450
435
430
421
409
403
404
421
441
451
472
495
503
498
497
489
484
483
474
472
470
453
441
435
425
430
447
457
451
462
487
509
542
542
536
534
521
515
500
485
487
464
439
444
453
453
451
446
458
479
501
521
530
537
540
530
521
505
491
482
475
468
461
452
459
476
489
494
504
526
572
579
564
566
569
553
541
524
506
492
473
452
435
425
426
445
449
445
467
479
502
522
539
555
552
544
525
508
493
491
487
469
457
450
454
465
472
476
489
511
545
568
574
561
553
538
528
522
506
490
487
475
473
468
465
466
469
475
489
504
531
580
569
540
551
555
570
572
522
485
469
462
453
448
454
463
470
485
491
506
531
552
567
573
565
556
552
540
519
498
493
484
473
465
466
477
481
487
497
510
525
537
549
557
561
552
533
521
501
485
473
462
457
464
464
464
475
491
507
522
541
566
575
578
562
541
531
524
515
513
504
492
476
470
480
494
498
509
506
526
554
574
580
568
557
548
541
538
533
520
493
479
458
454
471
489
503
505
502
519
530
549
570
578
574
563
553
543
530
525
512
495
493
489
490
501
492
482
498
536
575
592
593
590
577
559
553
553
543
524
509
497
492
482
480
477
480
494
502
513
536
567
582
575
578
576
574
561
542
525
524
509
502
498
506
521
534
539
540
559
584
604
619
614
601
598
603
584
555
537
522
524
522
521
540
558
562
564
578
580
582
606
622
628
634
639
639
627
612
604
586
555
523
497
496
505
518
532
540
555
579
596
609
610
605
595
586
565
535
508
501
494
489
478
476
490
507
519
527
556
560
577
598
569
550
552
545
529
503
480
459
438
426
435
450
469
481
503
497
500
529
561
567
577
571
555
539
532
522
513
506
488
486
480
484
497
496
500
517
539
558
560
563
555
551
551
535
518
506
496
478
453
437
441
455
471
480
487
492
507
526
541
552
569
571
562
552
531
515
505
498
492
487
493
498
502
503
510
518
522
529
538
532
515
504
501
501
488
480
489
506
510
518
535
570
602
644
688
728
789
869
924
963
989
989
988
988
987
987
986
986
985
985
984
983
983
983
982
982
983
983
984
985
986
987
989
922
814
706
573
450
358
286
246
241
268
298
326
348
373
396
426
428
434
440
436
436
437
428
408
381
361
348
350
357
372
378
393
404
423
439
442
447
445
442
432
424
410
396
376
372
367
371
378
390
409
413
411
413
431
447
458
452
448
444
438
434
425
418
420
403
390
399
408
407
418
430
416
423
449
479
503
506
504
506
500
493
491
484
452
437
445
452
446
450
455
467
484
503
528
549
565
575
585
560
535
513
494
461
439
430
442
437
422
435
451
458
468
482
510
532
542
549
555
563
563
559
528
501
483
482
482
492
502
519
529
541
531
529
535
550
570
588
588
574
569
565
547
531
521
523
524
504
501
508
516
521
537
546
564
603
628
613
606
605
599
585
567
565
573
555
545
551
562
566
565
575
589
610
635
656
665
671
662
655
642
631
608
604
588
567
554
560
577
581
587
603
616
636
650
670
692
689
679
665
641
618
593
587
558
541
537
533
536
543
546
555
569
594
621
624
644
648
634
618
630
602
555
538
531
520
504
500
502
509
515
519
515
511
532
540
532
537
546
521
513
509
491
471
452
436
431
428
438
445
458
458
448
454
474
487
502
510
515
500
487
468
455
438
441
419
412
401
402
405
396
398
400
417
462
486
481
487
472
466
442
425
415
403
398
389
372
371
376
382
391
406
414
407
430
473
499
490
480
475
469
439
412
397
392
391
391
395
408
417
426
442
444
459
476
484
491
491
495
491
480
458
435
425
415
386
393
397
405
417
424
435
468
474
464
487
515
536
539
533
526
510
488
468
448
419
394
385
397
413
437
447
442
466
504
513
506
523
539
550
543
489
449
425
422
424
435
431
435
445
453
459
462
487
525
555
567
578
558
508
490
474
471
468
457
452
453
442
441
452
471
490
503
512
522
536
550
561
558
554
546
539
510
469
452
440
441
444
459
475
484
496
507
516
531
550
570
574
570
561
530
493
476
468
467
453
442
442
443
462
466
467
493
517
494
507
534
557
556
549
545
535
518
497
488
474
459
460
480
489
477
471
472
484
505
525
551
561
543
527
518
500
486
475
471
478
465
458
463
471
470
472
475
485
516
555
575
579
568
561
548
529
501
474
457
442
432
428
435
447
461
470
467
478
498
534
550
541
544
535
516
505
496
483
478
478
474
469
473
472
447
453
459
477
498
519
534
539
536
534
536
527
494
481
480
470
435
431
448
465
472
470
479
504
531
552
564
565
559
541
522
515
513
494
479
457
438
430
422
427
435
449
469
497
516
543
573
532
515
528
539
512
493
483
468
465
467
464
451
447
460
481
498
520
538
553
554
542
527
514
505
495
499
499
481
462
456
443
449
462
476
490
500
518
550
561
551
547
560
554
539
526
516
511
508
490
470
464
483
490
492
499
513
523
543
563
575
579
593
595
592
571
557
540
524
510
508
511
514
515
514
513
516
521
539
551
562
582
610
601
577
541
532
495
472
463
458
459
457
466
484
497
503
518
539
552
539
537
525
512
506
482
466
459
452
450
434
419
430
441
457
475
496
522
531
531
523
515
498
491
491
476
466
465
439
422
410
418
445
452
452
450
450
474
504
527
537
534
526
514
506
504
487
467
472
485
474
455
456
473
477
458
442
449
466
479
479
487
491
496
484
459
451
444
433
429
419
426
435
457
486
509
502
522
520
527
518
513
497
490
466
454
446
414
383
384
388
389
404
431
458
481
518
560
598
637
672
706
742
772
809
844
875
907
937
977
989
988
987
987
986
985
985
984
983
983
983
983
983
983
984
985
987
988
974
859
761
676
601
488
376
303
260
240
255
287
315
337
346
351
348
336
321
309
312
315
305
317
333
352
345
340
350
368
387
417
414
416
420
417
405
381
357
360
340
318
310
314
331
343
362
363
378
403
427
439
443
440
432
420
401
374
361
349
341
346
366
361
369
371
361
362
385
418
426
425
431
432
425
416
404
398
393
392
388
388
393
396
406
418
413
422
441
468
501
511
506
494
472
455
439
421
404
405
408
411
417
423
434
458
487
487
470
471
484
490
487
489
483
483
481
472
469
460
443
431
422
422
440
454
473
490
517
549
562
556
560
557
542
518
479
462
457
460
455
458
465
469
475
479
489
507
532
550
568
587
581
561
555
544
532
512
499
487
482
482
491
502
504
511
530
551
580
590
599
610
605
603
603
605
602
596
580
573
571
563
555
561
554
540
554
562
576
604
614
621
626
629
600
589
586
564
559
547
518
520
512
510
544
539
527
524
550
583
606
616
609
591
586
578
564
541
518
504
485
473
471
493
486
482
479
476
498
524
537
549
549
543
522
503
485
461
458
451
425
401
395
395
407
415
426
432
443
461
477
469
457
458
457
457
447
429
410
397
382
362
355
363
370
386
390
367
373
403
415
434
420
406
406
410
408
403
376
349
336
326
318
321
322
332
350
364
381
403
424
435
437
427
421
422
413
395
376
366
357
355
343
339
350
361
362
370
386
412
433
442
444
441
433
424
390
361
351
349
353
361
360
367
382
388
401
411
426
442
457
476
470
434
427
426
402
396
394
375
362
358
362
378
391
403
408
419
435
464
485
498
503
503
485
489
477
448
419
391
378
376
382
384
394
403
409
427
449
463
486
509
520
526
494
476
457
452
440
429
413
410
412
417
435
432
424
435
436
448
465
478
479
471
461
449
437
427
415
406
401
402
404
418
430
435
440
449
465
488
504
513
521
515
510
478
462
438
426
415
409
408
420
433
445
463
470
453
473
497
515
508
508
509
492
482
480
468
455
445
435
422
424
423
431
443
459
467
471
486
519
529
489
483
483
475
453
438
435
430
418
416
417
424
432
439
457
478
476
484
496
503
522
514
501
486
455
437
430
427
430
408
410
419
432
443
449
446
462
477
495
496
473
454
451
454
445
431
423
413
405
403
411
424
432
444
457
468
503
523
529
535
543
544
542
535
524
514
513
483
459
444
407
384
381
391
402
423
453
472
486
498
505
508
498
487
464
449
451
446
438
441
449
460
471
476
488
500
531
555
557
559
546
542
532
508
495
500
494
486
488
484
470
477
470
467
462
478
502
523
535
538
530
523
517
510
501
491
475
438
418
417
428
436
447
446
446
454
469
475
484
501
496
485
495
467
445
433
425
415
412
414
425
441
445
451
437
451
480
496
502
509
494
470
454
440
420
406
393
369
355
349
359
372
385
397
415
444
451
462
479
484
480
471
467
457
440
421
416
411
400
391
390
398
410
421
428
441
451
467
481
491
498
495
504
471
412
394
388
385
387
388
403
411
417
418
411
426
449
467
476
468
463
453
448
425
395
379
377
369
372
387
416
445
468
490
512
542
593
653
711
766
756
794
825
853
877
913
952
988
989
988
988
987
986
985
985
984
983
983
983
983
983
984
985
987
988
977
865
734
629
528
404
299
235
197
181
189
224
265
323
354
347
336
333
318
300
293
288
280
279
289
283
295
299
300
312
330
356
375
372
372
376
373
371
358
347
341
334
337
310
289
287
303
306
311
324
342
361
383
389
400
416
400
379
355
339
328
322
319
313
309
321
340
349
346
347
370
394
420
431
402
404
415
419
418
405
380
360
340
336
327
328
351
363
382
405
408
428
452
471
487
471
450
448
441
434
413
404
395
384
386
394
403
423
430
466
469
446
441
431
441
455
441
438
438
418
398
393
397
398
412
404
411
423
440
448
449
471
505
515
519
513
501
490
480
473
466
472
473
462
456
450
452
452
459
476
501
530
561
564
556
547
531
518
496
477
470
466
461
462
466
477
476
479
491
504
532
551
565
582
581
583
577
573
568
558
548
531
512
506
502
503
509
507
509
503
516
539
570
595
587
583
577
570
560
545
537
525
513
526
501
490
511
520
523
532
551
558
558
566
559
562
554
545
519
494
484
480
466
459
451
436
430
440
446
458
489
516
496
469
468
478
466
457
439
412
402
397
388
391
392
374
382
394
403
414
437
448
457
455
408
378
359
357
350
344
340
329
309
295
294
307
323
332
337
350
364
374
387
401
406
407
391
382
360
338
323
308
295
287
307
321
321
337
344
351
366
382
401
410
416
416
404
402
391
375
382
347
322
308
305
305
310
327
331
333
345
368
390
395
394
403
406
395
385
390
368
329
321
326
323
317
328
349
356
364
386
408
424
428
431
428
421
417
400
388
380
374
371
365
366
380
397
416
423
427
436
448
458
465
463
457
453
426
400
403
385
360
337
351
381
379
354
369
390
410
435
456
473
477
479
465
454
443
430
418
410
400
404
400
399
412
424
429
436
441
440
451
458
462
451
438
434
427
414
409
410
403
375
369
380
401
422
438
441
454
471
493
499
509
513
499
470
453
442
421
404
385
371
362
377
395
397
385
388
410
437
455
465
473
477
469
465
448
428
419
411
405
395
390
391
393
402
412
421
440
465
487
496
509
524
502
475
452
421
411
408
403
399
383
387
401
413
417
424
436
454
483
501
505
503
491
476
457
438
416
392
374
366
366
376
392
404
413
430
440
449
471
490
492
481
472
475
462
452
422
416
412
418
407
402
407
416
433
443
453
476
495
514
524
519
502
458
425
394
369
360
360
360
381
387
395
388
386
394
422
462
489
502
517
503
497
485
473
459
427
413
403
403
404
412
417
422
427
439
454
475
497
521
528
524
518
515
511
489
451
441
433
424
425
432
449
467
470
483
496
502
526
544
534
535
536
534
525
509
495
492
470
451
441
430
427
422
430
437
451
482
499
506
510
500
500
493
477
460
435
414
397
381
387
395
393
381
390
405
423
438
459
466
470
469
459
460
455
443
431
431
410
374
356
367
385
391
407
419
443
463
460
465
461
442
436
422
413
399
387
386
386
385
376
381
403
408
410
419
443
469
485
489
491
475
465
458
435
417
401
394
401
396
384
383
393
391
403
408
423
434
444
452
452
450
446
447
437
419
403
395
382
378
382
371
370
376
385
401
414
427
428
422
428
435
444
462
459
450
443
435
443
449
472
515
563
602
657
712
776
838
905
960
989
988
987
987
987
987
986
986
985
984
984
984
983
984
984
985
986
987
987
989
927
821
714
607
452
333
266
199
118
116
125
167
229
236
254
269
285
311
330
345
359
364
363
355
336
317
302
293
285
277
280
284
294
304
311
323
337
350
368
376
381
377
369
354
320
310
308
301
276
263
278
287
300
312
315
323
341
374
381
398
402
381
367
366
357
351
343
342
329
315
312
317
327
345
351
357
364
384
399
411
430
426
421
403
386
380
367
358
352
343
350
363
377
384
391
392
408
430
450
460
465
466
466
458
437
419
411
391
373
383
389
389
389
399
392
392
409
441
463
482
481
474
468
461
450
440
419
407
401
404
410
420
430
439
442
447
468
495
514
525
530
526
529
512
486
468
451
432
430
434
448
437
446
462
482
495
498
501
521
530
535
541
532
522
508
498
483
468
460
459
451
457
475
489
500
506
531
559
580
592
604
605
596
585
565
513
499
502
500
499
500
508
518
519
524
528
540
561
568
575
574
570
560
552
549
514
494
497
502
509
514
514
514
528
540
501
486
482
479
485
496
498
500
514
485
444
427
410
403
416
405
398
413
425
433
440
456
456
457
464
464
467
462
440
420
410
405
405
383
366
355
351
352
355
355
369
388
412
419
420
417
406
391
377
363
337
317
304
300
305
317
300
308
334
359
380
389
398
397
404
398
399
405
400
371
348
341
341
336
333
331
331
326
326
324
329
343
365
386
399
404
405
399
386
362
355
347
329
328
331
337
349
360
368
353
360
390
410
419
441
453
416
388
382
371
361
365
352
344
346
357
373
379
389
397
413
434
446
442
430
425
423
417
410
406
374
333
330
327
334
350
370
380
383
385
397
416
439
453
454
458
467
468
461
444
409
390
387
387
391
401
416
413
414
419
434
447
456
465
473
465
452
438
425
407
401
399
390
379
391
400
413
417
418
413
419
434
459
473
472
474
474
464
449
433
420
406
401
393
397
408
422
442
435
430
447
469
494
513
502
486
492
493
470
431
408
391
386
398
404
413
412
406
423
443
446
438
449
462
474
481
492
485
472
450
421
399
394
382
382
401
422
425
423
419
425
437
460
475
495
493
478
472
458
435
415
408
397
383
374
365
377
388
390
411
438
460
483
499
520
504
479
454
433
420
415
415
409
397
395
397
421
424
433
449
463
484
501
505
500
494
491
486
475
465
442
424
412
403
391
377
377
384
395
403
424
454
457
454
467
478
482
487
485
474
454
439
421
407
411
425
431
438
436
440
451
470
485
484
471
450
437
428
422
420
415
411
402
395
403
414
429
438
452
437
452
484
506
486
487
490
489
477
465
453
432
422
415
413
420
428
438
450
459
468
482
500
526
541
550
550
539
528
513
491
474
452
451
458
469
470
473
478
493
485
488
492
505
513
518
525
511
486
473
466
469
478
447
414
414
434
457
467
476
489
515
536
551
547
533
525
499
460
435
416
403
403
395
389
388
386
389
385
383
376
399
429
447
477
479
471
467
460
442
426
423
403
369
362
368
374
377
388
411
420
439
465
474
479
480
473
459
444
422
402
393
386
375
374
377
385
398
421
415
421
436
453
461
468
475
478
472
479
456
435
424
409
411
407
392
390
393
402
415
425
448
482
517
531
495
466
452
450
442
439
429
414
393
382
373
367
360
349
334
339
365
395
428
444
456
477
498
519
526
519
536
554
584
628
680
733
791
858
921
978
988
987
987
986
986
985
985
984
984
984
984
984
984
985
985
986
987
988
989
901
818
731
654
513
385
307
243
199
175
184
213
221
218
225
246
264
277
284
291
299
326
355
375
382
373
360
352
353
338
332
329
320
306
299
297
300
304
315
322
341
363
380
379
389
396
385
359
332
321
310
291
289
291
282
283
282
284
295
308
326
356
376
396
406
408
404
396
389
378
367
364
352
344
364
358
340
350
360
383
406
417
436
458
480
485
460
429
396
365
354
340
329
336
345
350
371
399
430
446
410
398
402
433
451
457
458
459
452
435
429
411
394
398
378
372
390
410
424
431
440
453
475
494
496
498
496
494
487
475
478
465
461
434
410
415
422
413
417
421
435
460
485
495
510
514
512
514
501
479
450
438
436
437
443
460
465
469
482
494
508
522
537
549
565
577
586
577
563
561
521
496
491
475
463
468
472
478
493
507
527
556
582
601
599
591
577
568
558
546
533
529
518
506
501
501
506
509
513
518
538
573
582
584
588
566
567
573
567
547
523
498
484
462
451
454
467
467
462
466
475
491
520
514
506
504
481
457
455
451
425
414
406
404
397
382
386
394
415
415
421
440
462
475
474
466
456
443
427
398
378
367
363
362
355
360
364
364
368
374
388
405
421
430
432
422
406
390
380
363
350
328
320
321
324
329
335
346
349
361
370
396
421
430
429
410
385
360
343
330
323
319
313
314
312
317
333
344
348
351
373
407
434
449
445
438
430
417
393
369
348
353
348
328
335
346
337
331
345
357
366
395
412
424
429
432
426
408
397
389
380
370
360
355
357
357
365
387
404
421
454
462
447
430
404
403
406
414
409
406
388
372
368
359
365
378
391
404
419
415
425
441
460
475
480
475
459
439
422
407
396
382
366
364
370
374
384
395
410
430
452
465
475
478
483
490
483
473
457
439
432
423
415
404
401
404
412
424
435
433
440
453
472
479
476
464
436
443
444
445
432
415
408
406
414
405
393
402
413
431
451
473
487
502
501
499
486
482
463
420
406
415
418
437
431
439
444
445
450
451
444
455
462
479
511
492
475
466
449
434
412
394
384
374
387
383
391
403
398
410
430
457
475
467
457
457
455
455
445
435
427
413
393
383
382
389
397
404
409
421
441
468
487
491
494
487
468
469
459
446
428
421
411
402
400
404
404
410
412
419
428
450
473
486
491
490
473
447
418
409
406
406
404
400
405
416
421
424
424
425
443
467
484
494
492
491
502
503
473
459
448
445
424
422
426
435
451
467
483
478
469
486
489
473
463
447
444
441
427
401
386
382
378
372
378
381
396
410
421
429
448
465
488
492
492
489
491
491
475
439
419
401
397
411
405
404
416
427
439
457
469
492
505
517
519
511
497
476
452
434
425
427
419
433
448
463
469
475
481
481
469
495
525
543
543
531
528
517
492
466
457
462
459
442
456
469
467
472
479
483
502
515
524
532
530
527
523
515
502
491
478
461
446
443
440
437
438
425
427
433
457
489
493
484
481
457
452
430
403
381
382
375
371
377
386
400
405
415
423
435
465
489
501
509
500
490
485
473
453
419
405
401
380
371
366
376
384
392
401
415
434
455
468
469
465
452
445
444
426
416
413
395
393
392
382
376
382
401
421
426
441
460
480
486
505
498
462
441
427
421
420
419
417
403
380
382
387
413
414
409
429
452
469
469
468
462
448
449
434
383
366
364
362
360
372
388
394
421
463
504
551
609
634
651
687
734
780
812
849
891
927
972
989
988
988
987
987
986
985
984
983
983
983
983
983
984
985
986
987
989
902
786
670
577
483
379
290
243
206
199
227
265
304
332
351
358
352
346
308
279
273
275
278
277
296
307
312
314
312
321
334
354
372
384
378
371
362
337
306
297
303
290
294
282
277
283
290
301
304
321
342
354
362
363
362
370
379
377
348
308
303
303
302
293
305
326
340
346
349
373
394
413
430
427
420
410
403
384
379
369
356
367
343
322
334
356
376
395
405
426
448
465
470
482
485
480
462
450
431
402
392
386
363
355
362
370
377
390
405
423
429
453
458
456
454
451
450
434
413
404
398
398
406
410
426
454
454
434
437
466
498
520
531
523
518
498
475
459
445
428
415
406
402
413
429
442
465
486
471
467
482
512
525
526
534
524
504
486
486
483
470
474
460
462
471
487
503
519
532
547
572
592
594
603
612
601
583
568
558
537
523
513
501
493
488
492
495
490
505
525
544
546
549
552
550
551
552
545
532
506
492
482
489
502
509
535
551
547
551
561
576
579
575
578
548
506
511
490
470
457
454
446
431
420
423
438
448
457
472
488
492
494
499
502
502
496
482
448
421
401
383
371
372
378
370
372
401
410
391
388
407
419
432
430
419
405
392
386
370
353
341
333
336
338
340
347
355
361
371
398
420
436
450
418
394
375
370
358
346
334
329
318
326
329
333
350
355
349
341
349
366
382
398
410
396
382
381
366
340
321
329
339
348
352
349
352
363
373
377
391
410
423
431
432
420
397
377
365
356
346
332
319
316
321
342
360
381
390
392
401
414
424
426
397
389
396
402
393
372
366
354
347
342
352
367
378
390
398
401
425
450
474
477
487
493
472
464
418
380
367
373
365
364
381
404
388
386
380
392
424
450
475
488
499
487
465
459
443
426
419
411
399
377
375
381
388
398
405
411
431
458
476
477
481
481
475
464
444
424
409
395
387
378
381
395
414
427
424
438
457
474
477
486
491
480
460
449
438
418
419
407
393
383
393
403
416
423
424
435
459
477
488
478
478
481
481
475
453
447
440
438
438
446
443
434
414
411
402
405
421
459
477
487
502
492
472
463
437
397
373
371
372
377
408
419
393
400
418
419
416
440
462
474
476
470
463
458
440
421
403
398
396
404
411
426
419
418
418
427
433
454
470
483
481
466
456
445
425
416
403
395
394
394
390
389
398
411
419
441
463
484
497
483
489
499
499
483
465
454
443
426
423
413
416
420
425
433
442
461
484
500
503
487
474
459
447
433
412
401
405
402
394
389
393
406
413
425
434
448
475
497
501
502
498
497
494
474
462
448
428
415
406
409
428
454
476
480
483
476
491
516
543
544
542
545
538
516
504
481
473
457
433
429
428
438
447
456
462
476
500
519
536
542
525
516
504
496
492
479
454
431
416
421
432
441
452
471
482
473
460
463
465
461
447
447
447
436
424
404
397
392
387
391
394
404
407
403
402
420
448
477
475
472
471
460
451
432
412
397
387
372
374
383
389
402
400
403
413
420
438
464
470
470
467
478
476
439
424
419
420
419
390
384
386
393
406
413
422
472
475
478
462
435
435
450
451
445
439
432
434
414
383
356
353
364
381
393
404
421
453
485
505
507
489
474
463
445
430
414
404
378
374
362
355
359
366
396
415
424
459
502
532
559
583
616
656
671
678
707
744
760
784
840
887
934
989
988
988
987
987
986
985
985
985
985
985
985
986
987
988
989
929
842
769
699
633
562
475
376
306
275
255
254
269
285
293
291
284
275
257
256
266
270
287
297
284
281
295
330
367
387
395
384
374
367
361
353
352
363
346
300
291
295
288
300
310
324
342
365
396
405
411
411
392
369
357
340
325
323
311
304
301
310
329
344
346
361
373
398
424
444
445
438
431
416
408
400
395
393
378
389
361
341
350
366
377
380
391
417
450
475
492
470
446
430
426
415
398
394
394
382
382
383
394
390
403
425
445
468
491
498
499
488
468
454
440
421
416
419
408
399
393
399
403
416
431
440
454
474
496
504
501
512
517
510
489
459
441
431
422
427
434
426
435
455
479
492
493
499
522
542
536
528
525
514
505
488
476
478
487
483
478
475
483
496
507
512
530
548
563
575
587
606
624
599
571
565
582
567
551
535
500
485
492
487
485
490
511
540
564
584
590
589
574
556
551
537
532
534
514
498
488
499
505
516
520
511
519
527
543
564
574
582
574
564
549
527
517
504
487
473
471
465
458
468
477
478
481
493
512
520
517
505
499
500
483
459
431
405
389
378
372
373
382
396
405
409
420
431
446
454
447
435
436
441
427
405
388
368
346
348
335
329
343
364
377
380
374
380
393
407
414
409
392
391
385
381
357
341
336
333
318
313
316
328
340
350
354
361
357
350
362
362
373
378
371
363
365
346
334
310
299
301
302
314
328
334
350
378
388
385
403
399
374
371
363
348
331
328
326
323
331
338
335
338
351
361
377
399
415
423
427
437
434
427
403
385
377
367
351
347
342
359
364
364
378
383
390
408
428
448
457
449
458
454
444
426
413
404
384
363
359
365
384
411
417
413
413
424
440
447
448
447
440
430
412
405
395
392
397
408
398
412
416
418
425
427
445
468
488
506
502
496
479
464
443
419
394
382
378
372
376
391
403
410
404
410
419
445
469
475
473
478
474
463
440
423
411
400
395
396
388
393
408
422
439
445
446
460
480
487
482
478
481
485
486
465
443
424
409
385
368
366
378
384
407
433
444
460
487
506
506
497
474
452
434
419
406
400
390
384
386
395
408
418
419
430
439
442
455
474
488
482
473
456
437
416
409
397
394
385
389
404
418
427
441
440
459
472
483
482
486
484
475
474
473
458
436
424
419
410
400
403
416
420
425
434
454
479
497
511
505
490
474
466
449
433
428
428
422
420
418
428
449
466
481
495
519
545
569
562
542
529
508
488
466
446
435
437
442
438
438
443
447
449
456
472
502
522
546
557
558
564
557
531
509
480
457
444
420
408
410
413
417
419
416
412
422
439
460
471
480
482
473
465
445
421
400
390
370
367
381
391
388
401
399
410
430
454
468
475
486
488
460
444
429
415
401
395
391
391
392
392
396
401
408
418
437
459
479
491
470
455
442
437
432
410
382
365
361
363
377
387
392
398
411
433
452
470
486
506
523
503
503
482
452
420
394
387
378
372
381
393
401
403
404
410
430
454
471
478
470
471
462
460
446
425
403
398
387
382
381
393
403
406
403
417
447
494
517
521
530
534
544
569
594
621
653
704
733
768
816
880
928
970
989
988
988
987
987
986
986
986
985
985
985
986
987
988
989
956
865
793
738
679
619
545
451
384
333
272
246
237
244
255
260
257
259
261
254
254
255
267
273
280
298
317
358
398
414
415
391
379
369
364
353
339
330
327
320
312
314
321
333
344
352
363
393
410
393
399
389
385
382
374
365
351
340
323
320
320
323
340
350
353
366
375
390
410
440
441
458
432
411
392
368
353
355
351
348
349
366
383
368
364
380
399
434
459
477
470
457
444
433
429
422
414
411
399
389
375
377
394
407
410
407
413
441
454
458
472
475
474
467
452
429
405
399
396
390
386
393
402
414
427
435
454
474
497
513
518
517
504
496
490
468
453
442
440
443
445
457
459
440
436
442
464
494
513
533
537
537
542
533
511
498
486
483
470
464
464
469
479
485
497
516
541
591
586
585
604
596
564
545
528
489
473
475
464
463
466
474
493
511
529
533
548
563
574
586
591
594
589
588
571
541
534
530
515
508
483
483
501
515
533
543
554
578
589
592
599
593
579
558
539
522
510
494
483
466
458
451
451
452
463
477
503
521
509
497
503
504
494
481
469
454
446
417
396
383
381
393
395
399
411
416
427
442
457
467
471
472
469
456
436
407
371
343
324
324
328
330
342
350
359
341
351
376
401
417
431
436
418
410
393
358
337
320
308
294
299
299
297
306
321
331
351
378
397
394
401
401
396
387
368
349
330
318
315
315
328
334
336
332
333
349
365
388
406
419
426
426
431
433
410
383
373
361
341
324
319
323
325
322
338
356
389
419
435
442
435
431
439
441
444
439
404
383
373
367
360
362
378
395
397
400
390
399
408
423
449
460
448
439
423
418
427
414
395
390
396
403
401
403
396
390
403
426
449
467
478
485
484
477
461
429
402
390
371
360
354
371
367
351
371
401
428
454
453
467
464
460
458
450
433
421
401
396
385
384
387
392
399
414
424
425
444
477
496
505
502
478
456
451
447
444
429
414
402
402
410
415
433
439
444
452
456
474
487
489
503
498
456
438
427
419
412
407
396
403
413
433
437
442
413
406
441
476
497
502
504
500
501
501
487
474
443
412
391
377
371
377
395
401
410
407
424
447
470
477
484
484
461
447
439
431
423
406
389
385
384
384
393
408
424
427
451
480
502
510
507
507
484
444
421
415
412
415
401
393
386
391
403
409
421
435
451
476
498
514
527
528
508
471
443
424
420
419
413
398
394
405
425
421
422
434
456
473
484
480
474
463
451
443
430
415
412
400
386
377
379
389
404
423
433
436
451
460
465
466
473
487
474
460
448
447
462
448
408
408
430
417
402
404
420
443
470
491
508
513
502
484
473
478
459
429
422
429
420
427
438
434
434
442
457
463
476
500
525
519
507
499
494
486
469
460
445
448
445
440
450
460
471
484
492
500
514
524
534
545
552
553
546
529
512
488
468
457
441
429
430
434
446
438
439
458
481
499
510
511
509
503
496
494
477
467
452
439
432
435
431
421
409
412
405
417
438
455
465
466
473
476
468
459
440
430
409
381
374
379
383
396
409
421
422
431
453
482
500
509
500
486
464
447
428
417
402
405
413
397
388
400
422
413
402
420
438
448
464
470
484
486
473
465
420
389
383
387
397
391
390
402
411
426
415
409
429
449
463
482
484
490
443
416
410
408
411
411
392
384
391
404
409
413
403
414
430
441
448
434
422
417
417
401
387
392
409
418
434
457
480
517
553
597
657
715
774
830
887
942
975
989
989
988
988
987
987
987
987
986
985
984
984
984
984
984
984
985
986
987
988
961
847
737
615
474
353
260
198
162
167
192
219
258
290
312
347
370
389
381
358
336
324
311
302
292
289
278
270
268
275
302
297
301
317
323
345
358
357
354
342
343
338
332
321
297
282
277
276
289
305
322
326
321
321
334
361
392
407
417
414
401
406
393
375
349
333
321
310
317
333
350
355
368
377
382
393
396
397
395
401
395
380
373
372
387
375
342
337
335
347
361
372
377
383
398
429
454
455
451
457
458
452
459
447
386
369
368
372
374
375
383
387
400
414
435
467
482
483
487
489
484
468
457
445
430
404
393
391
392
399
412
426
443
455
482
495
502
506
520
517
499
480
463
454
443
435
431
437
439
432
445
460
478
496
517
538
552
555
555
553
546
549
534
498
456
444
438
438
427
425
451
466
475
484
502
526
550
564
570
564
562
562
554
540
532
522
509
488
478
478
499
499
507
509
536
562
578
580
583
576
556
544
537
522
507
498
495
485
479
479
485
490
486
488
511
532
552
568
570
565
559
543
527
521
511
482
465
440
430
431
435
441
446
446
456
462
467
468
477
456
440
447
425
392
366
355
352
348
343
337
357
384
380
377
390
409
440
440
433
423
421
421
390
360
343
327
319
320
325
341
359
364
365
363
376
392
406
407
405
400
387
384
366
349
326
325
316
316
318
325
341
354
357
361
366
388
405
416
429
417
413
414
406
393
373
358
344
332
333
342
356
367
377
384
400
412
426
429
431
423
408
399
389
378
369
362
352
347
337
339
352
358
363
386
409
444
463
471
476
463
460
441
417
403
391
387
384
384
387
394
401
403
401
402
420
435
448
458
461
463
452
443
426
406
384
378
386
395
379
372
384
403
416
438
455
466
485
495
480
452
440
442
449
433
414
406
403
412
414
408
416
422
420
416
430
458
481
511
505
502
495
476
458
437
417
403
397
388
397
410
426
446
471
448
438
463
487
487
465
452
443
441
424
415
411
400
394
391
388
401
410
419
427
436
445
460
480
488
482
481
469
442
418
400
401
406
396
393
399
407
419
430
439
450
458
481
500
512
503
473
470
469
459
446
425
402
389
381
392
396
403
402
408
419
445
455
471
475
477
478
474
466
448
428
426
408
395
385
384
396
408
423
438
448
475
493
502
517
499
493
491
467
446
427
415
423
422
409
401
399
407
426
433
442
462
480
494
501
502
490
471
440
414
399
397
391
394
394
402
414
424
430
440
439
459
464
471
473
479
483
478
464
443
436
432
423
422
409
400
411
422
430
434
454
479
510
538
533
517
499
480
453
418
398
397
376
365
369
373
391
406
423
436
446
470
494
507
512
508
498
493
483
463
440
427
420
416
423
446
451
439
448
467
466
476
496
509
516
513
500
488
480
462
449
449
438
431
432
444
460
469
483
491
497
521
540
535
529
529
525
517
510
497
472
454
448
453
454
453
461
472
481
469
475
491
508
516
523
512
509
510
499
471
464
455
432
413
411
418
432
434
440
442
452
470
482
476
458
445
438
444
458
434
413
412
410
407
403
405
412
402
410
431
461
482
503
494
482
457
445
436
416
387
380
372
367
362
362
374
389
401
416
422
435
457
485
484
466
463
460
451
437
423
411
401
385
383
385
394
399
402
409
423
442
460
475
479
488
485
480
473
458
453
453
422
411
408
407
415
410
401
407
410
409
417
422
424
424
419
411
405
385
378
367
375
392
414
429
447
479
493
509
547
601
673
724
774
824
860
907
948
982
989
989
988
988
987
986
986
985
984
983
983
983
983
983
983
984
986
987
988
958
833
709
605
466
334
250
187
145
148
182
210
242
281
313
334
346
350
351
349
342
323
314
315
306
295
284
286
292
303
308
315
334
355
369
377
379
371
361
355
347
321
295
283
272
268
270
283
281
294
309
319
328
343
359
374
376
379
376
374
360
345
335
316
305
312
316
320
323
329
341
350
382
421
448
438
430
423
421
418
428
397
354
345
339
340
342
341
347
347
356
370
391
411
432
448
456
459
448
447
437
405
377
370
365
368
372
380
390
392
400
407
429
460
480
482
492
484
481
475
461
437
423
411
405
399
398
393
415
432
448
457
475
489
508
521
525
529
528
518
504
493
469
457
434
405
406
411
429
445
459
470
486
500
516
523
520
515
519
521
491
473
459
455
453
440
452
459
478
486
498
510
533
554
568
569
571
577
572
559
543
530
524
520
511
506
510
506
509
516
529
546
568
588
605
593
595
605
602
586
548
513
500
483
476
467
465
471
482
493
502
513
533
553
568
562
549
537
529
507
483
473
462
453
450
448
441
414
416
430
429
442
463
488
488
483
471
466
452
449
429
410
397
387
376
373
370
364
369
384
394
400
414
433
453
456
452
442
425
403
369
349
339
334
329
327
319
322
332
348
354
356
372
396
413
424
427
415
397
387
374
368
358
355
341
345
352
351
341
327
319
328
371
404
409
424
423
408
380
359
337
327
320
318
322
323
330
348
371
373
379
381
389
410
428
433
434
431
419
405
386
367
357
352
347
338
326
334
346
362
375
385
406
427
447
463
462
442
431
424
410
391
380
363
354
352
359
381
392
395
403
415
410
422
434
446
458
465
470
437
417
411
411
404
397
394
401
417
415
424
431
433
443
458
459
460
456
460
467
448
424
401
391
368
358
364
371
381
396
412
423
432
459
480
485
491
489
485
481
471
456
446
439
410
392
396
401
411
423
430
437
442
460
478
490
500
526
491
470
457
443
426
412
396
389
381
388
400
411
420
429
441
466
486
499
498
493
490
486
471
454
439
432
415
404
401
400
389
401
413
431
454
475
479
477
491
488
479
481
480
463
437
424
400
381
371
390
416
423
426
429
437
456
471
483
498
494
477
469
449
431
417
413
407
402
405
381
381
386
395
401
420
442
461
475
484
487
483
479
472
455
437
423
408
401
402
415
431
431
441
447
455
478
497
500
505
496
483
472
458
437
421
419
409
386
382
386
398
410
418
424
443
466
481
489
495
488
478
471
468
457
441
430
417
410
401
398
404
408
415
426
442
472
504
507
510
507
504
489
472
445
420
408
400
402
411
402
408
415
426
431
443
460
487
501
495
493
496
488
475
455
436
416
398
391
393
410
432
444
459
457
462
464
462
470
487
502
489
475
452
427
412
409
403
398
409
416
425
436
442
444
456
468
485
497
502
498
495
491
484
468
465
455
437
430
453
447
437
434
436
448
469
491
498
501
512
515
504
494
479
462
446
443
437
435
441
467
489
477
476
493
515
537
553
555
551
549
537
520
498
468
450
441
444
450
450
460
462
462
474
485
502
520
537
554
550
547
539
532
517
494
469
456
437
422
412
411
414
409
412
425
437
455
465
469
474
474
466
462
454
445
428
417
403
384
375
374
386
404
410
422
449
479
490
481
476
467
460
454
437
425
411
404
393
390
397
401
407
405
413
432
446
465
475
476
462
452
454
460
461
461
435
414
403
406
401
374
380
394
414
428
448
471
488
496
499
492
478
475
467
447
430
425
410
387
383
389
402
409
412
427
439
457
478
482
486
493
484
464
442
419
400
389
362
328
319
336
364
377
382
400
441
483
519
552
582
605
614
632
652
678
710
752
792
846
900
960
989
988
988
987
986
985
984
983
983
983
983
983
983
984
985
986
987
988
955
855
757
663
567
452
370
308
274
257
257
267
279
293
301
296
297
289
285
288
292
299
308
321
319
316
341
356
364
372
372
381
381
360
341
352
314
278
286
288
286
291
304
314
315
318
345
354
382
380
362
355
352
339
333
324
320
315
313
312
314
317
322
327
336
352
382
406
416
421
426
421
409
393
378
370
371
357
343
340
347
350
356
363
371
380
407
428
436
434
445
437
451
448
416
390
378
368
367
373
378
375
375
381
388
396
425
458
450
450
457
462
458
459
442
441
455
437
401
388
389
407
424
442
463
482
518
526
527
523
512
497
484
453
433
421
420
413
403
435
455
431
400
410
430
444
473
486
508
524
545
564
550
520
521
490
470
458
449
442
455
449
447
458
466
480
502
530
551
574
575
565
557
548
533
525
522
512
503
500
504
517
526
532
533
541
565
585
596
591
584
565
545
538
529
522
519
514
511
514
511
514
517
524
523
536
554
573
583
596
588
583
560
538
512
502
498
492
485
496
496
498
500
500
491
484
503
511
496
499
511
518
512
513
471
455
428
409
400
403
415
411
405
399
389
398
421
435
450
461
464
461
447
433
419
408
380
369
357
349
324
324
336
350
358
372
397
415
428
439
446
436
419
403
372
349
335
326
319
325
324
324
330
338
354
371
387
401
408
418
421
420
426
408
393
378
372
334
308
314
337
362
407
394
360
354
377
409
434
440
436
425
412
406
390
370
370
362
360
352
349
359
366
368
366
387
429
447
458
456
439
432
428
420
421
400
388
376
372
367
373
385
394
402
406
415
437
464
487
490
482
475
464
443
427
404
383
384
373
364
374
378
397
407
406
423
454
466
486
476
469
466
469
465
455
434
423
406
398
387
382
395
411
424
431
440
463
492
499
496
490
482
490
491
475
460
452
434
417
409
423
431
438
459
463
447
452
466
471
475
468
468
461
453
441
428
417
409
408
409
418
436
447
454
454
461
470
485
505
514
520
529
537
491
466
448
430
418
419
419
421
441
442
443
443
449
462
485
494
495
500
493
474
462
454
424
395
393
400
403
411
421
425
446
463
488
506
510
514
509
508
517
495
464
439
420
407
396
385
388
392
407
417
430
454
480
476
484
501
513
513
503
486
477
466
454
446
426
413
407
413
435
451
452
460
495
500
497
506
513
485
475
478
471
455
431
410
402
400
407
410
419
427
438
443
464
494
510
515
509
506
498
487
477
470
445
436
433
444
460
439
425
423
431
440
466
488
476
477
490
493
483
480
465
449
441
418
404
408
424
433
453
462
473
466
467
486
505
516
520
523
511
510
493
452
426
414
401
398
412
420
424
436
445
459
485
508
510
520
519
515
500
491
475
450
427
420
410
410
410
421
438
458
472
489
508
520
503
498
477
466
458
461
456
453
438
435
425
413
421
434
454
456
457
460
464
492
509
510
510
510
510
521
509
493
468
454
445
438
450
464
465
449
447
453
473
506
532
549
554
543
525
506
483
463
448
443
443
438
430
428
457
481
473
489
512
545
578
596
566
561
562
537
514
505
493
482
473
472
478
486
490
486
486
487
503
516
531
539
540
538
529
522
509
483
466
472
499
461
445
461
465
472
477
483
500
526
544
556
551
518
481
452
418
414
412
416
418
410
412
424
435
435
432
442
463
491
508
501
498
496
485
472
465
453
431
425
410
390
406
424
437
448
469
475
482
487
493
483
482
488
492
479
442
417
404
403
396
394
402
405
415
426
431
437
457
480
495
501
505
492
481
466
450
434
426
414
408
401
404
409
418
431
438
451
470
477
492
497
492
488
484
484
458
450
441
437
419
409
407
382
383
388
380
393
416
437
447
457
477
482
501
522
523
509
497
496
522
546
588
639
688
741
801
873
959
989
988
987
987
987
986
986
985
985
984
984
984
984
984
984
984
985
986
987
988
989
915
823
732
624
490
375
280
218
192
197
204
224
253
285
292
298
311
328
351
385
405
409
393
377
369
362
369
356
340
335
338
320
316
312
309
306
302
314
337
361
374
378
376
366
361
355
337
318
305
293
294
288
296
311
324
342
360
375
393
435
444
415
388
380
384
386
370
347
337
341
345
349
361
357
365
382
400
422
433
440
447
448
462
448
450
425
389
378
376
368
362
364
375
372
383
398
409
422
443
465
474
481
478
472
464
457
438
426
412
409
407
413
426
436
438
444
439
447
464
486
500
507
509
519
510
484
464
447
431
425
418
415
419
430
446
452
460
479
508
527
538
542
533
520
512
503
491
477
473
466
459
453
462
473
483
495
504
528
554
579
589
588
582
569
566
558
524
508
491
486
491
494
516
525
524
537
531
544
557
557
586
600
583
579
588
573
555
536
521
518
510
514
521
522
520
522
532
551
567
584
587
587
586
577
572
562
546
547
538
519
493
464
472
485
501
519
525
537
557
582
600
568
551
541
533
513
482
453
445
431
421
421
425
431
437
442
447
450
468
492
501
489
479
461
450
448
432
413
372
343
335
336
357
377
377
389
404
422
443
460
472
470
458
450
445
424
397
369
353
333
328
326
327
336
346
356
382
398
416
427
435
431
414
406
403
390
381
367
358
337
320
310
307
313
324
333
342
366
408
431
436
464
434
403
400
391
373
360
361
358
349
338
339
352
371
390
389
396
416
434
407
404
410
416
416
402
396
391
377
354
344
341
353
370
381
395
404
422
444
465
491
499
460
449
433
428
425
419
412
391
384
383
376
380
387
400
416
426
445
466
478
494
493
492
490
479
466
442
417
397
385
399
408
407
427
457
424
431
453
474
482
481
476
470
463
447
430
416
404
400
400
400
406
418
432
451
464
479
483
497
513
522
496
473
458
442
431
425
423
424
415
405
406
416
423
433
438
470
483
462
474
477
472
476
474
464
454
449
433
407
402
406
414
428
437
446
453
474
497
517
525
518
511
500
482
455
439
426
414
412
397
397
413
428
442
454
470
491
523
559
551
512
504
493
484
459
427
411
401
390
391
402
415
432
425
429
445
459
469
488
494
490
488
493
494
471
445
416
400
392
398
410
409
417
433
450
456
460
473
490
508
512
510
500
487
466
446
428
411
395
390
399
411
423
434
438
449
471
491
490
481
480
489
492
481
431
424
419
401
399
398
405
419
439
453
445
440
450
477
497
499
490
489
487
481
466
435
420
419
411
404
408
411
407
423
437
467
522
535
543
561
562
546
508
492
458
429
418
418
404
396
390
400
405
409
418
433
455
484
487
484
490
495
468
453
445
437
422
423
420
408
408
411
418
429
427
433
457
480
501
506
504
502
498
493
477
459
446
426
416
415
426
439
444
444
451
468
498
502
500
510
517
521
519
497
454
439
429
430
433
439
444
450
462
476
484
486
511
533
522
520
522
531
510
495
482
458
442
435
426
435
453
469
481
480
489
509
515
527
537
544
551
549
548
539
522
511
491
477
474
467
471
476
481
486
487
490
506
520
528
536
542
520
514
518
513
497
461
436
440
451
439
430
441
449
455
454
479
501
502
499
496
484
477
464
450
461
445
400
375
349
356
381
393
388
406
439
469
488
504
511
507
498
484
471
460
450
446
449
442
425
418
427
428
416
409
412
429
453
468
477
471
463
463
458
431
417
402
391
390
385
393
395
395
393
395
418
446
467
488
492
485
475
465
460
461
430
409
401
394
393
400
421
420
421
431
438
454
471
476
481
483
479
463
450
430
413
400
390
382
373
371
370
375
394
423
439
455
495
544
567
559
567
580
602
616
619
635
673
718
775
834
894
947
989
988
987
987
986
985
985
984
983
983
983
983
983
984
985
986
987
988
983
876
791
701
633
544
442
363
303
252
230
240
255
267
267
275
263
258
260
256
269
286
307
333
360
380
394
394
393
384
370
359
345
324
315
328
314
293
294
303
318
325
340
353
359
361
382
367
363
360
357
350
348
342
348
352
333
317
313
311
322
337
344
340
375
398
410
422
422
421
417
412
406
388
365
355
347
339
339
344
343
340
365
362
374
397
421
442
446
447
444
441
430
401
383
381
370
379
387
393
410
422
424
433
453
482
493
497
487
478
477
464
460
453
446
434
401
376
370
367
371
386
402
427
456
475
489
504
503
504
516
509
480
468
460
457
448
448
448
455
457
448
452
468
492
520
531
532
541
547
541
547
557
545
522
485
448
431
432
447
462
478
488
498
503
515
533
552
557
557
552
547
535
519
509
507
500
500
499
505
511
518
523
531
550
570
585
595
605
614
597
587
584
577
549
529
527
533
530
527
525
520
521
528
543
565
587
596
606
600
601
585
525
519
510
494
482
469
460
465
481
493
492
494
509
541
567
569
525
498
490
493
489
477
451
436
418
405
401
413
422
421
424
432
433
441
445
444
449
444
441
432
416
413
405
396
393
379
370
364
367
365
367
376
400
420
441
446
446
438
415
387
354
325
315
312
314
317
324
333
345
349
355
362
382
401
420
437
433
406
378
363
345
341
335
316
317
318
326
315
314
322
334
343
365
387
408
425
428
413
393
368
350
339
339
324
309
310
320
335
355
377
398
381
380
392
412
427
440
437
421
404
393
396
374
362
364
364
372
387
410
388
382
396
411
418
441
452
454
458
459
452
411
379
367
359
348
349
354
367
382
395
411
419
439
460
477
504
523
501
469
446
425
410
397
388
383
384
388
398
415
424
433
446
466
486
508
523
547
553
505
458
412
378
369
363
356
359
360
379
386
402
424
428
443
446
464
486
488
490
479
467
446
426
417
422
416
394
395
409
423
432
436
438
451
465
484
489
487
485
479
474
451
430
414
404
396
395
400
412
426
441
459
477
495
507
507
505
499
493
480
469
452
434
422
412
403
395
404
422
427
426
435
448
462
482
492
496
506
511
511
504
494
476
448
427
414
406
378
369
375
392
406
407
407
439
463
479
474
462
460
456
438
424
404
395
389
380
389
402
417
425
437
454
467
476
488
481
473
471
473
468
451
443
436
425
416
413
415
423
436
453
461
475
492
510
533
502
473
480
483
449
405
375
363
360
370
381
397
410
418
424
434
444
460
479
497
505
504
504
498
482
452
434
413
407
407
415
411
411
420
435
445
455
469
497
522
537
541
543
533
493
460
431
412
391
386
378
386
394
407
417
433
461
495
518
545
548
541
518
493
462
439
428
433
432
436
441
454
473
480
474
475
487
493
504
520
536
549
544
544
545
530
486
472
463
462
455
467
480
483
482
481
470
485
494
508
516
516
517
513
507
496
493
491
459
457
464
469
456
432
424
417
426
443
446
435
443
453
451
450
427
394
371
369
372
373
382
395
411
424
437
447
446
464
500
479
463
461
455
456
439
400
390
391
391
385
385
380
393
411
431
443
469
478
488
490
480
463
452
443
434
411
398
401
386
372
367
379
384
400
416
431
442
460
482
502
507
507
500
495
490
475
446
425
412
402
397
400
406
405
404
409
421
439
460
463
476
469
473
470
453
414
380
355
349
350
365
383
402
429
462
503
521
531
571
615
637
667
698
721
746
766
790
824
859
907
955
989
989
988
988
988
987
986
985
985
985
985
985
986
987
988
989
889
780
701
633
566
513
440
343
280
258
248
271
299
316
312
315
326
319
309
293
284
276
286
293
303
303
299
303
322
355
382
398
419
427
423
390
346
338
335
329
309
293
296
299
319
330
333
338
346
370
397
414
428
416
412
405
397
389
372
360
359
352
337
333
333
336
337
339
355
382
400
421
434
438
438
428
418
408
398
392
377
363
358
354
367
386
404
410
415
435
457
466
472
475
476
480
482
460
442
419
403
407
408
382
376
381
391
402
418
447
479
496
498
485
493
472
437
428
432
421
406
410
426
410
401
419
441
440
449
476
503
521
532
528
530
533
535
510
488
471
465
462
452
434
443
452
464
458
466
480
501
526
543
552
544
532
534
527
514
500
483
476
475
476
495
518
512
518
532
556
575
592
603
591
578
576
583
545
512
504
493
485
482
495
507
521
523
513
523
548
579
608
617
629
624
604
597
585
574
572
571
565
553
547
546
538
545
539
525
545
566
597
589
568
563
553
541
530
516
502
491
478
461
456
459
470
478
497
511
514
526
538
535
539
529
508
503
494
476
454
432
416
406
398
402
402
402
394
397
408
420
429
447
434
419
403
391
371
347
335
340
325
319
334
329
313
317
338
353
379
401
415
409
396
386
385
373
348
330
318
313
300
290
301
319
341
363
344
338
358
383
408
413
404
380
361
356
348
340
330
310
300
312
299
297
313
333
354
365
380
398
414
425
444
437
396
389
379
367
354
340
328
330
336
348
360
358
366
370
400
416
422
439
450
435
427
420
407
390
394
401
372
357
365
377
387
389
391
393
411
426
430
424
424
419
409
404
398
386
371
367
374
375
384
400
408
410
385
363
377
410
441
454
461
462
458
448
434
416
410
397
381
384
405
438
430
423
441
443
454
462
468
477
485
485
447
433
426
419
408
404
403
401
397
400
412
430
438
452
470
483
490
495
494
494
490
479
462
447
438
440
430
423
424
436
444
455
457
454
452
456
454
458
464
460
455
459
468
442
425
414
369
351
356
374
387
401
422
451
474
489
478
482
477
472
465
463
458
450
435
411
388
370
375
397
408
419
427
439
457
470
487
498
496
487
481
475
466
452
448
439
411
382
368
377
390
403
417
442
470
488
486
499
494
492
496
485
463
444
421
403
391
389
397
406
420
437
437
459
477
486
506
504
495
494
500
471
433
414
416
411
409
409
415
420
425
429
442
462
483
495
492
486
477
468
452
436
427
419
395
373
376
373
383
397
401
400
401
426
455
473
484
487
500
482
477
468
458
444
436
428
420
417
420
429
438
455
454
464
511
538
527
518
517
494
457
458
452
435
421
420
413
417
419
425
437
454
465
486
503
517
527
534
532
522
518
512
500
483
481
479
476
472
479
478
473
475
485
496
514
527
530
528
523
520
509
500
478
451
447
445
439
443
450
461
478
495
494
494
517
540
520
502
492
479
470
450
420
396
390
383
373
363
358
368
381
403
409
421
450
473
489
481
476
477
477
457
430
402
388
379
373
371
394
416
425
426
426
447
448
452
472
473
462
446
446
446
430
422
419
408
379
371
383
407
399
368
374
402
433
468
489
488
480
479
471
455
443
432
429
418
413
405
399
397
395
404
414
435
463
488
506
512
503
483
461
442
432
406
377
366
364
359
369
377
373
380
397
417
443
465
491
513
537
550
565
581
600
605
621
655
696
745
806
877
927
983
989
988
987
987
986
985
985
984
984
984
984
984
985
985
986
988
988
955
840
747
664
610
528
425
350
298
271
256
258
263
263
259
256
238
235
242
248
265
299
332
322
320
332
347
360
367
377
373
368
359
337
319
314
299
288
278
286
306
323
332
334
346
360
370
372
382
389
382
369
352
336
320
302
283
282
294
314
329
338
343
356
381
409
439
425
414
417
418
422
414
398
389
381
372
375
359
342
338
341
356
370
401
428
425
437
444
443
442
439
421
403
381
375
372
354
359
383
404
421
427
428
437
458
485
497
505
515
511
514
502
439
400
377
373
373
394
398
387
393
408
420
433
453
472
477
483
483
474
468
462
450
421
403
426
433
422
414
428
434
436
444
462
489
512
529
536
536
523
510
492
480
473
460
449
439
443
457
471
481
489
500
515
527
540
550
561
567
562
551
535
518
507
511
493
487
493
494
502
514
523
539
556
573
589
590
589
589
582
574
558
543
533
523
523
527
540
542
523
524
533
549
565
575
577
580
597
599
587
573
545
520
489
476
467
457
458
480
482
462
454
464
490
521
546
545
525
514
504
492
483
473
455
439
409
386
381
389
404
416
405
386
395
412
437
450
446
449
458
439
407
389
378
366
353
349
347
351
361
371
381
387
398
408
413
414
414
406
389
381
366
347
343
337
332
331
329
338
338
340
353
362
378
405
418
407
388
378
380
398
388
359
343
331
325
318
314
318
328
341
360
371
399
417
425
426
421
411
410
409
407
402
400
392
374
361
334
332
348
367
377
409
436
450
457
464
455
411
391
372
347
329
327
328
333
339
350
358
368
377
386
393
417
440
458
462
467
466
462
455
434
417
400
375
366
362
377
413
417
424
444
453
431
442
457
468
469
480
482
464
447
423
413
407
372
362
360
370
390
405
417
418
436
462
473
482
488
482
471
459
436
422
411
403
398
385
392
401
408
419
425
439
462
479
486
479
470
477
494
488
478
466
455
442
427
404
394
408
426
443
461
472
486
492
505
511
494
479
472
460
446
430
422
414
408
394
404
422
427
434
430
443
470
505
540
504
465
457
460
460
450
440
429
417
412
406
408
416
421
430
430
445
477
497
508
517
503
496
490
482
466
449
437
425
419
423
448
436
431
434
437
452
465
488
507
509
509
488
476
459
442
432
420
405
400
396
402
414
428
429
439
459
453
466
476
486
482
480
481
477
461
439
431
428
426
420
427
436
441
425
424
442
475
506
530
526
531
536
533
520
493
474
446
412
384
386
396
402
405
423
424
431
461
485
503
519
511
505
497
483
465
444
432
429
421
423
428
429
443
442
449
470
492
514
519
509
498
491
488
471
457
451
457
437
429
406
412
429
444
457
471
487
504
515
527
532
536
538
540
531
514
489
472
446
413
404
413
430
446
461
475
484
506
524
522
527
536
516
496
502
488
464
446
447
445
445
469
479
479
487
491
512
523
535
560
570
564
535
530
529
524
514
500
487
476
482
487
492
515
517
514
518
535
554
559
566
573
560
542
533
528
501
486
466
458
458
468
465
456
463
471
496
514
524
528
528
520
516
508
492
469
447
434
423
416
429
432
442
447
460
473
493
510
515
507
509
514
516
514
504
504
475
440
434
435
431
447
471
453
444
444
460
474
483
498
507
505
506
503
492
455
425
415
407
407
409
413
422
427
442
460
486
511
530
542
537
511
470
469
461
454
444
442
430
427
430
435
452
465
464
465
483
509
532
551
552
529
513
493
473
460
446
422
409
380
364
367
389
410
428
452
500
560
603
617
644
655
658
668
686
715
754
791
806
853
900
971
989
988
987
987
986
985
984
983
983
983
983
982
983
983
984
985
986
987
988
971
884
788
705
603
513
439
377
345
326
322
326
337
338
338
327
303
296
288
292
300
315
336
352
367
391
410
430
451
433
407
401
404
395
378
362
345
325
320
326
333
350
364
379
390
399
414
422
419
422
433
430
417
396
373
363
364
363
360
347
346
363
380
384
401
424
449
467
478
479
476
471
462
459
443
410
397
406
395
391
401
409
432
459
475
492
502
510
509
507
501
483
473
462
457
446
462
449
403
398
410
421
434
451
463
492
530
553
564
570
564
556
542
523
512
496
487
466
448
445
451
467
485
499
507
517
526
540
542
551
558
546
539
524
506
494
487
475
475
485
498
516
520
524
535
549
570
587
594
605
616
586
569
564
560
544
537
538
534
555
563
557
551
557
585
604
611
637
657
661
644
619
607
598
588
594
571
554
554
550
553
560
563
569
589
613
638
655
665
668
667
658
649
638
626
611
600
586
580
576
586
605
601
609
624
645
661
658
655
644
650
640
646
610
573
556
549
539
542
544
550
561
566
570
571
581
598
590
588
589
592
563
540
526
511
497
483
471
461
465
475
488
496
502
517
538
536
543
552
555
549
543
518
485
451
438
425
419
426
414
401
415
422
432
442
460
476
496
513
509
488
470
460
446
434
419
412
408
401
407
421
433
437
445
447
465
484
484
477
475
483
493
463
440
414
412
414
408
405
399
391
401
421
437
447
483
511
516
530
515
502
493
495
466
443
427
415
413
413
431
443
434
439
438
450
466
486
509
521
526
526
516
510
494
485
478
473
467
476
480
479
480
486
498
511
528
535
529
524
512
501
495
498
489
477
465
460
457
456
458
478
466
464
479
501
529
546
555
566
566
558
549
542
528
514
507
498
486
486
488
488
484
479
467
482
510
532
568
574
558
544
542
539
525
509
506
491
467
461
470
487
505
515
517
539
573
606
618
625
621
591
564
563
539
491
469
465
452
450
459
465
470
486
497
518
539
558
578
585
591
587
574
563
547
533
527
509
504
492
490
506
518
527
533
539
557
574
569
565
557
548
542
532
514
499
488
481
476
477
488
499
511
507
498
511
536
554
572
566
561
568
581
558
528
508
498
494
486
482
509
505
501
515
531
546
563
581
592
597
584
574
560
541
527
517
493
473
463
459
473
488
503
519
538
561
579
587
591
589
576
562
565
582
559
511
502
502
497
478
466
479
482
478
487
497
509
539
559
579
577
563
551
533
521
506
497
478
464
462
479
497
511
519
523
536
558
576
583
583
587
562
538
524
512
499
500
496
501
497
483
483
482
486
498
513
540
568
584
567
559
557
556
553
529
507
501
496
488
491
500
514
522
528
536
563
586
606
604
596
584
566
561
534
519
491
469
463
461
466
478
500
502
499
518
541
550
547
559
571
577
566
551
543
529
509
496
481
481
487
502
531
533
536
543
562
579
587
585
577
572
572
565
559
536
521
514
511
502
483
480
488
500
519
543
558
563
584
597
606
625
628
600
557
541
532
524
526
517
509
521
531
539
550
561
579
600
623
647
637
626
628
624
601
572
560
561
550
534
519
504
505
513
526
536
556
575
601
601
588
580
565
547
538
515
496
482
466
457
458
476
461
434
446
468
494
522
543
565
558
535
529
523
509
493
487
480
473
473
472
479
488
496
502
503
510
527
539
551
564
571
558
540
506
470
449
446
447
443
443
452
460
464
475
484
492
496
514
526
530
529
526
517
500
486
477
464
454
453
449
455
463
472
484
494
513
539
560
578
586
584
571
550
531
521
507
496
490
471
462
464
472
471
446
443
453
461
478
490
485
495
499
511
512
509
519
530
545
565
591
628
679
733
791
852
923
989
988
988
988
987
987
986
986
986
985
984
984
984
984
984
984
984
984
985
985
986
987
989
958
846
722
594
466
377
299
243
215
216
228
255
292
316
337
350
359
390
408
424
430
431
424
417
397
376
367
362
347
365
363
350
342
345
351
369
387
410
427
442
437
427
409
393
370
362
348
346
350
360
359
356
365
372
372
381
397
413
429
431
437
444
437
425
404
386
377
382
373
364
360
362
375
382
398
423
441
465
478
484
490
480
477
476
472
455
432
412
405
391
392
392
403
415
427
431
445
469
493
504
512
502
483
484
488
485
457
460
473
466
447
447
454
437
436
440
466
504
514
518
515
507
506
503
496
484
475
466
459
454
459
457
467
483
503
536
569
569
573
569
568
564
554
532
498
477
469
466
462
458
465
476
492
510
528
530
547
566
581
586
585
588
585
586
585
563
530
512
504
510
519
534
548
554
565
576
613
625
616
609
603
594
587
582
569
553
552
549
553
550
551
556
541
539
548
561
587
609
619
629
622
610
598
591
582
570
551
541
526
523
519
522
537
544
542
549
567
581
587
581
576
582
567
542
536
532
503
467
461
463
470
470
470
480
481
479
493
516
528
530
533
528
516
495
456
432
424
433
418
402
389
393
396
401
409
417
420
437
449
444
436
437
405
376
378
382
374
364
359
347
345
359
374
386
392
398
419
434
439
441
423
417
414
413
373
347
337
339
342
346
331
340
353
373
381
393
414
432
445
447
446
451
449
431
407
388
376
354
352
362
383
382
390
391
377
384
406
429
444
467
467
455
451
442
423
398
385
377
375
374
387
398
410
422
431
443
453
459
476
477
482
481
470
451
429
425
412
391
382
370
385
403
401
409
420
433
459
482
497
506
485
477
476
462
444
432
423
417
386
384
403
415
417
391
400
436
458
474
484
487
488
490
483
468
448
441
434
422
410
403
408
421
435
446
452
483
532
539
500
503
497
469
461
464
456
443
430
420
407
408
416
429
441
455
469
487
501
512
510
508
503
503
504
495
481
474
473
468
451
430
442
441
455
473
489
510
526
525
509
487
480
483
474
447
427
410
413
405
400
399
404
416
425
436
447
457
481
495
500
511
511
506
492
467
447
436
430
434
423
426
434
447
449
447
449
461
473
481
485
489
494
498
482
464
449
432
424
416
413
399
397
413
428
441
455
466
472
478
477
489
489
497
522
496
446
425
423
436
446
451
451
455
452
452
458
481
492
508
518
501
501
497
489
479
467
451
434
424
403
397
411
418
419
434
445
464
493
510
510
499
493
482
491
478
436
419
412
404
395
400
411
427
437
452
460
476
495
508
514
510
506
500
492
476
452
432
418
404
401
390
390
401
403
415
432
457
481
496
510
513
504
499
493
478
461
442
428
419
412
420
432
445
455
464
467
479
495
512
516
505
500
502
502
490
480
472
463
416
388
383
403
408
408
423
436
460
485
507
514
514
509
503
501
489
478
459
443
429
421
425
443
455
462
471
475
486
491
501
504
502
509
495
467
455
445
443
438
436
439
448
435
439
452
469
475
485
495
513
524
528
536
519
511
513
506
481
465
458
447
437
447
464
469
474
483
502
516
536
551
549
545
534
523
505
485
477
471
464
461
465
475
469
470
478
488
507
517
529
541
538
528
517
515
492
470
458
443
428
420
415
405
405
417
424
436
468
480
491
473
458
468
476
453
432
420
413
404
402
397
401
416
443
465
461
465
473
484
500
516
512
499
477
462
453
449
441
437
429
417
418
418
421
423
413
410
421
432
445
442
437
434
428
416
397
390
387
380
376
378
398
403
403
411
422
440
460
471
482
489
476
467
463
462
444
420
402
394
390
389
391
403
415
422
427
441
453
473
482
483
483
480
467
452
417
390
367
353
358
368
394
435
475
508
505
522
560
612
659
705
753
798
838
877
915
949
986
989
988
987
987
986
986
985
984
983
983
983
982
982
983
984
985
986
988
974
866
765
656
539
430
333
244
190
146
150
198
250
295
327
343
326
321
328
316
301
310
288
269
275
282
277
279
291
312
332
351
366
376
376
368
355
351
356
335
321
320
312
299
283
278
286
302
316
328
362
383
372
375
395
407
389
382
370
343
315
306
302
298
302
309
322
333
343
360
378
402
406
404
417
425
419
411
398
385
378
372
363
361
363
368
380
388
385
377
381
403
426
444
458
458
458
458
444
419
405
406
398
380
365
358
368
378
386
402
416
443
471
478
482
487
485
476
472
460
425
405
401
405
406
417
427
433
432
431
444
468
484
503
501
505
499
494
499
487
453
446
446
439
435
442
451
454
463
475
485
509
532
546
555
549
535
535
522
487
478
485
501
486
438
445
459
469
480
490
507
530
557
581
588
590
588
589
587
577
553
533
508
496
487
482
485
491
510
526
540
567
581
586
591
581
576
576
581
546
518
514
511
504
500
493
497
501
506
506
517
543
568
581
585
578
562
542
528
504
495
492
482
474
467
471
481
484
476
463
469
489
510
523
528
510
497
480
464
443
423
403
389
374
373
376
390
396
397
415
433
445
459
465
468
468
446
428
413
394
383
366
345
327
324
345
350
353
359
361
374
394
409
416
407
385
373
374
365
350
347
341
310
277
276
306
341
349
346
350
361
375
393
415
400
395
394
394
384
370
359
342
321
309
300
303
318
325
340
354
373
398
415
426
437
428
421
417
409
398
378
372
362
356
355
361
375
396
395
382
379
397
418
446
458
437
427
420
412
399
379
375
370
374
377
381
381
383
386
395
415
441
459
466
474
472
463
462
446
420
401
372
360
356
358
380
405
419
412
417
433
454
466
474
477
467
470
465
454
436
417
402
386
371
372
386
402
405
402
401
419
451
469
478
474
467
458
451
441
433
414
410
403
404
407
420
436
453
457
447
455
470
482
490
510
487
468
460
454
445
437
425
414
398
382
385
393
401
414
424
458
484
501
493
492
491
487
468
454
439
420
410
403
396
391
404
426
435
449
461
455
470
478
486
478
486
479
474
464
452
440
436
430
420
416
410
407
397
412
434
433
455
484
497
494
494
482
462
445
423
412
401
390
400
408
409
406
411
425
445
449
471
491
500
507
496
485
476
463
440
408
396
390
384
389
402
418
425
423
428
444
460
480
497
501
496
494
483
465
435
427
421
415
409
393
400
420
431
442
441
453
472
489
500
505
516
497
480
463
449
437
423
407
395
400
414
429
437
433
432
450
469
487
470
464
464
469
467
452
432
420
411
401
396
408
422
440
440
439
436
444
465
480
486
493
498
495
483
466
446
431
412
400
400
406
427
442
427
427
439
464
487
511
526
522
508
483
466
442
419
404
396
390
392
396
397
409
420
430
440
459
485
500
513
520
528
539
516
459
434
431
432
422
422
430
440
452
481
502
491
482
496
502
495
504
519
531
520
475
447
434
424
401
386
395
411
438
441
435
445
468
493
523
541
530
531
520
513
500
499
502
488
470
459
453
454
468
480
494
509
515
521
528
534
536
532
528
518
493
484
471
443
434
433
441
447
459
460
457
463
481
500
511
511
506
487
466
457
440
429
419
417
401
391
392
405
413
427
440
454
472
499
514
505
488
472
456
439
427
426
419
403
394
390
385
377
379
398
404
417
450
477
477
490
495
492
487
473
443
428
421
416
401
380
382
392
399
404
398
401
430
452
458
463
470
452
446
451
436
421
400
387
387
390
396
412
427
432
442
458
466
453
463
491
497
478
466
451
441
422
401
389
373
375
379
393
411
410
416
423
432
451
461
469
478
488
498
507
512
511
516
538
571
612
663
715
770
823
893
959
989
988
987
987
986
986
986
985
984
984
984
985
985
985
986
987
987
988
981
888
817
749
681
580
431
323
267
224
192
190
203
211
218
235
255
272
280
284
300
307
318
342
366
371
385
389
382
384
362
326
321
320
301
273
268
272
278
301
324
339
361
375
381
391
396
396
390
373
343
311
292
274
268
279
295
311
327
335
341
377
414
403
405
402
402
401
399
394
382
368
354
340
339
339
348
369
389
386
377
392
422
435
447
445
440
415
405
406
402
398
396
384
378
361
352
356
359
378
391
412
432
449
471
482
470
474
470
468
458
411
393
399
405
412
420
417
412
411
409
421
442
459
477
484
493
488
481
475
466
471
458
441
434
422
424
439
465
472
463
476
499
518
528
536
531
533
522
502
472
460
457
452
444
447
454
468
478
494
499
511
525
540
542
547
548
537
513
512
514
509
498
493
513
515
489
495
520
543
545
546
547
551
560
575
580
583
581
569
547
536
519
510
507
506
516
525
533
542
545
559
574
584
596
592
585
575
571
566
548
525
510
505
494
498
503
513
514
508
511
523
540
544
556
566
550
537
512
460
435
427
428
423
408
403
404
423
420
422
432
445
458
473
483
490
485
470
463
449
431
397
374
347
327
317
318
333
344
356
377
389
404
409
404
403
395
406
399
366
349
351
339
297
286
309
313
324
335
333
336
353
380
399
408
414
411
395
387
371
356
334
321
305
306
308
313
335
329
339
350
362
381
399
399
389
376
371
365
355
343
327
315
313
308
312
321
340
349
362
372
379
399
411
424
435
432
421
417
412
385
349
335
332
335
330
342
356
368
375
382
393
415
431
439
436
430
442
456
390
369
355
345
341
348
350
357
372
391
409
416
431
451
455
451
452
459
443
426
424
420
411
404
392
382
390
401
409
414
424
433
437
446
462
477
488
489
484
464
446
433
409
379
358
349
350
374
383
400
414
425
449
470
483
483
473
456
451
452
444
433
421
411
409
406
412
417
419
414
416
409
420
443
475
495
499
499
487
466
450
446
427
410
400
382
378
389
400
408
413
420
445
466
485
500
501
502
492
478
454
430
421
412
394
387
396
397
413
426
438
447
459
469
477
479
485
480
476
474
450
409
381
373
382
385
404
424
441
439
408
396
419
454
479
492
494
501
489
465
436
414
403
396
385
378
380
394
407
419
435
447
449
461
493
499
484
467
459
451
439
433
428
418
413
400
395
392
402
422
423
427
448
471
492
491
497
497
492
483
455
428
412
398
400
398
401
412
424
436
440
440
449
465
480
502
489
467
455
449
429
418
405
397
387
389
392
405
414
432
436
452
478
501
507
505
505
493
478
461
446
439
429
423
417
416
421
426
447
455
449
452
466
488
507
513
519
520
521
529
504
485
470
468
484
460
441
455
446
455
457
467
475
500
521
529
529
525
522
520
502
488
470
457
450
449
450
465
473
473
480
497
517
538
539
538
524
510
489
478
452
427
395
367
352
345
353
368
385
401
414
425
445
460
473
481
490
495
459
444
438
405
384
384
386
385
386
392
403
416
419
421
430
444
451
458
460
456
449
444
432
415
401
393
389
377
377
389
404
415
419
427
446
462
481
490
487
477
461
450
437
428
420
407
400
378
365
369
385
400
409
412
434
454
474
492
479
467
466
457
439
426
421
408
395
392
400
406
416
411
401
401
417
443
458
468
476
476
477
475
470
459
456
461
479
492
516
567
618
628
630
677
746
796
862
940
989
989
988
988
988
988
988
988
987
987
986
986
986
986
986
987
988
988
989
916
843
748
643
559
470
345
254
204
172
168
179
199
222
241
262
286
310
331
340
352
357
356
354
347
335
324
318
310
307
304
311
316
325
342
368
397
402
407
395
384
373
364
352
339
326
318
314
315
317
310
300
312
326
338
348
367
393
416
435
439
437
433
424
407
392
373
346
325
326
330
337
355
365
372
386
401
419
433
443
453
451
442
429
432
417
409
400
380
370
366
375
386
392
403
397
403
426
460
505
496
481
468
449
438
422
396
385
381
375
384
400
409
418
430
432
447
466
490
503
504
498
488
477
472
459
453
450
442
435
434
436
444
448
461
480
511
502
497
493
498
493
491
492
486
479
469
455
446
437
435
433
450
474
498
492
499
520
539
557
566
567
564
537
516
512
505
501
495
492
492
497
510
519
529
535
553
573
596
587
583
582
589
582
567
545
536
526
522
514
516
514
519
534
565
594
575
584
595
581
575
574
569
568
560
559
533
508
501
498
499
511
523
538
549
552
551
554
562
572
575
574
572
572
555
528
500
473
438
421
411
401
401
410
413
409
420
441
457
457
457
452
451
454
462
433
394
370
362
347
342
347
358
359
369
386
409
405
414
427
430
429
430
431
391
364
342
321
313
309
297
297
300
301
307
307
332
365
383
386
385
385
380
372
357
344
332
327
313
305
298
300
309
319
333
352
369
389
404
406
403
396
384
375
359
346
334
327
321
317
318
331
341
336
341
365
393
402
406
413
412
396
394
401
394
367
346
343
333
324
326
334
353
367
375
384
404
429
452
476
458
429
422
420
410
404
390
380
373
374
367
370
361
351
346
350
377
406
430
433
427
422
422
440
436
413
385
381
380
375
376
381
392
397
413
427
448
471
485
477
467
452
443
430
417
403
387
382
371
369
369
369
385
396
411
424
436
453
475
478
479
488
477
472
450
426
416
408
404
394
395
394
399
409
413
430
457
470
484
500
495
491
479
461
450
439
429
422
409
404
405
418
434
435
443
454
474
494
510
517
515
485
461
452
440
422
405
394
393
393
405
405
411
420
422
424
439
455
473
487
488
484
474
461
439
415
398
389
381
378
392
407
443
458
406
411
429
449
472
482
488
485
474
468
453
438
427
407
395
406
406
406
417
425
430
432
430
446
462
474
482
472
465
468
463
443
420
412
408
401
405
411
425
436
447
475
481
474
476
473
479
476
473
469
455
442
431
419
412
402
397
397
390
387
384
389
414
445
474
488
479
461
452
451
438
421
410
405
403
400
404
421
422
408
420
446
467
481
492
495
493
488
482
480
461
443
434
425
424
425
423
411
414
434
442
448
479
520
537
529
502
484
467
462
453
444
428
416
404
397
401
408
420
432
445
466
486
508
507
506
507
517
506
496
458
437
430
428
417
422
434
450
466
487
495
500
528
565
555
554
559
536
517
494
475
482
466
432
416
414
412
423
436
446
458
475
494
512
519
529
533
527
514
483
475
461
436
426
417
414
429
446
456
470
470
459
470
480
488
495
494
494
487
480
461
448
422
401
388
380
372
378
388
398
412
428
448
473
488
497
494
488
489
470
451
439
421
414
406
386
388
393
399
408
426
420
430
461
483
490
488
492
493
469
422
394
377
375
380
387
386
391
399
401
405
420
452
488
497
491
492
487
481
478
459
436
422
405
394
377
377
391
387
378
385
401
424
448
466
466
468
457
457
459
428
373
362
339
328
332
343
368
399
436
474
502
541
579
610
641
669
695
733
772
802
838
874
911
959
989
988
988
987
987
986
985
985
984
983
983
983
984
984
985
986
987
988
911
786
677
595
502
388
307
258
233
238
264
297
330
355
352
351
340
320
298
296
289
283
294
303
322
312
324
336
348
362
387
401
406
395
373
350
327
307
286
265
235
228
236
253
276
295
305
315
345
368
359
364
368
371
372
381
363
325
309
308
304
300
297
301
315
325
336
339
360
386
410
422
426
416
409
402
391
377
366
349
340
341
339
359
366
378
387
385
400
424
451
469
471
460
453
444
436
416
394
383
377
365
371
381
396
407
416
423
438
454
476
486
494
498
492
483
467
438
428
419
401
387
383
390
407
419
436
446
456
471
484
486
484
475
474
475
469
462
451
441
436
432
423
418
424
437
445
450
463
484
506
522
533
529
520
513
508
481
459
482
470
430
430
448
467
471
483
495
510
532
554
568
576
572
568
569
554
537
522
513
509
495
481
486
502
518
532
544
561
555
576
589
607
622
601
586
578
543
511
503
501
503
506
515
520
521
526
531
542
559
572
583
580
573
564
551
537
532
515
507
474
454
437
432
435
435
436
442
456
479
497
507
497
488
477
471
451
430
415
409
396
383
372
381
400
413
419
413
409
418
433
443
457
464
457
442
412
401
386
355
329
325
328
330
341
338
344
367
368
382
