368
372
373
378
383
389
401
410
422
421
421
421
422
415
403
393
382
371
359
352
350
345
349
364
376
387
394
406
421
433
435
429
424
412
404
392
386
381
369
366
362
359
358
364
370
385
398
410
424
440
447
451
454
451
445
431
412
396
383
383
378
374
373
378
392
412
435
461
475
486
481
462
444
434
427
418
406
390
372
357
352
352
359
379
398
412
426
447
459
469
467
466
464
457
446
435
421
413
407
403
400
408
419
427
435
442
449
456
467
476
481
481
477
470
461
446
430
419
408
397
398
404
420
435
443
443
447
458
473
482
485
479
473
462
453
440
433
432
423
415
419
435
457
465
460
455
458
463
474
479
481
479
475
477
469
455
437
419
407
408
415
427
433
429
420
418
433
454
473
488
493
494
489
479
461
445
430
413
397
395
399
409
417
421
424
432
447
464
477
487
489
494
493
490
473
461
454
438
428
422
425
429
433
429
426
436
456
477
494
499
501
496
488
482
468
452
436
426
427
426
421
412
418
427
440
450
462
477
487
489
497
489
480
473
460
444
429
414
403
402
411
411
410
414
420
429
446
463
468
475
484
485
478
476
464
448
435
424
414
415
422
434
457
462
464
470
480
487
497
505
509
499
487
477
469
465
460
458
451
445
443
444
452
461
469
484
503
512
514
514
510
506
493
489
483
480
477
476
477
474
466
461
466
469
474
484
501
521
542
551
551
541
525
510
493
482
468
456
447
451
452
450
459
467
475
482
493
503
508
510
504
490
479
469
452
435
424
421
409
402
398
397
406
416
430
444
463
476
485
488
478
472
462
450
434
416
405
407
403
397
398
410
425
431
437
444
452
458
467
475
477
472
465
458
447
430
416
403
389
384
386
397
420
437
453
463
474
479
479
476
468
463
450
438
428
418
414
405
401
410
414
425
433
438
445
451
464
480
486
480
473
474
466
448
427
406
392
383
381
384
383
382
383
384
401
420
443
470
493
507
524
534
541
549
562
579
595
613
642
682
722
766
807
850
894
929
976
990
989
990
989
989
989
988
988
989
988
989
990
990
974
910
843
794
733
669
610
526
452
400
365
339
330
327
327
331
328
327
330
336
340
349
354
357
362
373
386
394
403
405
414
412
410
406
392
380
368
351
337
332
333
335
340
349
353
365
379
395
412
414
413
403
392
377
364
358
347
336
337
332
327
331
341
350
359
384
407
425
445
456
459
441
426
412
404
395
384
376
369
366
372
381
392
401
406
419
432
437
442
454
454
451
448
437
427
420
409
401
395
390
395
409
422
429
431
445
455
460
467
470
468
464
466
457
442
428
418
407
412
418
425
431
431
441
454
467
478
488
498
502
495
484
483
476
465
447
429
421
426
441
456
467
470
472
471
484
499
513
519
525
516
512
510
502
491
476
468
463
458
453
464
472
468
465
470
483
507
528
537
545
540
532
524
519
511
495
489
490
481
478
487
500
507
510
513
528
545
558
556
557
555
554
542
522
504
495
487
481
485
501
519
531
535
531
533
543
552
561
561
560
558
553
547
535
516
489
475
466
464
467
471
477
481
495
508
515
519
523
517
510
503
496
492
477
459
447
437
424
419
419
419
433
438
441
443
449
454
460
460
460
458
449
440
425
410
397
392
385
377
378
382
393
395
395
402
421
441
447
443
436
424
408
399
386
371
356
353
350
348
355
363
374
383
400
417
418
413
417
420
417
409
394
388
384
384
380
369
362
364
360
365
377
381
390
396
403
408
415
424
426
427
424
424
416
408
399
384
374
369
374
382
393
404
416
426
432
435
437
430
431
430
429
430
416
399
389
380
375
369
380
386
387
392
405
423
446
467
481
482
481
471
463
453
439
428
421
408
399
391
399
410
411
411
421
443
452
451
462
474
489
490
479
468
459
448
433
420
400
389
387
395
402
412
424
446
465
483
482
478
473
467
464
462
455
448
440
432
424
415
409
409
412
426
448
477
500
510
512
510
497
482
481
468
446
429
419
425
419
416
419
432
444
450
452
458
466
475
493
506
497
478
466
461
451
442
433
422
416
417
415
421
423
428
438
455
476
486
490
491
486
479
470
465
456
445
430
419
407
405
403
411
415
422
425
434
452
469
482
498
502
501
490
480
469
454
439
422
406
397
393
406
422
447
467
476
484
495
503
512
497
483
467
448
445
439
427
413
395
380
383
404
420
432
444
465
491
507
511
508
490
477
472
458
449
444
433
424
419
419
425
435
441
450
474
492
507
516
513
503
488
478
469
457
453
441
428
418
406
403
406
421
438
449
457
469
488
498
500
503
511
508
503
490
474
455
442
430
417
416
416
422
429
442
465
489
513
531
539
543
551
550
544
529
517
494
469
445
433
429
433
446
459
461
476
493
497
521
537
541
531
520
511
492
479
470
465
456
446
446
453
466
473
473
480
502
515
523
522
522
520
505
486
468
456
433
407
397
391
394
403
416
431
439
451
458
469
488
502
509
503
488
472
452
427
412
417
413
417
426
433
444
448
446
451
470
485
491
491
480
471
461
453
441
432
418
404
396
394
396
411
425
435
444
453
462
465
474
479
477
468
457
452
444
437
432
419
410
400
398
404
408
416
427
440
454
469
479
483
490
488
478
480
467
438
415
403
397
375
361
363
371
380
389
407
436
476
508
526
538
551
570
596
622
646
670
697
724
765
805
847
887
930
971
990
990
990
989
988
988
987
988
988
988
988
988
989
990
981
913
847
782
710
641
564
477
409
364
333
313
319
327
333
338
335
325
325
328
329
339
344
345
356
370
388
393
401
412
423
420
413
412
398
375
358
350
338
332
332
333
336
338
350
370
382
397
400
401
404
397
390
389
384
377
367
356
344
332
333
329
337
354
372
390
410
427
441
453
457
449
439
432
415
399
389
379
365
353
352
361
379
399
415
423
437
452
458
458
458
456
454
449
438
426
412
405
395
386
388
395
401
412
422
428
437
450
463
474
481
482
481
479
470
459
452
440
425
416
408
413
423
432
440
444
454
467
486
501
506
507
502
500
494
484
470
456
442
436
437
453
463
466
473
481
498
510
515
517
517
518
512
503
493
482
476
470
468
465
459
460
464
471
480
492
508
521
538
547
550
551
546
546
537
520
496
481
475
466
467
479
500
519
535
551
572
577
585
584
582
573
563
559
549
538
526
513
501
491
491
504
523
524
521
523
537
550
565
565
559
552
543
538
525
510
495
475
463
457
462
467
473
475
482
495
513
528
539
540
537
523
509
492
470
447
432
419
413
404
399
402
412
417
419
423
433
446
459
462
458
447
444
435
423
405
391
379
373
367
368
373
385
392
410
422
426
430
439
444
439
431
422
402
378
361
350
344
345
342
343
348
361
368
377
385
394
400
406
404
407
406
408
404
395
379
362
355
346
343
343
348
356
366
378
385
398
411
419
422
421
412
400
394
389
379
365
354
350
354
362
375
390
396
406
417
426
439
445
440
437
429
420
412
406
413
417
405
391
383
382
389
394
400
406
416
435
454
467
474
475
466
458
450
440
424
406
388
377
384
395
407
416
426
436
451
472
485
491
492
490
480
472
460
448
430
414
405
400
401
405
404
406
415
425
437
447
465
478
485
486
474
466
455
445
434
425
424
421
421
421
429
433
433
429
439
453
470
482
495
490
483
478
473
458
443
432
424
413
409
407
410
416
429
440
452
466
478
487
493
490
487
481
467
443
426
422
417
413
420
424
431
440
450
447
456
464
479
488
485
478
469
470
466
451
438
430
426
426
426
434
442
435
439
440
446
452
464
475
480
480
475
475
463
445
433
421
410
409
405
410
416
421
430
439
451
471
493
505
503
494
480
469
460
446
443
440
429
417
408
410
418
425
439
451
465
472
482
489
487
486
481
482
479
461
444
433
428
426
432
437
443
441
444
449
468
485
502
511
511
505
499
491
478
464
445
427
423
429
435
446
461
474
482
483
500
517
534
546
554
554
543
529
516
500
484
465
449
433
426
439
467
479
489
498
511
523
537
536
522
517
509
505
498
488
472
457
447
442
439
441
448
448
456
466
478
487
496
497
488
480
471
456
437
424
418
410
401
396
400
407
417
422
421
428
445
458
466
467
464
464
459
452
445
437
423
410
403
401
401
408
417
422
429
444
462
472
475
476
474
471
469
464
454
438
417
412
409
398
400
417
433
434
436
440
443
452
472
478
482
480
475
473
461
448
429
416
405
396
398
405
413
420
429
444
458
477
490
492
485
461
444
433
427
420
402
386
372
368
370
386
408
437
463
492
525
557
586
614
632
656
686
717
742
767
793
828
855
893
935
968
991
990
990
989
989
988
988
988
988
988
989
990
990
944
855
766
684
613
558
503
424
372
347
332
332
342
355
372
382
381
377
362
344
339
340
338
330
322
323
342
354
364
373
387
403
421
438
443
437
438
426
401
379
358
343
331
331
329
332
341
345
354
365
382
399
410
416
413
415
411
400
390
378
369
371
369
368
364
371
384
393
405
410
413
417
424
441
451
453
446
435
427
421
419
404
395
390
381
383
397
409
420
433
462
481
493
494
484
470
454
447
434
421
413
405
399
395
398
404
410
413
425
434
451
466
485
494
495
491
484
476
466
456
443
433
421
418
424
436
447
452
459
467
480
489
499
505
509
505
497
491
480
470
464
462
455
447
442
441
446
456
461
473
493
506
518
526
526
524
523
523
510
493
483
490
483
476
471
477
489
502
514
537
572
584
585
582
582
582
579
561
539
524
511
507
499
492
492
494
501
510
523
534
545
561
577
589
587
581
575
568
558
549
529
513
498
491
483
488
500
508
511
520
532
541
552
561
561
558
544
533
526
520
504
493
485
469
458
452
454
464
473
483
496
514
522
522
522
513
494
478
461
447
431
411
393
381
383
393
403
410
409
418
435
458
471
471
467
462
459
451
432
413
391
377
356
342
334
343
352
366
381
393
396
396
404
417
422
423
412
404
394
385
374
363
347
339
336
344
353
362
368
371
384
394
410
416
412
402
394
388
386
388
377
366
356
342
337
350
359
365
377
391
409
437
454
453
457
453
446
436
418
396
373
355
348
351
356
373
382
387
388
397
407
416
428
433
440
448
459
457
442
425
408
392
376
359
354
375
391
404
413
419
431
447
458
466
461
452
442
432
424
422
413
406
406
403
408
420
430
437
448
461
471
475
482
482
481
476
471
461
447
428
415
407
405
399
399
412
422
432
446
461
476
488
497
498
495
487
472
458
444
429
418
408
407
408
418
425
431
432
433
444
460
471
488
499
496
486
486
488
480
459
437
413
396
388
395
403
409
424
436
454
473
490
502
503
497
494
493
475
456
432
423
417
407
409
420
432
442
444
452
465
480
503
516
515
505
490
482
471
461
444
433
424
416
413
420
435
442
449
454
464
478
499
515
519
514
509
501
491
478
460
452
446
440
446
468
483
478
474
476
482
497
515
525
539
543
538
531
514
491
468
462
454
453
450
442
438
447
459
467
475
487
500
509
519
510
497
487
478
462
437
416
402
393
395
400
405
407
413
433
450
463
469
474
482
477
469
461
454
446
430
419
413
410
413
416
427
431
437
448
463
470
481
8
462
444
428
418
407
408
413
418
423
425
431
441
467
5
437
439
432
433
465
489
510
526
508
512
492
474
462
444
428
418
407
408
413
418
423
425
431
441
467
496
7
439
432
433
465
489
510
526
508
512
492
474
462
444
428
418
407
408
413
418
423
425
431
441
467
496
509
507
504
501
491
489
469
444
421
420
411
422
427
433
441
443
439
446
444
444
465
484
493
491
480
481
468
450
439
434
424
425
438
447
456
462
449
435
438
464
484
497
491
491
480
472
458
449
447
440
446
433
409
417
443
463
463
464
460
466
485
505
509
498
492
485
462
439
421
410
413
417
405
423
438
444
466
483
492
496
492
492
487
480
478
476
459
454
458
444
422
398
389
401
416
435
458
482
498
506
516
519
513
499
496
494
492
482
468
440
429
427
414
424
422
418
433
455
472
491
496
503
500
496
503
498
490
476
468
466
457
440
429
432
443
451
462
482
495
500
509
513
513
512
520
504
475
456
443
433
442
446
442
446
461
482
495
493
507
524
540
556
567
556
542
528
514
505
505
484
469
468
461
467
470
480
489
503
520
532
541
542
523
508
503
490
476
466
473
471
459
453
447
451
461
469
476
488
517
522
508
494
495
487
498
479
437
419
414
410
409
416
416
413
413
419
427
450
464
494
506
496
498
501
484
466
456
441
418
404
399
402
423
429
427
418
412
418
439
468
483
494
497
491
492
471
446
429
427
421
422
421
414
413
403
409
429
448
462
483
487
489
481
494
491
478
465
449
439
420
414
408
393
397
398
404
418
436
454
479
483
494
503
491
482
468
448
436
433
424
412
405
392
389
387
395
397
413
436
473
507
538
561
577
585
604
613
595
591
616
646
687
725
777
828
858
877
920
979
991
990
990
989
989
988
988
988
987
989
989
989
991
953
852
778
726
671
626
580
530
461
405
370
339
323
317
314
300
290
296
296
307
320
337
339
334
348
370
394
427
432
431
430
414
412
398
384
386
383
360
341
334
342
351
355
355
376
399
395
410
430
441
447
438
423
396
378
378
369
356
343
350
359
367
378
390
395
415
444
469
489
488
477
463
446
435
419
389
378
380
373
374
384
385
387
404
432
446
452
458
463
462
452
453
448
442
433
427
422
411
393
392
398
408
427
452
473
478
473
479
475
484
483
477
469
456
431
419
405
402
406
426
446
459
459
461
467
474
482
498
508
532
547
514
480
467
473
471
458
461
457
454
464
475
480
484
471
484
503
538
556
554
543
540
524
508
498
495
491
470
458
457
463
472
482
503
514
536
554
571
578
583
586
587
573
557
527
511
497
473
457
464
486
514
536
546
550
556
570
583
587
594
594
589
572
563
548
531
526
525
522
519
517
514
515
530
549
565
581
583
582
581
579
584
576
563
542
532
534
506
479
464
461
470
479
501
508
518
525
536
546
540
528
517
502
488
469
459
450
444
419
417
426
422
418
428
438
447
460
457
453
459
456
447
436
422
414
402
388
378
367
373
378
385
391
388
381
399
411
427
434
437
439
422
401
389
373
362
344
341
335
333
341
348
352
360
386
405
421
430
428
426
429
425
405
384
376
368
364
346
329
326
341
352
366
367
377
394
417
442
446
430
437
452
447
415
389
363
355
348
355
357
358
368
376
379
394
416
435
438
448
446
444
441
425
409
404
397
388
377
373
376
383
386
400
405
429
450
466
475
488
507
485
425
388
378
377
379
377
366
364
379
404
398
399
419
443
459
479
484
483
480
473
469
465
449
437
424
414
409
420
436
476
480
450
437
447
450
458
471
481
475
470
466
464
454
441
427
419
418
436
429
433
440
448
452
458
464
481
492
497
492
489
484
476
464
442
426
418
413
413
410
415
419
416
414
441
470
498
503
516
520
520
510
491
477
475
456
428
395
399
404
406
405
423
431
455
480
506
507
501
504
497
493
485
467
451
425
395
380
393
411
427
432
439
455
486
508
515
500
476
472
471
474
466
458
447
417
411
400
391
399
423
438
442
441
463
492
516
525
511
508
489
471
463
448
436
426
411
410
412
424
448
447
449
461
486
501
506
513
506
495
488
488
466
443
432
417
406
391
391
397
408
422
437
443
468
485
486
497
511
518
510
491
487
478
470
459
432
399
386
394
405
422
447
447
449
469
491
504
512
516
519
493
464
453
451
444
438
432
421
410
423
441
460
471
488
498
516
537
552
525
517
502
484
472
461
444
433
424
418
426
440
459
481
496
514
532
547
547
552
552
544
523
495
475
467
469
469
459
456
461
472
479
482
488
505
523
538
552
553
538
531
519
503
485
473
461
448
441
443
444
442
449
455
469
490
502
513
521
519
513
499
485
465
443
423
405
391
399
413
421
426
432
434
448
458
475
484
496
494
495
503
494
479
470
459
427
403
393
392
400
413
430
444
450
462
473
477
473
471
469
469
459
449
440
424
413
402
400
410
422
424
428
428
439
454
475
484
492
490
488
485
489
472
457
435
414
392
393
399
402
395
399
415
439
464
484
488
498
495
496
496
483
466
450
431
418
405
400
404
411
409
419
428
449
478
478
475
497
517
533
549
545
530
539
556
571
594
634
678
718
755
798
838
880
924
982
990
990
990
990
990
990
990
990
989
990
990
975
921
868
815
761
700
657
623
594
548
476
399
357
315
295
287
286
299
310
307
318
338
350
344
343
342
361
380
403
415
431
447
430
418
419
402
386
373
364
367
377
390
396
390
393
404
418
414
410
423
432
429
427
420
412
399
377
356
344
346
351
372
401
400
404
407
412
434
460
478
485
474
459
448
440
440
430
422
402
382
368
368
378
372
378
395
422
450
470
481
485
486
482
471
448
427
423
418
415
424
433
422
407
404
402
419
449
475
495
501
500
496
490
480
472
454
444
432
433
439
432
433
449
461
466
474
483
505
524
536
537
528
517
502
491
467
459
452
453
453
454
458
470
461
464
484
491
494
511
525
532
533
529
523
514
503
494
480
473
478
475
472
476
483
496
508
525
540
546
554
563
573
565
552
551
535
524
516
505
496
491
504
514
522
528
533
541
555
575
590
596
595
594
588
566
555
548
524
504
499
500
515
518
515
526
541
565
581
588
585
577
577
570
565
542
534
531
510
484
478
487
493
482
483
488
483
492
513
527
542
558
559
541
517
496
476
459
442
427
414
418
432
443
449
445
447
451
461
471
468
456
439
438
437
422
408
402
386
363
356
363
369
374
386
394
396
406
425
432
442
445
433
437
421
388
383
377
360
343
343
338
339
347
353
359
371
394
419
432
434
425
419
414
406
397
391
375
368
352
342
339
346
356
370
387
400
433
456
446
444
428
411
408
409
390
383
378
370
356
355
359
365
375
387
396
406
407
423
437
446
448
445
447
447
427
403
402
390
375
366
368
380
396
410
423
433
431
446
455
468
468
460
456
447
423
416
403
398
393
389
400
398
385
387
393
430
478
505
489
475
474
474
468
466
455
448
439
417
402
390
381
385
389
412
436
444
470
501
500
505
500
498
487
480
466
449
432
423
412
414
421
423
423
427
433
450
465
484
498
509
504
500
499
490
469
444
432
423
424
437
442
463
461
447
449
448
453
472
480
484
475
466
460
457
458
471
463
451
438
428
417
425
413
425
453
487
487
488
487
492
500
493
484
483
480
464
425
401
397
397
407
422
422
435
449
466
479
495
515
522
516
499
496
482
451
438
430
405
395
398
420
437
444
439
447
469
480
486
496
504
486
476
475
469
454
431
422
397
392
406
423
451
458
469
468
465
483
490
488
503
498
486
479
464
458
436
424
412
403
399
401
424
458
462
464
481
487
487
486
488
485
478
477
472
473
461
454
441
429
425
422
406
403
412
426
461
490
489
492
507
504
489
486
476
453
432
424
424
422
422
420
429
440
438
444
452
475
484
489
503
491
471
466
464
455
447
447
435
425
423
430
433
436
438
454
478
509
528
531
514
525
519
504
500
499
474
435
416
416
416
426
433
444
453
452
451
474
496
515
531
532
529
523
508
481
453
446
442
439
453
473
476
475
485
498
514
532
531
519
522
525
526
527
518
507
500
490
469
457
460
463
464
478
480
479
489
520
541
534
542
555
561
546
512
474
447
434
426
414
420
430
440
445
450
474
491
484
487
487
492
490
481
473
456
445
438
440
435
416
420
423
411
407
416
434
461
479
495
505
500
481
465
458
442
430
421
418
420
421
422
422
419
421
423
438
453
462
476
489
501
505
507
515
493
454
430
408
396
392
393
401
400
409
428
429
428
450
475
489
496
498
491
470
446
433
426
422
411
416
417
427
440
437
425
445
481
486
497
504
498
478
470
435
399
382
378
375
380
380
394
418
439
461
488
515
540
578
631
673
689
706
751
799
806
811
844
868
895
917
941
970
990
990
990
989
988
988
988
988
988
988
989
989
990
917
823
740
652
570
509
429
364
322
306
306
312
331
353
375
389
387
390
378
364
357
353
352
342
331
337
336
337
346
361
376
396
426
440
437
428
418
423
429
416
395
361
333
316
307
325
344
333
320
337
359
376
397
417
419
415
411
414
404
386
380
376
369
360
348
358
367
370
380
403
435
429
433
454
459
463
457
443
427
405
384
375
365
363
365
378
396
405
413
426
446
461
472
479
477
468
451
448
446
440
418
418
418
416
416
424
438
436
433
434
440
453
476
499
513
517
503
483
462
448
436
434
427
421
411
405
420
434
443
452
474
502
556
553
524
516
501
493
479
459
462
447
419
425
436
447
461
483
487
472
477
506
538
551
533
529
532
536
522
504
490
482
477
471
459
464
474
484
495
510
526
540
554
570
573
571
567
555
540
523
513
508
495
496
508
517
517
508
506
517
536
561
588
606
602
588
567
542
527
519
506
513
526
525
527
511
492
488
495
510
535
554
565
565
568
567
559
541
529
512
502
489
470
468
455
445
468
476
466
461
470
493
504
503
502
499
488
474
457
456
450
439
427
413
405
396
398
407
409
414
435
455
467
473
475
468
471
450
421
403
390
378
363
357
366
364
369
374
376
379
392
403
417
431
438
433
420
410
392
381
374
368
367
374
383
386
386
381
386
378
383
397
419
423
427
427
412
393
378
367
363
360
358
357
360
373
380
376
383
401
429
448
456
445
442
442
437
426
406
389
382
366
368
369
392
407
387
396
419
430
444
463
472
469
455
451
445
439
430
414
399
393
383
385
383
395
404
419
423
433
471
482
459
448
447
443
449
453
446
431
421
415
414
406
399
405
411
407
416
436
471
502
492
475
472
489
485
457
444
429
414
397
393
395
401
409
412
423
440
458
472
498
513
519
511
486
470
451
437
430
441
442
426
416
417
427
428
435
444
448
462
479
498
503
490
479
475
465
459
451
440
426
417
411
425
423
436
453
477
510
515
493
491
504
500
482
466
454
438
426
426
420
418
411
415
424
431
449
471
467
475
499
517
502
488
480
483
479
456
445
443
430
421
407
422
430
426
436
440
448
454
466
478
493
507
503
498
488
461
435
432
424
415
415
425
433
437
435
433
441
457
478
491
494
491
499
496
478
461
448
436
420
411
402
417
440
443
441
464
488
493
498
510
509
509
507
510
495
470
434
422
402
399
407
420
438
453
443
443
458
478
485
497
512
512
500
501
486
467
449
432
421
426
408
396
405
421
428
433
453
477
498
505
499
505
496
476
459
454
455
446
436
432
426
418
423
428
440
462
488
485
487
495
501
499
488
487
473
461
446
424
415
425
424
419
424
437
455
458
476
507
523
520
513
512
506
495
483
467
462
457
452
453
439
444
458
466
457
465
492
506
524
519
509
493
476
468
461
453
453
464
451
435
432
437
452
476
485
490
498
522
546
561
566
560
545
536
505
479
474
470
466
453
456
459
468
475
481
502
506
508
525
544
557
555
540
525
485
470
473
473
464
459
445
439
446
446
457
474
500
519
531
528
515
491
484
473
457
444
432
416
401
392
388
402
417
431
447
454
468
486
506
520
514
502
482
453
441
451
448
412
393
397
402
410
417
425
432
436
443
455
477
486
483
471
461
455
466
486
468
437
418
416
426
432
429
421
422
431
441
453
476
484
484
473
470
466
453
438
428
416
402
384
387
398
422
437
437
441
473
516
520
506
505
507
490
469
449
424
415
404
401
381
369
371
377
381
392
428
468
501
534
549
563
571
575
582
590
596
620
645
669
689
720
778
824
850
899
951
991
990
989
989
989
988
988
988
988
988
988
989
989
989
978
916
865
794
716
646
601
527
448
396
355
323
307
301
310
323
333
323
312
311
312
327
343
350
362
375
414
427
430
437
433
423
415
407
399
389
371
335
303
306
323
331
346
357
352
366
386
391
401
409
408
403
401
396
392
366
350
345
337
338
352
354
348
358
374
395
414
431
436
438
448
441
424
408
404
388
381
372
365
369
391
394
400
409
414
428
441
453
467
472
458
451
463
450
434
424
423
413
396
397
404
413
414
414
420
435
459
482
492
496
486
475
474
455
438
430
426
426
427
415
402
411
427
441
454
467
482
498
509
513
508
501
492
483
475
464
451
449
454
449
441
443
437
439
447
458
483
503
515
526
540
544
535
520
505
502
500
475
466
469
475
483
490
506
506
521
535
554
575
547
515
516
523
522
507
493
484
475
481
497
506
525
529
532
528
538
550
567
580
584
583
573
565
556
544
529
520
500
489
494
502
514
522
529
537
554
571
581
586
582
570
562
549
532
511
497
493
482
473
470
473
481
479
483
487
504
522
534
545
556
546
534
515
480
456
448
442
430
418
420
416
422
418
409
405
421
443
469
472
475
490
481
449
423
398
390
376
361
364
375
390
388
386
381
388
411
424
439
436
431
426
419
414
397
378
366
361
353
346
352
356
369
386
393
403
416
409
413
412
416
420
417
411
403
388
378
371
365
361
359
366
377
374
355
363
387
416
434
450
470
462
439
420
405
390
369
362
355
352
362
368
372
373
374
376
391
420
446
460
468
466
469
474
453
415
386
382
372
364
366
385
398
393
389
396
418
441
457
474
476
467
465
465
449
432
412
400
389
394
392
400
406
412
418
421
439
462
489
513
512
482
459
451
448
436
421
421
412
402
402
401
405
410
420
440
465
481
491
502
488
484
482
476
459
430
417
415
410
415
410
410
415
431
455
471
471
481
496
496
494
502
499
489
466
438
414
406
398
404
409
416
423
436
451
464
486
510
523
518
511
505
491
468
444
425
420
417
412
414
424
449
457
446
447
455
474
492
505
525
530
501
484
466
451
438
423
416
413
411
420
424
424
426
436
455
481
501
515
520
509
487
476
456
449
459
455
432
400
391
399
425
430
428
432
442
456
467
468
485
498
504
508
498
470
452
449
428
414
415
425
432
433
438
442
452
465
476
477
491
502
497
498
494
477
454
434
421
407
411
411
422
430
436
446
466
479
495
502
509
500
488
479
471
461
446
424
419
418
413
417
426
437
447
452
464
483
503
507
499
501
480
463
457
445
427
422
423
421
420
413
420
430
436
444
465
481
504
514
503
506
506
502
488
479
470
448
428
417
410
416
431
443
446
446
480
497
501
505
496
498
482
478
477
465
454
434
419
426
433
433
436
437
438
441
464
483
501
509
509
506
489
475
470
466
459
446
426
424
428
429
436
443
456
481
507
487
484
488
487
490
486
487
484
473
462
450
433
431
431
440
452
459
463
471
485
501
514
510
506
507
507
501
489
497
497
461
443
453
463
470
475
479
487
495
509
518
534
551
552
555
544
537
513
486
475
477
480
475
474
480
489
485
482
482
491
504
523
546
554
550
540
531
512
501
484
457
436
432
429
431
438
441
435
436
455
480
486
485
510
518
497
477
454
446
444
436
429
422
425
421
433
442
441
446
460
472
481
481
494
496
490
479
468
449
427
412
415
419
416
423
432
445
448
443
469
505
520
499
486
483
477
465
447
424
414
415
414
413
407
411
421
422
422
437
456
480
491
502
501
492
494
490
469
451
442
436
430
425
432
433
434
442
452
468
485
493
478
466
471
465
461
455
440
428
408
384
372
363
375
393
414
439
462
493
524
545
579
603
634
654
686
702
719
741
769
789
819
848
892
943
979
991
990
990
989
988
988
987
988
987
987
988
989
989
990
940
858
780
695
612
531
443
359
323
323
321
327
340
357
375
399
410
382
366
343
328
329
324
325
343
365
397
394
402
398
410
421
412
411
419
420
405
386
364
351
342
332
325
326
344
355
367
373
395
418
433
435
432
431
442
443
419
394
381
362
346
340
343
358
372
379
394
399
415
434
461
477
475
460
464
466
437
406
386
373
375
384
385
392
407
427
430
419
431
446
467
474
476
466
463
461
448
434
422
415
414
412
417
420
423
419
433
449
469
475
488
491
494
500
501
481
470
477
466
446
433
419
420
428
444
449
452
464
484
499
522
518
521
518
520
515
504
495
483
467
455
447
449
448
461
474
475
485
499
520
547
573
577
561
542
523
495
483
489
491
482
481
482
488
501
499
500
512
527
548
569
579
582
583
577
566
564
557
531
512
507
513
510
519
514
513
527
545
568
587
595
600
594
593
587
585
573
560
542
523
509
507
510
526
536
532
542
534
534
544
570
590
573
566
566
566
562
555
532
504
486
468
464
469
473
475
480
489
502
512
528
533
539
538
530
506
471
451
441
430
432
439
440
436
432
433
433
437
453
474
495
489
485
478
467
455
439
425
406
388
380
371
364
378
387
386
371
381
407
426
451
458
461
466
470
446
410
392
383
375
366
353
355
365
374
384
396
402
417
439
457
457
463
450
434
410
379
371
364
354
352
348
355
360
378
393
403
415
440
448
457
460
458
453
458
460
430
403
390
382
370
355
355
368
378
392
412
419
427
448
471
478
484
509
499
458
433
426
421
398
385
386
390
401
395
397
410
437
456
471
486
492
484
473
472
467
454
442
445
437
424
422
416
418
418
427
436
452
469
485
498
501
496
487
481
468
449
437
442
439
426
425
423
429
441
458
462
483
497
514
524
522
491
474
478
487
482
486
469
449
433
427
435
436
449
450
461
474
478
501
525
528
513
510
508
492
476
462
449
442
428
433
436
433
438
446
450
454
471
499
509
519
528
525
513
500
485
459
437
424
419
425
426
425
426
443
456
473
481
503
519
524
524
515
502
484
463
451
443
431
417
423
440
446
449
459
457
475
497
520
537
527
502
507
514
492
477
457
445
437
422
425
439
453
450
440
440
459
480
507
520
533
537
519
499
484
472
460
448
452
438
422
422
424
431
443
451
472
495
507
512
511
508
507
504
492
483
463
451
436
425
423
434
455
454
453
463
481
503
516
519
525
517
508
489
470
457
450
450
456
436
425
437
449
439
437
452
457
469
492
501
512
510
508
509
493
482
468
448
436
423
420
435
464
478
464
464
480
500
522
533
531
529
523
513
489
463
461
472
459
446
434
425
432
444
466
465
462
475
502
517
523
516
506
501
485
468
454
450
448
440
431
436
449
454
457
465
480
503
527
540
540
533
524
509
486
450
452
463
444
435
440
450
453
447
452
474
496
511
515
525
529
531
524
518
500
484
476
471
463
471
470
477
477
469
463
465
478
504
532
548
557
558
545
527
526
534
511
479
462
464
478
475
486
490
496
510
532
556
561
562
554
547
554
559
534
516
500
485
467
467
480
497
508
506
508
515
527
535
530
537
541
520
502
492
479
467
457
443
426
420
422
421
429
440
453
476
496
510
523
528
526
524
516
509
485
451
427
416
412
415
411
421
432
441
445
461
483
508
520
518
515
503
491
483
457
437
435
435
429
414
423
440
441
444
443
446
473
487
493
504
501
497
494
481
468
459
457
474
447
406
398
418
434
443
448
452
457
465
487
503
511
513
517
510
477
457
442
434
428
428
432
438
443
450
450
460
465
471
480
495
481
459
464
473
480
480
473
467
461
472
496
540
588
622
652
704
756
808
861
903
927
949
976
991
991
991
990
990
990
989
988
988
987
988
988
988
989
990
990
965
887
818
741
661
574
460
358
278
230
218
241
263
290
334
354
367
378
400
416
429
433
429
433
427
404
382
360
350
351
346
349
364
367
367
372
393
411
421
430
429
424
407
395
398
399
395
378
361
352
350
357
361
367
372
379
409
441
445
445
454
459
443
430
419
409
398
393
382
380
379
383
396
403
406
408
417
436
452
461
479
489
492
484
476
457
431
418
406
396
394
409
420
423
431
434
457
459
464
464
485
493
490
494
477
465
452
440
427
410
408
418
428
435
445
458
484
500
502
508
509
509
518
516
491
476
465
451
439
429
426
424
438
468
495
500
504
503
514
524
530
533
533
529
525
518
501
482
472
474
462
464
480
482
490
494
504
527
536
543
556
562
557
557
539
523
513
507
503
497
495
500
494
514
540
548
571
606
603
590
593
590
575
563
549
534
526
520
505
502
497
503
522
535
551
563
576
582
588
593
599
596
597
602
589
567
549
530
516
505
493
481
509
541
518
506
525
547
553
550
560
556
544
533
520
504
483
466
462
467
462
462
470
465
459
465
479
494
507
510
519
515
499
469
438
427
427
416
402
407
413
415
412
398
397
402
421
446
478
477
458
448
451
458
445
435
392
361
357
359
372
375
377
386
374
366
389
409
425
430
427
419
413
416
399
384
380
382
378
368
369
374
368
363
367
384
406
419
434
439
443
443
433
425
411
399
387
374
365
365
372
372
379
388
401
425
440
451
454
441
440
434
432
434
436
435
422
400
383
381
382
387
380
373
385
407
430
440
458
469
484
487
495
465
443
429
421
406
386
384
388
404
407
408
410
429
455
473
484
488
483
481
480
472
456
439
436
428
424
396
382
399
420
426
431
446
473
495
509
522
527
522
510
496
473
455
446
432
417
415
413
418
421
425
436
461
488
501
509
525
516
509
508
507
488
469
445
431
422
413
412
416
421
435
449
465
488
500
501
496
494
497
503
489
450
428
416
419
433
454
442
447
456
460
458
470
481
496
500
509
506
504
494
478
461
449
452
457
453
438
420
423
428
433
445
460
470
491
506
514
506
501
489
476
472
485
481
446
423
433
422
410
408
410
423
438
459
488
498
518
524
511
502
488
470
450
440
434
421
419
418
428
430
438
464
474
483
505
513
504
494
493
490
473
461
445
431
422
422
432
437
441
445
444
444
449
470
504
522
535
551
520
496
479
453
422
410
410
409
413
416
434
455
466
475
491
501
504
499
502
499
493
485
472
464
454
439
423
397
400
409
426
438
452
480
502
510
517
512
516
511
506
504
489
476
460
448
437
433
429
432
436
421
422
437
467
488
499
501
507
513
503
496
489
480
464
452
469
456
427
433
445
437
430
436
455
486
504
509
518
521
505
496
479
457
453
443
425
427
427
430
436
448
464
475
481
496
513
525
520
508
500
500
492
480
471
469
463
452
443
438
447
460
476
493
511
535
522
528
531
531
523
514
506
495
484
476
465
464
467
478
489
496
502
505
530
544
549
550
546
546
551
559
553
534
507
505
492
469
449
443
445
449
463
483
507
527
541
546
545
542
533
525
513
491
464
446
438
432
410
409
418
422
430
438
451
461
481
496
494
487
477
462
457
451
441
435
426
418
423
434
441
444
447
453
472
496
515
505
494
492
481
476
466
460
450
420
405
404
397
400
424
422
415
425
458
490
495
492
483
485
483
475
475
449
443
430
410
405
407
418
420
420
425
445
470
483
494
504
503
505
507
483
460
442
434
423
421
419
422
435
440
440
441
445
464
466
469
480
473
455
445
426
416
412
413
416
423
439
468
495
518
539
561
591
622
666
714
752
767
795
840
878
897
928
962
981
991
990
990
990
987
989
989
988
988
988
988
989
989
990
973
870
773
683
607
533
440
363
298
268
265
236
253
299
341
374
389
398
384
378
402
400
375
364
367
363
350
351
344
351
363
363
363
376
398
418
426
436
452
451
438
416
389
359
340
318
306
310
319
331
349
368
376
391
415
435
438
450
453
450
439
410
384
369
364
364
368
372
379
388
394
397
394
416
437
452
457
459
458
456
459
440
423
420
412
401
403
398
399
410
418
430
445
451
460
470
480
481
480
472
470
464
443
424
421
415
408
413
421
425
433
449
457
470
484
494
511
512
513
509
491
479
459
443
432
438
447
436
442
443
445
443
451
462
478
495
518
538
553
551
532
505
487
482
478
469
466
455
450
458
457
468
486
518
539
558
573
574
565
546
529
519
505
504
504
504
512
499
499
500
491
501
518
534
542
555
578
590
588
586
586
563
538
525
529
513
506
506
514
522
533
544
551
568
579
587
601
615
605
579
576
563
527
508
511
512
513
502
504
519
512
506
516
536
561
580
581
579
577
565
544
525
504
505
499
485
465
449
447
458
460
461
469
476
479
506
536
525
504
500
495
465
437
428
420
407
394
388
391
401
409
408
412
428
454
459
457
443
440
441
440
434
416
401
390
372
362
362
353
356
362
370
380
396
413
426
437
447
425
410
391
368
361
352
342
344
353
357
364
370
375
371
370
387
409
416
424
430
424
413
404
396
384
381
367
351
348
341
344
359
377
386
387
399
425
437
448
448
431
433
428
413
408
396
377
368
366
363
372
381
390
401
414
429
452
472
500
537
491
435
417
392
367
359
362
370
361
365
377
381
392
407
427
446
466
485
483
474
458
452
447
421
416
417
411
404
396
399
402
404
415
424
436
458
469
481
484
483
481
480
469
462
442
426
422
413
407
413
416
425
433
443
459
475
486
509
515
506
488
483
469
437
424
419
418
426
420
426
432
443
460
460
473
480
482
495
490
490
487
487
481
473
451
448
441
427
413
415
429
441
441
432
436
462
480
504
516
506
483
472
459
450
440
433
425
426
418
428
451
444
437
438
456
476
483
497
511
521
527
512
480
450
430
422
410
415
406
403
410
416
434
443
458
485
503
511
512
509
507
500
488
480
450
425
416
403
392
406
418
425
430
439
464
484
488
498
503
503
494
483
479
468
452
434
417
406
406
413
414
417
445
449
466
485
495
506
517
523
508
483
459
440
432
428
425
412
416
425
418
406
412
422
444
482
510
526
547
552
526
491
466
440
427
418
411
414
410
417
433
439
444
455
481
511
540
557
527
504
481
465
449
434
423
419
418
415
417
416
428
438
449
458
471
488
503
507
519
524
525
530
532
501
479
460
439
431
435
448
448
449
459
463
486
508
526
531
537
535
530
524
504
487
483
477
470
457
449
453
473
470
479
498
519
537
545
555
554
548
529
513
492
481
478
471
462
453
452
459
475
481
480
480
498
510
524
532
536
535
519
497
467
443
425
413
405
398
405
414
420
424
429
440
462
477
487
494
489
472
465
459
447
433
424
411
400
402
401
412
418
429
439
446
457
481
502
516
515
500
493
488
478
436
403
384
381
384
382
387
412
424
455
464
466
484
489
506
499
476
472
474
460
445
432
421
415
410
408
416
436
440
432
431
463
486
499
504
503
501
481
455
441
425
411
401
394
400
411
422
423
419
424
437
458
473
485
500
504
493
483
476
466
466
478
490
496
517
550
589
630
680
725
770
819
874
911
935
960
977
989
991
990
990
990
989
989
989
989
990
990
990
991
942
885
804
736
684
634
590
542
450
364
320
292
264
253
262
277
292
310
315
327
360
385
398
402
405
400
396
402
406
403
386
371
357
357
369
376
384
386
399
405
405
415
444
448
435
422
420
434
433
411
388
360
335
336
352
362
383
388
389
400
412
429
454
460
462
456
440
427
419
398
383
383
394
404
398
389
392
401
411
409
426
457
482
498
496
483
477
462
441
420
406
404
396
395
398
409
410
420
431
440
459
477
491
497
504
499
493
484
482
472
463
445
431
421
415
423
436
448
464
474
464
480
497
507
523
532
520
494
480
466
455
450
445
437
437
438
442
450
461
472
491
517
538
540
545
537
528
516
499
486
482
476
472
471
476
482
490
495
496
506
525
538
567
575
575
579
570
559
559
536
518
514
490
491
492
479
484
498
519
540
558
569
585
591
592
590
583
579
569
559
548
538
531
525
522
522
541
555
563
577
595
612
635
621
596
590
592
573
545
527
522
512
496
487
475
479
498
509
516
521
529
533
543
558
560
558
548
539
525
511
503
494
481
457
440
448
452
451
454
458
462
465
476
486
489
481
467
454
445
434
414
397
380
372
371
374
383
392
400
406
411
427
446
451
441
440
431
427
414
395
380
379
351
333
334
335
334
333
345
358
376
399
425
428
427
427
412
416
406
391
386
363
337
329
329
350
361
359
367
377
391
414
433
440
442
438
425
420
400
384
366
359
357
354
350
343
356
379
386
397
410
427
438
443
455
456
434
414
400
383
373
377
374
367
368
380
394
409
422
434
450
456
455
447
438
439
444
443
437
413
383
378
387
389
393
400
409
413
419
419
418
434
451
456
467
463
463
473
463
447
425
409
403
395
396
407
412
417
424
444
468
482
498
512
497
487
480
475
465
447
437
424
416
412
406
404
406
414
422
441
467
491
506
504
504
500
493
488
477
447
432
436
457
438
416
417
438
450
435
440
467
487
499
502
504
506
498
478
458
437
414
407
415
415
420
428
434
449
453
461
471
480
487
488
490
482
480
477
471
464
459
437
420
405
413
423
437
453
459
475
486
494
505
511
512
502
476
465
463
460
456
429
403
395
403
422
435
444
439
446
466
494
495
491
490
499
490
472
458
447
436
427
407
404
417
421
418
425
433
453
465
482
493
498
496
487
481
476
465
457
447
426
415
414
415
416
416
428
431
451
474
492
504
510
493
491
488
481
474
457
446
435
426
436
448
439
420
424
435
462
482
506
509
512
515
511
501
492
465
445
419
402
403
407
422
447
455
455
450
439
455
484
503
518
514
503
496
486
474
459
436
425
421
415
416
430
444
463
472
487
504
521
520
512
499
496
498
495
486
476
471
466
455
456
450
454
461
474
506
529
535
549
553
546
553
548
521
500
489
479
465
456
449
445
445
460
475
481
493
501
508
531
538
535
525
513
513
504
493
486
471
460
447
452
447
460
459
458
462
464
482
497
503
493
465
457
463
457
446
432
451
432
385
391
402
418
436
453
466
471
486
498
501
498
483
474
465
447
434
412
398
395
393
396
410
424
432
439
453
467
478
486
491
492
484
482
470
454
434
425
425
422
410
404
408
412
415
429
445
456
466
469
479
487
485
485
480
471
456
438
429
418
413
406
403
410
419
424
439
461
481
492
505
509
500
477
458
435
420
403
392
382
376
384
393
408
430
458
490
530
569
607
635
658
682
698
704
724
741
766
797
825
876
913
937
964
991
991
989
989
989
988
988
988
988
989
989
990
978
902
802
717
642
560
500
434
364
320
301
300
310
343
356
362
369
371
378
386
372
354
337
333
339
347
335
340
360
362
377
400
420
431
436
435
434
426
413
398
379
365
357
347
342
342
343
345
355
362
371
395
418
440
457
454
444
437
419
402
390
375
374
373
366
361
359
377
400
406
419
428
442
449
450
458
454
452
443
425
412
413
391
368
373
389
396
391
399
410
429
454
470
485
493
486
474
463
452
441
424
408
397
399
402
425
435
447
459
461
464
469
476
490
500
500
488
482
473
472
474
479
469
458
436
406
408
404
407
431
458
484
510
528
542
543
541
532
503
486
485
470
459
439
426
434
448
468
478
481
494
512
523
534
547
539
524
518
511
497
485
480
483
483
471
475
490
500
512
528
530
540
550
566
571
561
561
564
562
554
538
510
491
482
493
508
514
525
527
530
537
562
584
599
602
595
590
573
558
540
517
503
493
490
495
501
507
511
519
525
538
561
573
574
574
567
556
547
533
526
501
491
478
484
487
476
468
464
460
467
485
502
514
526
537
535
511
486
462
443
434
440
421
393
385
381
391
399
399
423
441
464
465
449
464
461
445
432
426
420
409
400
394
381
365
363
380
384
372
371
386
414
437
440
431
428
419
420
417
407
383
354
347
350
356
347
352
364
373
384
398
417
427
429
434
428
420
420
407
392
381
374
376
362
354
353
357
372
396
406
411
435
464
449
443
433
423
416
410
403
398
390
381
375
369
367
371
380
382
400
422
445
464
469
472
471
464
459
444
430
422
407
388
375
373
377
374
378
387
403
434
459
472
465
471
470
467
460
446
438
424
409
403
388
389
404
421
441
452
459
464
465
480
488
495
497
481
480
477
447
412
400
400
387
392
394
405
428
451
462
473
481
499
493
492
494
492
485
472
458
432
418
419
422
431
438
440
439
439
458
478
470
470
485
487
486
488
483
475
466
450
440
437
424
425
422
418
424
434
446
459
480
498
506
507
504
489
478
461
439
422
421
418
420
421
423
439
449
455
475
480
483
493
502
498
486
480
464
457
451
436
431
430
427
426
423
430
438
456
456
475
494
492
495
505
507
492
469
450
436
429
418
419
420
426
437
453
459
466
477
472
481
490
492
486
485
481
473
457
439
433
424
418
414
422
447
451
440
421
435
470
497
505
517
515
511
496
474
451
431
434
414
394
400
417
429
440
450
453
467
486
507
515
514
503
491
477
471
466
457
452
444
433
414
397
408
418
434
452
462
470
487
504
528
527
505
495
480
453
436
424
422
418
425
417
421
434
439
441
458
480
498
508
516
504
492
488
479
470
456
448
441
433
428
428
437
449
450
459
482
499
520
526
522
521
508
501
488
473
456
445
428
416
417
423
437
451
459
468
483
500
522
531
548
545
525
525
519
512
506
495
478
462
451
444
456
477
497
509
528
529
529
539
537
528
519
521
505
494
495
492
479
456
447
459
463
463
460
484
507
515
526
538
539
536
529
525
512
499
486
459
428
410
411
437
451
455
452
443
443
446
445
457
483
492
493
486
462
443
438
422
406
396
393
395
416
439
449
459
470
483
496
507
511
499
487
476
463
445
429
407
395
383
378
394
425
415
412
432
457
480
498
512
511
497
487
469
444
434
431
428
411
398
399
405
411
422
434
445
460
474
493
495
486
490
490
478
462
448
433
427
400
396
405
418
425
427
436
445
459
472
478
482
487
472
451
444
444
427
420
425
432
437
461
480
498
525
553
591
629
674
728
761
797
839
870
899
929
953
974
991
990
990
990
989
989
988
988
988
988
988
988
989
990
990
924
830
731
636
567
481
393
306
251
237
241
257
279
311
351
377
399
409
411
398
391
385
372
361
353
345
341
326
324
334
340
352
363
385
408
429
443
432
420
411
407
399
387
370
357
346
337
323
328
343
347
358
379
400
415
424
422
430
431
430
421
410
403
384
362
352
346
347
352
361
367
381
393
406
426
448
464
476
480
481
458
435
416
406
414
408
401
386
384
385
380
385
400
416
437
456
469
479
483
484
477
461
444
430
424
411
403
391
388
406
440
455
456
456
466
475
491
518
515
493
484
481
472
454
444
437
431
429
433
439
439
440
447
467
485
497
517
523
533
529
520
506
485
462
454
447
442
443
453
454
452
468
487
504
525
539
551
555
552
544
536
523
511
502
498
481
469
473
482
489
484
490
509
525
550
563
573
578
580
575
563
543
533
536
534
517
512
519
524
525
519
510
516
529
547
585
594
589
585
577
566
552
538
530
523
516
499
495
489
494
497
500
511
530
551
561
572
564
548
545
549
535
508
484
472
465
455
453
447
452
453
469
477
479
491
497
500
500
494
484
484
471
456
437
409
395
382
375
378
395
403
400
413
437
450
467
466
456
439
429
417
411
406
404
386
368
347
346
347
367
361
364
379
395
409
426
428
430
429
424
416
400
389
380
368
360
353
350
347
353
363
380
399
419
426
437
439
446
441
414
398
388
380
372
362
360
353
351
358
370
383
393
398
414
422
430
431
444
455
451
449
429
415
396
380
378
374
372
383
383
385
403
414
428
440
456
463
465
458
448
445
437
431
416
391
385
382
407
405
390
395
404
413
435
455
475
484
488
477
465
456
449
437
425
417
416
402
388
393
403
410
420
429
447
464
485
504
508
517
502
477
454
439
431
414
397
378
384
397
414
429
443
460
480
493
504
511
510
493
489
474
446
427
421
416
416
417
426
441
446
445
443
438
448
466
491
511
513
511
510
502
486
453
424
397
388
392
402
416
431
446
451
453
465
493
504
511
511
502
491
478
472
458
448
438
426
417
415
428
440
451
460
475
486
499
494
489
483
474
471
461
451
439
432
426
413
419
440
444
431
435
439
447
463
482
487
495
492
488
489
481
470
450
435
424
411
413
415
424
440
438
435
453
484
513
522
532
529
514
502
473
451
439
419
400
406
398
401
418
437
448
464
472
491
503
517
509
483
465
474
468
457
446
439
431
422
416
407
406
409
419
442
466
489
504
511
517
505
496
495
479
469
448
433
422
411
417
419
428
428
427
435
453
471
497
517
528
520
497
493
480
465
452
443
434
419
414
413
421
427
441
453
468
491
510
510
498
495
496
495
471
463
453
433
424
410
401
412
430
427
437
457
474
487
499
498
504
500
494
498
486
472
461
442
438
435
423
427
444
444
453
468
483
495
509
500
506
523
516
501
478
463
459
451
432
414
421
428
439
457
471
488
507
514
525
523
515
506
495
491
481
476
477
466
455
438
443
442
451
471
486
486
494
515
531
544
548
547
534
524
502
499
491
485
486
481
477
479
480
479
473
480
494
504
518
527
532
532
530
523
505
498
497
480
459
444
433
427
433
441
454
467
472
499
524
529
512
497
480
466
457
444
428
421
414
410
404
406
411
416
424
433
455
481
512
509
496
491
483
470
462
445
434
425
414
396
392
406
416
428
442
455
469
483
497
496
493
493
486
487
463
427
408
393
392
388
403
425
419
425
445
463
472
486
500
494
494
486
476
465
457
440
432
430
414
400
406
415
413
420
434
445
455
468
483
485
496
488
480
458
434
417
407
395
395
380
380
406
436
466
496
517
546
584
615
649
681
708
750
790
803
814
835
866
897
932
971
990
990
989
989
989
988
988
988
987
988
988
989
990
990
950
861
762
670
606
541
455
375
320
286
270
284
323
351
384
418
416
402
390
363
334
330
319
320
328
334
344
346
359
361
368
386
401
408
425
437
426
417
393
368
346
338
333
324
340
357
353
349
349
360
377
398
415
416
421
429
425
417
398
387
377
364
359
357
355
369
376
365
368
375
398
424
450
458
460
446
437
449
447
435
422
412
381
354
354
370
387
397
401
409
423
437
455
469
475
476
480
487
488
465
446
434
421
405
407
407
412
411
416
426
443
474
496
496
490
490
489
488
469
450
434
427
421
419
429
430
426
434
455
479
478
490
505
519
526
517
506
493
491
496
488
471
452
440
442
442
453
457
457
467
487
502
528
544
549
539
529
525
514
517
515
496
477
460
461
466
496
507
485
479
505
532
559
571
582
576
562
558
543
526
512
503
501
498
509
516
523
517
512
529
559
586
610
604
598
594
584
578
562
536
514
491
481
490
487
481
497
509
516
521
541
560
572
575
578
570
554
539
520
516
519
511
491
476
472
473
480
472
479
492
502
494
500
506
511
516
500
478
465
448
430
409
402
402
399
408
426
428
414
415
434
449
465
463
460
446
437
437
416
401
388
374
371
370
369
369
374
374
374
388
420
430
435
445
440
429
424
414
392
374
359
343
344
339
342
342
349
359
369
384
405
419
432
433
440
439
422
404
385
373
365
356
355
357
360
367
374
379
382
395
413
426
442
442
441
441
443
433
415
396
388
382
369
374
388
387
390
397
400
408
416
424
445
465
470
453
440
421
396
373
369
385
405
431
436
436
398
383
401
418
431
449
458
470
471
468
464
453
435
415
407
400
394
399
402
405
407
427
441
448
465
485
491
490
483
469
463
451
442
429
426
410
401
412
427
444
434
418
423
440
463
483
496
501
501
509
494
470
464
449
449
435
422
409
405
416
423
434
443
458
478
498
507
506
502
494
482
464
448
427
421
413
408
408
416
420
432
445
467
486
502
512
519
516
503
484
475
464
455
449
431
416
405
402
403
408
424
434
446
466
494
508
518
510
495
494
492
469
452
444
463
456
437
432
442
440
411
409
426
455
474
482
496
504
500
504
512
516
488
449
440
429
406
392
395
411
423
430
447
478
491
495
505
501
495
492
478
463
452
439
421
410
401
403
418
437
450
477
463
448
461
478
489
504
503
498
488
469
459
443
428
419
411
421
424
428
433
437
439
446
461
487
502
508
506
496
490
468
447
437
430
432
411
405
407
422
444
457
452
467
485
491
491
500
504
503
498
481
474
464
432
418
418
420
410
421
441
453
452
469
481
501
501
493
495
497
496
486
465
447
430
419
406
416
423
437
445
457
461
464
476
491
489
496
493
490
488
479
466
453
452
444
427
428
427
436
447
452
459
475
480
494
498
506
504
500
495
478
464
450
438
444
436
444
456
446
428
429
452
473
488
496
500
502
500
498
493
484
468
462
461
448
436
429
428
434
438
455
480
488
505
526
537
543
535
531
526
525
496
479
476
460
450
449
445
455
470
481
497
517
529
537
547
551
546
545
533
509
483
476
487
481
467
455
466
470
468
478
484
501
515
527
547
542
526
510
494
480
464
460
445
433
423
415
412
411
411
418
434
456
476
498
494
493
492
503
497
470
453
449
438
426
416
422
424
418
418
427
441
458
479
500
498
491
486
475
466
463
454
451
434
420
410
390
399
414
436
447
463
477
505
508
504
494
476
473
456
436
421
427
419
406
406
403
407
411
421
440
447
443
453
470
487
494
499
497
484
471
446
425
417
405
412
425
429
415
417
423
436
447
458
464
464
451
439
444
449
444
446
450
455
462
481
497
521
551
593
624
663
700
751
791
837
885
918
949
982
991
990
990
990
990
989
989
988
988
988
988
988
988
989
989
990
973
868
775
684
595
508
411
332
276
235
222
239
263
291
309
338
370
394
393
382
382
395
396
386
384
373
363
358
345
347
353
369
372
367
372
398
404
410
417
411
403
401
403
394
376
362
346
337
323
316
323
340
351
362
370
389
402
430
445
452
441
424
422
409
394
385
378
367
356
365
370
377
379
388
399
418
432
454
460
463
463
449
437
423
403
395
391
403
412
406
400
394
384
388
405
429
445
476
484
484
486
481
483
474
459
442
420
412
401
398
404
420
444
455
470
492
505
516
514
514
510
486
476
463
437
422
423
418
419
438
445
447
457
459
458
476
500
524
532
546
519
500
490
478
468
466
464
458
457
453
456
464
469
476
480
495
518
535
548
557
549
541
536
521
508
499
491
488
486
490
496
507
506
505
512
527
547
567
577
579
575
566
553
538
529
530
528
522
519
526
526
515
515
524
535
560
583
589
597
597
581
568
558
545
526
510
508
501
501
497
492
499
503
513
531
538
552
569
565
569
559
549
528
505
489
481
471
452
453
464
474
504
495
454
445
467
479
492
496
487
479
472
461
452
442
425
405
396
380
373
379
384
396
407
409
428
454
460
462
459
453
449
445
434
414
389
367
347
344
329
332
342
349
358
372
389
407
423
433
435
429
428
409
393
382
377
365
337
339
351
364
372
380
391
413
442
444
428
430
423
412
408
399
385
365
356
355
351
356
348
351
360
364
371
389
421
447
459
475
469
454
442
428
404
379
363
356
349
356
362
379
396
404
408
419
427
441
453
459
451
452
451
452
445
424
407
400
388
380
384
400
417
428
430
439
451
461
471
481
479
476
477
457
438
424
411
400
396
385
388
406
414
415
418
437
455
475
490
501
499
488
472
459
447
437
437
438
428
414
419
429
427
430
429
440
466
496
524
515
500
475
452
447
425
418
424
423
429
431
430
432
432
437
442
466
480
488
499
491
492
483
484
479
462
447
442
428
419
417
419
429
429
431
440
462
483
501
510
510
508
498
484
478
466
442
434
422
416
411
423
434
439
449
452
471
489
504
525
518
500
482
477
464
443
433
426
413
400
392
398
408
428
457
463
470
490
531
566
539
492
477
463
443
430
421
409
408
413
416
423
414
417
429
426
442
465
486
494
494
495
490
488
479
462
449
435
423
411
404
411
430
447
459
472
495
507
498
491
498
503
503
499
474
452
435
407
400
392
403
419
434
443
447
444
461
473
488
496
502
503
493
488
478
466
460
445
435
425
419
411
416
412
420
441
461
473
494
500
502
500
493
479
464
454
443
428
429
421
421
427
429
426
435
448
462
487
508
517
514
509
510
510
473
444
439
431
429
426
432
443
425
420
429
450
477
500
521
527
513
491
484
486
470
446
444
444
431
419
415
421
431
441
459
474
507
528
521
506
490
484
484
481
465
458
447
421
406
407
411
424
432
435
444
461
480
499
515
517
520
517
517
510
492
471
465
444
423
414
409
427
455
465
469
474
487
503
517
520
523
520
519
505
492
487
480
477
484
461
438
441
467
484
490
503
527
544
558
562
558
571
560
534
519
520
502
473
463
451
451
449
458
467
467
479
502
520
529
533
531
521
522
514
509
496
483
462
445
427
424
416
415
426
418
432
459
479
491
495
494
484
485
486
472
457
444
434
416
413
413
407
422
427
431
448
465
488
501
507
486
476
478
478
473
444
421
418
415
410
411
415
413
435
438
444
457
473
480
482
469
467
460
452
438
428
417
423
426
425
425
441
433
416
424
445
460
482
489
494
486
475
456
442
435
424
420
425
408
395
396
416
430
437
444
452
471
497
519
519
493
472
455
434
418
402
400
404
398
402
425
439
458
485
507
536
570
621
661
707
741
738
750
775
800
834
872
917
949
975
991
990
990
990
989
988
987
988
987
987
987
988
989
990
968
861
766
684
600
533
444
367
305
269
250
257
284
321
351
378
401
395
374
362
358
361
342
325
321
326
331
343
354
359
362
383
404
423
439
437
430
419
393
376
364
361
356
324
318
327
333
350
360
376
378
384
396
410
419
427
426
423
414
399
387
381
374
366
362
364
366
368
385
426
429
429
441
468
459
436
423
416
401
401
408
404
401
394
386
378
383
392
396
402
412
425
441
460
478
489
490
492
474
459
440
419
401
383
382
387
391
400
408
439
457
461
475
488
496
502
500
485
476
472
460
444
431
422
421
428
445
439
441
443
445
465
489
512
524
523
519
515
506
493
483
478
471
464
462
446
453
471
479
478
491
515
528
537
542
536
533
525
511
485
478
480
475
477
486
491
488
495
504
487
507
538
563
574
574
566
552
551
549
545
536
525
514
502
501
501
508
523
530
524
532
546
566
574
586
593
608
604
583
557
535
523
521
514
507
513
524
527
518
508
522
543
560
569
574
563
560
559
553
543
531
514
501
487
471
456
459
453
452
458
465
493
509
510
520
521
512
494
472
453
435
421
416
401
401
405
407
405
400
397
409
429
447
461
474
472
469
460
446
427
402
375
360
349
352
335
328
329
359
373
376
394
425
434
439
439
442
433
409
394
395
384
375
365
355
351
347
344
353
364
387
400
409
421
427
423
422
418
400
381
368
358
346
345
346
342
345
356
370
392
414
423
436
438
436
433
436
427
413
391
370
356
354
357
361
363
385
394
391
390
407
427
449
465
458
454
449
449
448
437
424
394
376
370
355
352
362
377
398
418
448
460
474
497
499
481
470
454
430
405
397
404
404
396
402
412
426
429
429
422
430
445
463
473
475
474
478
480
462
428
408
396
396
407
409
404
410
413
426
435
454
476
503
528
513
482
465
456
443
436
435
429
431
439
433
436
428
420
423
417
438
469
489
500
507
521
523
502
473
453
437
417
404
402
396
402
419
430
437
445
460
478
504
510
502
506
487
470
451
444
441
429
431
435
444
449
451
447
450
453
477
499
505
495
491
476
470
459
456
449
435
425
419
420
423
418
420
424
437
449
468
488
504
502
500
491
488
480
460
444
426
426
415
414
428
435
427
432
442
452
467
477
483
481
483
481
484
477
466
454
440
426
415
404
399
404
420
446
450
467
493
500
503
501
505
510
509
496
467
457
438
425
410
401
401
408
412
418
425
439
454
470
480
495
503
505
510
506
500
482
439
421
407
403
399
410
420
428
425
436
460
487
505
502
501
498
502
488
453
431
423
430
428
430
431
435
449
470
471
471
464
487
500
482
482
486
483
478
466
450
436
428
423
416
408
410
422
429
430
443
472
500
514
524
520
517
510
507
494
473
462
451
439
439
440
444
430
427
437
449
466
491
511
512
515
519
516
487
462
450
442
431
418
421
448
475
475
474
470
481
495
510
523
531
537
542
537
519
486
468
470
467
466
469
467
474
477
475
480
501
523
544
556
557
545
537
524
513
497
486
485
481
461
455
455
471
488
499
513
534
526
497
483
481
486
502
480
447
425
412
410
409
409
412
416
432
432
433
442
463
483
492
491
492
506
502
488
470
453
444
440
418
385
376
391
416
431
435
443
488
476
479
498
503
488
472
469
466
454
435
422
425
429
412
384
392
397
407
422
447
469
489
505
502
491
478
477
465
445
433
418
401
398
395
394
404
418
436
454
477
492
501
498
507
502
473
451
437
423
412
407
412
399
414
416
405
403
412
419
427
438
470
477
473
476
474
481
481
486
497
497
507
516
531
546
570
596
634
680
740
803
868
909
946
981
990
990
990
990
990
990
989
989
989
988
988
989
989
989
990
976
926
853
773
699
631
571
493
415
334
276
245
237
245
259
276
288
306
324
347
364
391
400
401
403
408
400
387
380
385
379
348
327
325
351
370
366
371
403
417
410
418
414
397
397
409
405
399
391
380
361
347
340
338
349
355
360
364
361
386
424
452
458
454
447
447
444
434
411
381
377
376
369
373
390
394
403
404
415
432
449
462
465
470
472
469
454
440
424
412
404
394
393
394
407
419
430
434
446
470
474
468
485
485
483
478
464
444
431
421
416
423
424
417
431
436
443
455
475
491
503
519
526
516
514
514
497
479
461
445
434
432
425
430
446
455
465
459
466
484
507
510
509
512
516
510
485
476
486
489
487
481
474
492
489
491
495
495
510
532
553
561
572
569
552
535
539
540
517
500
491
484
483
495
506
509
522
527
539
556
579
596
591
590
580
574
566
550
537
532
517
515
525
523
536
545
558
566
575
582
572
579
595
611
610
603
571
538
511
495
488
480
473
490
518
534
541
539
552
553
552
552
554
559
552
538
517
503
486
481
459
438
434
443
452
445
448
454
478
492
494
500
498
494
484
480
466
445
431
428
416
415
409
400
394
381
372
368
381
400
421
442
450
451
440
422
396
388
389
353
334
345
345
343
348
363
365
367
388
391
409
425
423
424
408
384
370
366
363
352
343
331
335
342
357
353
358
365
383
404
421
423
427
428
428
429
404
389
381
364
355
344
335
334
351
371
383
388
404
424
431
429
435
434
440
440
435
419
403
390
365
354
368
376
385
388
392
397
416
445
455
464
462
449
445
442
433
418
404
402
394
382
375
375
389
390
396
415
442
453
460
467
463
455
454
447
429
421
417
417
406
403
391
388
398
402
407
428
444
467
474
469
479
484
483
470
462
461
461
443
415
412
408
398
405
421
436
441
472
503
499
503
517
513
489
470
457
450
433
431
432
429
423
429
435
439
453
473
484
502
514
503
476
461
463
462
457
445
431
423
412
422
434
433
441
444
447
457
453
473
498
498
493
490
485
476
459
445
432
420
408
411
412
419
420
430
433
450
457
479
493
499
501
498
497
500
489
458
432
419
409
420
427
430
431
452
442
450
469
489
500
509
507
503
495
483
464
446
433
422
411
403
414
428
441
448
443
457
472
483
496
505
507
501
499
506
481
449
427
410
404
404
414
425
434
436
428
448
479
499
505
508
507
482
475
454
427
427
436
438
433
428
435
434
431
440
447
465
475
490
519
531
519
507
505
496
478
476
457
422
412
412
417
424
421
435
461
487
502
513
523
540
526
511
507
499
482
475
473
449
439
440
451
463
467
474
474
492
508
533
543
543
546
537
534
520
498
477
467
456
450
449
451
468
483
485
492
503
516
525
534
546
543
540
527
508
491
487
471
460
446
447
435
428
427
423
423
451
466
472
487
501
491
483
478
471
447
423
413
413
411
417
416
427
429
433
444
458
476
485
482
482
477
488
489
478
454
422
414
408
405
406
404
407
405
407
406
419
446
476
499
506
498
486
474
460
449
439
426
407
409
421
425
437
421
418
433
453
472
488
495
493
486
472
458
451
453
455
454
457
459
430
404
410
402
399
418
447
466
474
469
472
468
460
456
449
444
431
418
415
409
411
422
442
459
475
491
516
547
570
594
621
641
661
695
738
739
713
721
765
820
861
912
956
982
991
990
990
989
988
989
988
988
988
990
990
907
834
765
688
624
571
527
481
413
354
327
322
336
365
381
376
364
352
350
350
344
338
319
316
327
328
332
344
357
366
385
415
424
425
430
433
428
423
424
426
424
397
372
364
347
342
345
359
371
384
384
395
422
444
442
446
441
441
434
412
396
386
375
352
346
356
367
392
408
414
430
448
456
458
462
466
473
479
473
459
446
434
420
407
388
375
372
396
401
412
436
479
480
476
481
479
471
469
461
445
435
425
420
412
407
406
406
405
419
427
443
469
492
505
505
510
518
523
516
494
475
445
417
405
414
427
431
436
451
460
476
492
510
526
531
531
524
516
501
485
474
479
472
461
464
471
482
487
491
496
501
505
509
518
533
552
556
545
541
540
520
494
480
470
463
468
481
490
505
504
529
554
565
571
574
574
577
579
571
558
536
518
504
502
505
512
531
541
550
545
568
577
574
586
589
580
585
579
569
554
543
527
510
500
490
500
520
535
540
537
548
555
575
595
606
607
613
598
561
530
504
479
452
442
450
454
466
471
479
483
500
514
525
528
525
516
507
495
475
451
437
424
410
402
415
419
438
444
435
432
431
434
443
460
465
466
450
434
426
410
394
384
375
372
369
367
377
388
394
382
377
383
396
414
414
425
437
414
399
384
359
333
322
318
321
329
344
356
363
368
383
393
408
418
434
439
431
418
401
394
368
348
339
334
344
358
365
368
365
375
390
418
439
450
460
466
447
413
393
382
375
379
369
365
361
360
360
366
372
385
408
424
435
445
451
446
437
431
415
395
386
381
380
378
376
385
384
378
393
423
446
454
462
465
463
464
459
453
447
436
427
411
388
376
380
396
395
394
406
424
445
463
471
493
501
492
481
465
451
444
428
413
401
400
409
426
439
449
451
454
459
476
474
481
488
502
498
466
450
446
438
419
397
391
393
406
424
438
449
464
481
498
508
524
524
520
509
487
446
416
410
426
421
416
412
412
412
416
435
458
453
474
497
510
508
500
488
468
448
433
431
434
423
424
426
424
428
436
447
464
479
500
507
508
510
506
490
472
452
438
441
437
418
415
410
408
421
442
450
467
479
493
505
507
494
485
483
480
464
445
427
416
408
399
408
420
425
433
446
459
478
500
514
521
524
506
493
486
469
462
437
419
426
414
408
418
428
434
427
441
452
469
489
498
491
486
483
472
455
445
439
424
406
405
405
409
415
429
453
472
484
491
492
507
507
511
501
486
461
443
434
428
416
416
430
438
427
423
439
460
479
495
504
508
497
492
486
478
466
469
450
427
431
437
431
444
453
447
454
478
481
495
501
512
515
511
501
484
456
439
431
426
432
428
413
425
436
447
453
475
500
516
531
538
540
537
528
499
470
446
440
441
449
445
439
451
463
488
518
527
530
541
553
553
547
530
516
506
500
490
481
461
453
454
459
467
483
494
487
491
513
537
559
563
538
522
519
512
508
501
475
446
437
414
412
428
443
451
460
481
496
487
478
482
487
485
488
491
459
431
416
397
391
392
404
410
416
437
454
465
473
487
490
493
493
491
487
465
448
436
416
404
401
404
414
418
430
433
438
456
465
476
490
494
495
482
460
451
448
432
423
417
402
400
405
405
410
421
431
448
463
487
502
508
501
494
493
463
435
419
408
406
402
403
412
418
426
436
456
467
472
479
478
479
473
466
463
455
432
410
381
363
364
379
395
407
432
477
516
530
564
607
632
666
712
741
749
763
787
815
826
855
891
923
959
990
990
989
989
988
988
987
988
988
988
988
989
990
958
877
790
724
658
598
533
443
373
323
296
289
305
330
354
376
376
369
369
372
349
335
333
328
328
341
356
352
354
363
380
392
403
413
431
436
434
429
400
385
367
361
354
325
315
311
316
325
343
364
385
395
407
423
439
440
436
430
410
385
372
370
366
362
351
348
362
365
370
382
404
423
441
455
461
472
453
420
411
406
402
396
391
393
367
360
381
388
407
419
440
465
476
481
491
483
475
475
469
448
422
402
395
395
394
394
403
420
431
433
449
463
478
480
486
487
485
481
472
449
429
421
413
418
434
459
482
495
473
467
481
490
495
498
497
504
509
502
493
472
463
462
463
456
447
451
458
450
455
467
487
501
513
531
536
533
530
530
523
511
510
507
492
473
451
437
444
455
473
500
528
550
568
577
582
579
570
565
544
522
505
496
504
503
504
507
515
520
520
528
547
566
584
590
604
588
574
562
547
532
515
503
488
486
495
506
536
542
535
547
570
590
600
602
594
576
558
544
522
487
464
452
441
441
446
460
473
480
477
485
495
509
530
542
537
524
500
487
479
455
438
432
413
399
398
392
386
396
426
439
451
467
486
494
497
475
444
421
406
398
387
373
363
367
370
368
364
367
377
388
397
406
415
436
438
435
429
426
415
406
392
365
343
341
343
351
366
376
384
413
445
465
476
452
412
402
388
381
375
364
351
349
347
357
358
369
378
388
392
399
413
435
435
446
448
444
442
434
417
410
397
382
364
361
367
376
391
406
405
407
423
443
456
471
471
461
457
449
432
412
397
383
367
369
379
389
396
399
409
425
441
458
470
480
481
472
469
467
454
433
413
401
397
404
413
417
414
415
423
444
466
478
474
482
493
490
478
477
468
455
450
419
386
372
381
396
403
414
421
441
468
488
485
475
480
489
491
476
463
454
438
424
419
427
427
430
445
432
423
443
465
488
496
511
503
497
491
479
463
448
429
418
412
417
431
442
442
447
448
459
471
482
492
507
509
508
504
492
478
461
445
434
426
420
416
412
407
427
449
464
480
500
521
521
513
503
489
476
459
447
437
435
426
410
416
422
422
426
423
432
454
486
498
502
503
510
504
482
466
461
450
429
418
407
417
422
413
423
429
455
485
505
512
514
504
497
491
484
443
427
425
429
424
415
426
438
443
439
441
460
470
487
500
504
498
484
488
480
462
446
434
424
412
408
418
432
440
453
455
465
476
493
504
508
505
500
494
480
461
447
433
425
417
419
415
427
441
444
441
464
482
496
509
515
507
499
491
473
466
452
447
440
426
422
409
419
435
445
457
476
492
503
499
498
495
482
478
470
463
454
447
439
427
425
437
445
448
456
467
483
497
505
516
512
497
498
502
500
487
469
457
441
438
438
427
414
418
426
443
471
488
506
517
526
532
528
515
504
490
479
469
462
453
448
451
458
469
475
493
514
528
541
542
546
547
540
535
526
506
478
467
464
463
463
471
479
464
458
474
491
508
524
540
550
551
548
529
504
484
472
462
444
425
422
432
425
429
431
443
464
484
490
493
493
483
484
478
462
446
440
432
415
416
426
442
446
444
431
423
428
455
479
501
500
479
463
449
430
422
420
415
398
399
408
421
425
426
436
456
472
492
498
497
489
479
474
466
459
449
433
424
414
414
415
425
430
435
435
439
442
458
477
493
500
493
492
480
453
439
431
420
405
409
422
432
431
435
433
447
460
464
463
469
458
447
449
468
448
440
422
410
422
460
489
521
542
556
583
636
693
763
817
862
886
919
954
985
991
991
991
990
990
991
989
988
988
988
988
988
988
989
989
991
947
865
790
708
619
523
424
335
275
238
229
241
253
283
319
350
373
398
411
400
404
408
408
397
385
362
346
335
326
315
324
338
336
350
374
397
412
419
418
420
415
402
402
392
366
351
336
328
323
320
318
331
339
355
372
394
406
412
413
430
448
443
426
416
391
368
361
361
366
366
365
369
372
387
397
420
448
464
472
469
454
442
438
428
410
394
391
391
383
368
376
391
392
400
407
437
473
501
506
492
482
478
475
461
441
424
410
403
394
391
397
409
407
412
432
463
482
492
498
508
524
520
499
477
463
454
440
427
422
423
428
433
436
443
461
481
496
515
520
515
503
498
499
496
498
492
475
463
447
452
462
461
455
460
473
493
515
538
553
559
558
551
538
517
503
497
487
481
489
489
480
493
515
532
534
540
552
563
558
558
560
568
571
564
547
532
513
504
510
518
527
536
539
540
554
559
563
557
550
556
558
560
560
557
550
533
522
502
493
497
505
502
504
502
515
533
564
577
579
579
573
556
521
492
472
465
462
452
448
448
450
455
455
451
461
485
520
524
512
488
476
473
465
442
424
416
415
408
395
387
393
397
409
418
446
454
455
467
459
449
441
427
410
393
376
369
353
340
343
354
366
370
370
375
384
398
423
440
444
446
438
427
408
385
376
367
355
340
330
327
341
362
389
390
391
404
421
433
432
439
440
432
409
390
382
371
358
356
345
353
372
388
401
407
419
440
457
462
460
445
420
412
404
392
378
370
359
357
359
368
384
382
388
393
417
439
465
476
477
471
462
447
440
432
414
396
401
385
371
377
397
404
420
443
459
457
464
469
468
458
452
447
442
422
407
409
407
401
396
406
416
423
428
430
447
467
478
482
482
490
491
492
482
463
440
423
405
407
411
421
430
451
468
469
468
467
489
510
505
490
474
472
462
441
429
418
398
389
392
402
424
436
447
457
480
493
502
518
499
491
481
471
461
455
453
445
430
420
411
411
420
440
435
441
457
478
490
498
521
531
507
492
476
450
438
430
424
416
416
426
430
431
434
458
472
472
491
509
513
503
498
491
477
458
441
431
435
435
426
434
441
432
424
427
444
460
480
493
500
500
498
491
478
469
453
435
420
415
434
447
442
444
436
443
468
491
505
494
499
490
479
467
452
441
427
417
422
418
405
408
419
424
433
453
475
494
504
505
507
502
495
480
470
458
442
435
427
420
416
416
426
444
459
475
501
508
502
486
480
476
473
471
456
450
451
439
423
409
411
428
436
440
449
473
501
507
508
518
516
507
499
484
469
457
451
431
407
405
405
422
435
437
440
449
466
499
519
507
497
496
495
487
469
448
431
428
435
433
428
436
442
445
434
442
461
490
500
508
510
505
500
480
464
464
472
462
437
427
430
441
427
424
435
449
471
498
516
530
532
526
512
506
481
469
460
442
438
443
448
465
473
476
455
462
493
520
536
539
534
527
525
516
499
479
461
446
457
467
469
484
492
487
489
500
514
524
534
553
553
545
535
533
552
520
480
472
469
462
454
461
463
473
492
508
516
542
557
538
521
516
511
501
481
461
449
445
436
433
429
431
423
424
442
463
479
499
516
517
511
503
495
486
467
453
444
427
410
406
411
430
451
463
474
481
466
471
492
495
489
489
490
477
462
461
457
448
438
421
418
420
426
439
444
452
469
485
492
503
507
498
487
469
456
439
418
418
414
417
412
421
441
454
465
492
504
500
509
493
481
480
474
457
448
442
439
435
427
415
421
429
424
437
455
468
471
481
503
507
499
487
482
468
452
444
446
453
461
456
467
489
510
533
562
615
670
715
758
794
825
856
882
898
923
956
985
990
990
989
989
989
988
987
988
988
987
988
988
989
990
990
950
854
757
663
576
486
392
327
294
275
274
296
328
350
377
396
402
413
410
400
401
401
380
370
356
344
348
357
367
355
360
376
416
435
437
452
456
459
456
447
428
423
391
360
340
322
318
338
359
370
378
380
392
419
438
466
467
451
434
428
420
402
389
388
398
395
384
384
388
390
402
411
423
444
470
488
490
486
477
463
452
439
423
417
407
412
410
412
409
411
428
438
454
471
489
502
511
513
506
503
495
483
466
448
437
417
423
425
421
438
451
454
475
494
517
520
523
524
514
510
507
499
483
469
460
456
464
471
466
449
464
484
497
507
528
534
543
547
551
544
533
519
497
484
483
486
485
481
483
474
480
501
527
539
559
580
592
596
590
586
573
552
528
519
511
505
495
494
513
522
530
554
588
595
602
623
609
597
603
607
588
568
566
561
550
547
548
543
537
541
552
563
584
599
612
620
621
616
609
600
589
563
544
543
543
543
550
548
548
545
550
570
607
599
596
603
605
601
599
591
569
546
531
521
504
488
494
498
503
491
486
492
512
528
546
550
551
554
534
514
498
486
481
469
452
445
436
432
436
440
441
453
467
483
495
497
491
481
472
469
454
438
424
409
396
393
396
396
398
400
410
421
441
454
466
474
474
464
458
457
457
447
432
408
379
361
361
373
390
399
401
420
435
447
473
489
496
468
463
460
446
431
424
409
393
387
390
402
413
427
430
439
453
462
487
497
504
508
493
458
436
425
415
406
396
393
403
417
425
432
437
455
473
483
505
532
522
504
496
488
479
465
448
436
428
424
431
433
432
439
444
457
481
502
522
536
532
527
516
496
482
470
465
460
451
444
446
453
464
473
466
460
480
504
522
525
526
530
523
507
503
484
466
454
451
452
460
479
490
510
517
517
513
508
523
544
545
532
521
493
468
473
489
477
445
435
454
469
478
502
510
518
527
535
542
548
550
531
526
514
505
498
517
511
482
466
463
479
477
484
490
507
533
540
546
551
547
540
530
513
503
496
487
477
469
466
457
458
471
488
496
516
536
547
558
557
556
544
536
532
514
496
484
477
472
464
466
480
488
504
517
529
539
559
572
572
566
558
539
511
494
481
465
454
447
453
458
462
467
477
486
507
522
538
555
561
553
550
544
532
509
487
475
466
482
475
468
481
488
499
498
504
528
538
546
554
559
558
559
535
506
496
490
472
463
458
459
466
475
483
492
508
526
546
562
569
567
557
547
532
528
526
502
488
488
486
490
507
481
458
461
481
500
519
538
551
547
543
529
509
493
489
484
486
489
494
497
492
491
497
509
526
536
546
546
552
555
550
544
540
526
509
490
469
452
453
467
483
494
498
513
534
549
560
568
568
546
532
527
527
521
506
489
477
468
474
485
496
498
502
512
525
532
541
542
546
548
551
548
536
524
522
522
513
509
513
508
494
467
451
466
497
535
565
587
602
581
570
562
551
533
519
487
473
478
468
475
490
508
524
543
568
583
591
597
586
578
565
548
536
530
530
544
546
528
517
527
530
527
536
550
573
587
598
599
605
601
590
577
565
557
547
523
508
488
485
496
505
517
538
556
555
563
573
581
582
581
569
557
541
519
490
473
461
460
465
469
475
481
483
495
511
516
531
538
536
529
524
518
510
497
488
475
470
461
461
464
473
488
502
511
516
533
555
555
544
519
512
481
447
441
461
484
491
487
497
494
460
460
474
496
508
527
533
540
540
536
535
538
535
518
488
469
468
472
474
481
490
497
477
478
494
506
519
534
535
531
524
509
498
489
477
468
469
467
449
444
452
461
467
489
505
514
518
505
512
515
519
528
531
537
543
533
533
526
533
562
617
676
740
818
873
919
957
979
990
990
990
990
990
990
989
989
988
988
988
988
987
987
987
988
989
989
991
898
815
741
671
589
481
400
346
310
276
266
277
312
334
349
364
391
424
454
467
468
461
453
460
449
422
404
412
391
360
353
361
378
397
404
404
419
438
460
469
463
465
455
437
429
419
402
391
387
382
376
378
385
391
395
425
452
468
480
487
492
487
480
478
461
440
415
401
402
391
392
395
402
410
425
442
464
487
503
506
513
512
514
509
496
463
437
427
419
420
432
447
463
467
460
464
477
492
506
528
529
527
520
503
489
481
482
486
475
469
473
465
465
469
474
487
507
523
539
545
536
527
538
534
524
495
477
474
471
476
477
481
488
487
485
495
523
552
575
583
572
556
554
556
552
537
520
518
515
504
490
493
500
513
521
533
563
580
596
604
599
591
576
577
570
557
544
535
536
530
526
534
533
538
548
561
588
605
619
630
629
623
615
602
593
582
566
566
567
565
569
567
568
571
574
587
612
623
628
633
632
628
629
621
596
575
555
545
540
543
546
558
549
534
534
548
561
569
577
589
592
584
589
582
563
535
528
512
506
499
485
477
472
478
481
489
509
529
543
544
531
516
507
493
485
475
477
468
443
422
416
425
433
437
443
451
459
481
496
501
501
489
479
464
449
438
425
398
380
381
390
394
387
403
405
412
424
436
448
451
454
456
445
428
420
408
397
381
370
375
388
394
409
424
426
459
482
475
451
452
470
469
451
432
413
400
406
403
400
391
381
391
398
400
407
428
449
450
455
460
463
460
462
461
453
438
426
415
409
405
405
411
423
428
444
468
488
508
506
490
488
482
476
462
444
438
434
422
412
409
417
431
434
444
458
471
479
492
499
514
515
496
479
476
491
481
437
422
423
431
437
442
444
461
474
493
512
525
529
522
518
506
492
474
461
453
448
443
441
446
452
449
457
468
476
492
502
511
521
519
516
513
507
503
509
499
473
443
425
433
447
462
474
478
479
494
513
517
516
521
525
528
510
496
491
461
456
458
453
449
449
456
460
465
482
503
525
539
551
546
538
541
526
495
481
474
448
439
440
444
452
466
470
464
467
492
510
524
529
527
524
520
499
490
473
460
458
450
442
441
457
462
459
459
476
501
529
538
535
524
517
511
498
487
476
463
459
450
453
462
460
462
470
487
486
483
488
508
505
497
492
504
507
497
479
472
458
444
441
439
443
454
459
462
473
502
531
546
543
546
542
535
513
493
479
474
458
461
445
444
453
451
459
463
476
487
499
516
518
515
519
526
517
492
474
457
446
438
431
434
444
449
461
483
511
525
543
542
519
509
497
498
497
479
457
451
444
430
422
425
446
461
471
471
492
530
536
524
518
530
523
514
503
488
482
477
465
462
457
461
468
469
480
494
510
525
542
555
548
545
534
522
505
485
475
464
455
454
466
462
459
470
491
500
521
527
533
542
551
546
539
540
530
520
508
499
491
488
489
488
496
500
491
485
500
532
558
570
571
571
563
547
538
537
526
508
483
476
469
465
479
485
497
505
520
541
548
549
550
555
556
541
513
484
469
461
463
469
466
468
480
472
456
451
463
476
497
512
512
508
504
496
485
468
454
437
420
419
416
427
443
449
458
465
484
512
521
517
511
506
503
491
471
451
441
436
431
429
432
432
430
436
448
479
502
490
488
509
516
518
513
507
495
467
443
418
397
383
386
403
423
441
450
451
479
501
525
528
523
511
497
480
462
445
439
431
430
429
427
437
443
448
457
469
484
496
501
497
494
503
502
479
475
458
439
424
404
416
442
466
493
509
524
545
579
635
677
702
725
762
801
822
845
879
910
935
966
991
990
990
990
990
989
989
988
988
988
988
988
989
990
970
885
793
733
654
577
518
446
369
315
284
272
302
326
342
373
394
401
392
392
391
388
378
352
336
332
326
336
348
357
377
396
411
412
419
433
446
458
459
447
425
403
398
401
371
351
349
356
363
370
383
397
419
435
450
456
460
452
446
433
423
405
395
384
370
365
367
381
396
407
413
407
423
453
466
468
459
458
449
461
454
441
444
436
419
408
403
408
415
418
422
426
447
469
488
489
491
492
487
487
484
479
465
452
445
445
435
425
435
441
433
442
473
492
496
513
539
536
516
497
483
470
446
438
424
417
418
435
463
470
470
472
486
505
531
554
548
539
526
528
527
508
498
473
461
470
469
475
476
470
477
483
502
522
550
567
569
572
554
529
511
502
499
493
491
488
495
515
535
543
545
550
563
576
578
579
583
579
579
574
562
549
543
549
545
541
538
550
563
569
576
576
587
583
585
592
594
594
595
590
582
572
554
521
508
503
499
516
530
543
551
555
574
592
594
599
602
606
592
569
535
499
485
476
474
476
476
477
480
485
488
494
507
514
509
509
513
510
520
507
491
468
440
425
410
406
407
411
414
421
418
417
434
453
459
464
465
461
451
440
432
419
402
378
361
358
360
367
379
388
374
372
393
418
429
432
421
415
410
397
394
386
357
355
352
351
351
344
353
360
373
394
406
419
435
446
445
444
438
425
404
387
386
380
371
359
356
360
365
364
370
386
407
429
441
445
442
432
432
424
412
398
384
372
362
361
367
367
367
373
387
405
423
444
470
472
465
461
462
444
430
410
406
385
375
386
380
386
408
419
427
434
453
456
453
452
463
459
458
446
428
420
419
415
410
396
397
400
408
424
435
447
453
464
475
492
501
493
486
468
447
425
416
415
411
418
427
431
429
434
442
453
469
481
484
486
491
494
509
493
456
439
438
430
419
410
414
425
437
448
455
473
491
504
514
514
509
502
499
474
452
453
440
429
413
411
413
424
443
472
472
471
492
509
508
505
495
491
495
468
445
434
431
426
422
417
422
432
431
433
442
466
492
502
512
509
510
505
496
475
452
437
426
413
403
403
422
435
438
448
463
481
496
504
498
503
503
498
488
472
448
436
447
458
446
449
452
443
425
418
427
447
476
506
528
534
525
513
484
454
430
428
429
414
402
411
426
429
435
442
452
473
487
489
496
500
494
482
472
466
447
439
428
413
413
415
435
444
457
459
457
469
482
478
489
499
510
518
502
481
453
434
423
407
410
418
430
444
454
469
486
516
534
527
532
524
508
498
482
475
463
456
450
443
442
441
455
460
462
470
485
505
526
539
536
540
542
544
540
526
503
477
470
466
444
455
455
453
468
475
486
499
517
533
544
536
530
520
503
492
477
473
465
459
457
459
461
456
462
474
490
518
548
568
555
529
522
514
488
480
474
444
417
396
394
402
409
417
428
444
461
478
477
484
490
479
477
478
475
466
451
435
410
398
399
407
419
426
436
451
466
475
485
486
478
478
470
470
468
455
436
423
410
400
391
401
412
416
426
444
471
478
472
473
475
487
489
482
469
455
433
418
414
418
420
428
438
427
415
409
417
435
459
472
486
494
491
489
473
461
450
442
432
423
421
420
426
426
429
437
461
486
485
476
474
463
465
461
453
455
449
438
438
443
458
470
494
530
558
590
625
678
729
773
804
834
869
896
910
928
943
961
969
977
989
991
990
990
989
989
989
990
990
991
944
887
807
731
662
612
551
470
385
313
274
244
236
248
270
293
326
351
384
406
407
403
390
380
367
351
340
336
348
358
363
377
390
396
397
411
408
410
419
434
437
433
422
414
402
388
374
367
365
359
359
367
383
392
391
396
431
449
435
432
448
445
444
435
421
400
379
361
347
352
369
393
404
408
416
423
444
456
471
490
486
480
475
469
454
436
423
407
398
392
385
385
398
420
440
459
459
470
486
502
512
496
483
467
455
439
430
428
418
419
423
425
420
421
443
459
473
489
504
522
520
513
511
501
477
455
447
439
433
429
436
443
446
453
464
477
509
541
544
540
533
522
511
491
485
469
461
450
445
460
458
456
456
468
492
512
532
547
572
576
567
567
566
555
537
525
513
502
497
490
490
487
486
496
511
526
549
570
592
599
597
596
584
573
568
556
533
516
506
501
509
516
521
531
539
564
583
598
603
617
612
594
581
557
543
535
534
526
509
509
511
513
510
512
513
512
521
546
575
592
599
574
557
546
532
518
508
492
479
462
461
471
478
466
461
468
472
488
486
488
489
488
476
454
448
446
421
398
382
379
389
400
402
408
413
423
442
460
474
475
470
463
436
399
371
359
354
338
330
332
341
356
365
358
356
373
396
414
429
416
411
410
411
404
381
372
362
354
333
316
320
338
352
358
366
378
393
409
416
419
425
421
413
406
409
395
382
366
353
355
355
360
375
390
398
408
420
434
431
423
419
420
416
395
374
365
363
357
358
362
375
379
377
384
415
428
433
443
452
457
449
431
420
413
405
391
385
376
374
380
386
395
400
412
430
444
452
456
468
477
475
479
468
439
418
409
396
385
369
366
384
404
419
430
444
447
452
473
483
493
479
467
458
449
441
434
419
403
399
404
417
437
448
437
443
460
472
480
487
482
477
476
475
463
438
428
423
416
409
408
416
428
433
433
442
461
480
499
511
526
528
518
498
465
444
433
427
422
413
408
411
416
422
439
454
473
494
512
526
510
492
471
461
447
431
427
426
422
422
420
424
431
437
431
442
456
478
501
523
507
496
492
473
454
440
442
431
418
411
416
423
406
414
419
440
471
494
507
505
496
489
485
483
467
449
434
423
417
418
432
443
441
439
439
453
473
492
492
490
487
473
459
448
443
444
442
441
424
408
420
432
441
450
454
470
478
490
505
519
523
512
490
459
446
422
414
406
391
398
401
414
422
445
473
479
487
497
499
501
500
493
489
467
453
440
432
422
416
417
419
423
418
423
435
449
467
490
493
499
504
499
493
476
462
444
437
426
410
410
423
442
450
447
460
472
492
523
541
523
509
510
514
487
471
457
450
433
423
427
433
446
459
471
476
477
498
520
537
537
522
505
495
497
494
479
469
470
472
463
463
469
475
477
490
501
532
559
561
552
530
511
505
506
499
481
470
459
449
448
455
467
470
468
473
488
502
513
529
533
534
530
530
515
485
470
459
448
442
438
423
416
417
429
442
459
473
486
489
493
484
476
472
455
431
415
413
407
418
427
431
427
424
436
451
470
479
489
492
481
476
470
459
442
429
428
434
415
398
398
416
427
434
427
435
454
470
494
501
506
500
488
472
454
435
416
404
391
381
393
409
415
422
433
446
458
467
474
475
480
483
482
478
466
457
443
431
420
417
421
406
403
415
427
439
456
465
475
477
480
479
467
439
416
399
400
397
410
427
449
473
486
504
525
563
606
655
700
740
780
811
843
869
890
911
930
953
975
988
990
990
990
989
988
988
988
988
987
988
989
990
963
867
769
676
604
544
451
348
284
258
245
242
266
294
329
365
385
398
406
403
402
385
357
353
354
332
318
319
331
343
348
349
364
374
394
411
436
441
431
420
422
402
380
359
354
346
335
338
345
344
358
368
365
374
395
410
417
418
413
423
433
413
398
386
378
368
363
363
358
365
367
372
384
399
420
446
459
462
463
458
451
445
428
408
394
392
385
384
387
392
401
405
414
434
449
463
483
490
492
481
461
438
427
415
410
402
409
410
408
417
419
427
448
464
468
479
492
492
497
501
494
481
457
456
455
428
416
409
418
431
443
443
456
474
492
508
520
536
525
509
502
489
471
460
454
451
442
446
455
462
469
481
493
507
528
549
556
557
547
537
526
513
494
473
467
462
457
458
465
475
497
503
526
549
559
569
575
563
561
563
556
555
559
526
500
484
490
494
482
493
509
515
520
541
575
595
591
584
573
565
556
541
526
526
529
525
505
503
506
509
511
508
519
537
544
555
557
559
555
555
556
529
496
478
467
456
444
446
458
464
480
473
459
471
496
517
525
517
512
503
486
468
453
435
425
416
407
408
409
408
406
400
418
434
436
433
432
434
435
433
420
405
396
383
358
352
351
361
373
369
369
379
396
422
429
428
425
425
423
431
431
407
375
350
348
340
333
343
347
352
366
372
384
399
418
426
439
441
437
428
420
405
380
360
348
340
337
347
356
364
368
375
401
433
449
458
475
479
469
464
441
418
390
375
354
354
359
357
360
355
371
391
406
424
448
464
465
470
474
465
447
428
416
403
389
387
373
368
373
386
409
424
445
470
479
475
476
474
462
459
457
437
419
412
397
385
385
395
402
400
404
418
436
449
463
473
478
490
486
476
474
458
442
420
414
413
406
408
418
417
419
437
451
453
470
502
514
524
521
508
486
477
439
409
397
402
415
425
424
425
424
422
444
473
489
500
509
511
490
466
455
455
443
428
412
402
400
407
415
419
431
450
475
488
491
494
499
489
478
477
469
460
447
437
428
425
425
421
423
433
442
444
456
473
488
495
489
484
479
476
466
456
444
433
418
416
427
437
444
440
433
440
464
471
481
486
500
506
501
484
471
451
438
431
421
420
421
432
447
458
481
506
488
462
452
458
464
463
461
453
445
453
452
435
414
413
414
417
423
438
445
459
479
493
501
504
503
502
498
490
472
448
424
418
414
407
404
418
428
440
442
459
472
477
499
512
502
496
489
475
456
445
437
437
425
412
404
411
418
429
434
452
470
488
507
516
512
510
514
514
496
470
456
443
429
419
405
407
415
436
447
441
446
471
504
519
512
505
501
486
463
449
441
428
416
408
417
442
467
477
498
521
517
505
500
502
504
496
491
485
463
436
431
417
414
422
425
444
446
440
443
456
488
522
544
541
532
524
516
508
500
493
487
482
475
455
448
448
454
473
480
498
512
524
538
535
541
544
538
532
517
488
473
462
460
460
475
481
446
440
455
486
523
533
536
543
545
538
532
519
496
479
463
434
422
416
414
416
421
427
438
450
461
479
487
488
481
460
451
448
447
437
431
423
415
410
413
411
413
427
441
462
483
490
490
500
510
493
469
447
433
426
424
414
408
409
408
408
408
430
448
451
473
491
509
513
510
506
493
469
439
423
422
408
400
390
395
403
418
439
457
476
493
501
495
481
475
476
459
438
424
414
405
394
387
388
397
413
420
425
436
455
483
487
493
501
469
447
438
415
398
389
399
411
421
433
454
487
517
533
558
593
625
673
711
747
779
814
846
865
878
911
945
988
991
990
990
989
989
988
986
988
988
988
988
988
989
989
991
906
808
714
622
533
433
357
316
288
273
272
303
342
370
390
385
372
362
354
344
337
329
324
325
327
335
339
336
338
343
343
361
382
406
420
423
414
402
403
411
384
371
363
346
332
326
323
333
353
344
344
365
389
406
419
424
424
419
413
402
390
382
373
358
344
348
354
356
358
376
395
415
419
428
448
457
457
462
459
439
420
411
402
389
387
391
408
409
395
391
389
410
428
445
455
464
474
468
468
463
450
426
406
400
383
377
386
399
416
439
443
451
476
493
503
512
507
494
486
479
461
439
437
429
423
426
423
426
436
444
450
477
494
518
522
511
521
521
502
484
469
458
453
450
450
437
441
461
472
487
496
507
528
548
563
553
550
533
529
530
510
484
476
469
465
460
445
456
477
492
507
520
531
560
566
564
561
560
555
546
536
526
527
504
489
490
495
507
519
529
534
545
564
583
583
589
595
589
577
559
545
523
514
507
499
499
499
516
535
540
537
560
576
584
589
594
580
549
522
504
491
470
457
444
442
444
456
477
479
477
482
487
496
507
516
522
519
516
500
486
467
445
433
420
405
374
381
399
408
404
400
414
431
448
456
453
447
451
444
426
410
384
364
361
359
365
370
364
371
379
380
387
399
407
428
441
433
424
416
392
369
349
339
334
352
347
349
357
361
374
390
408
431
440
441
436
430
421
410
389
376
368
356
342
341
358
370
371
377
379
385
395
417
440
447
450
444
437
431
415
404
390
381
383
375
368
370
384
403
404
409
420
428
454
473
466
444
438
430
413
395
395
385
366
366
383
399
407
416
418
427
431
438
448
466
476
482
472
450
437
424
418
408
400
396
380
384
397
415
430
445
460
479
488
490
486
483
474
469
462
450
428
406
393
391
391
398
396
406
412
440
471
474
490
502
511
504
490
486
467
438
430
420
405
397
398
402
402
415
433
450
463
490
504
509
491
483
469
466
458
452
443
425
404
408
430
445
444
444
457
482
493
500
502
507
497
484
482
477
462
448
436
422
421
418
411
421
440
446
434
441
459
479
495
506
503
499
495
483
461
443
434
428
416
397
390
402
416
427
435
459
473
489
494
502
508
496
484
478
461
435
418
419
422
413
404
414
429
450
463
470
487
512
514
502
496
488
481
465
443
434
433
431
421
420
414
415
428
447
452
464
471
490
508
523
522
498
482
468
443
428
416
414
413
410
427
430
433
450
471
498
504
489
484
489
479
472
468
457
452
447
445
441
429
412
418
439
440
438
442
467
484
499
508
501
492
481
474
467
456
442
427
419
413
411
419
435
443
451
470
495
497
500
496
492
491
487
481
470
455
433
426
426
419
421
424
428
429
428
447
468
487
495
520
521
500
501
500
480
459
445
439
430
420
420
433
435
437
444
453
477
499
524
546
536
516
507
501
482
470
457
432
426
427
437
453
454
461
465
469
481
503
531
541
544
541
542
536
511
497
479
457
446
444
448
460
457
461
468
478
492
510
529
550
557
554
548
530
502
474
461
455
452
454
467
468
473
476
481
495
510
529
539
530
528
510
499
491
477
468
448
433
419
417
421
433
437
429
432
472
492
502
505
510
509
498
494
484
464
436
404
390
387
395
409
431
421
432
445
452
466
481
485
488
483
472
462
454
445
434
432
423
419
411
409
418
425
437
445
464
481
496
494
487
487
483
476
442
424
426
421
413
396
398
411
423
425
420
419
436
460
485
500
510
517
501
482
464
449
436
433
427
418
423
433
438
433
433
433
450
466
481
477
481
471
474
463
431
414
401
398
402
420
444
465
491
525
558
577
626
681
720
770
818
861
881
918
958
986
987
990
991
990
989
989
987
988
988
988
987
987
987
988
990
990
968
872
772
680
609
526
415
326
273
245
236
241
271
295
323
357
389
389
397
400
402
399
386
365
348
342
342
339
324
330
332
337
353
367
386
395
408
422
426
421
416
403
392
371
368
355
333
330
337
333
334
339
347
367
395
413
427
444
458
436
427
426
423
422
395
362
343
347
347
347
346
356
376
394
419
434
431
435
450
456
458
456
427
397
383
378
370
379
391
400
403
411
418
427
440
450
470
486
481
488
475
452
429
417
408
402
400
399
397
406
417
436
447
459
472
489
506
507
518
512
487
464
453
454
451
445
438
427
420
422
434
454
469
486
502
522
529
527
517
505
512
500
466
453
451
447
435
436
445
466
477
478
480
495
518
544
565
583
570
542
516
496
486
493
487
476
472
472
477
483
488
500
516
538
547
559
571
569
568
563
565
549
530
516
509
508
507
507
516
527
537
539
541
551
559
569
576
589
587
579
576
560
548
547
543
520
500
505
507
516
519
520
522
541
554
567
569
572
564
557
551
535
523
507
485
473
447
442
456
470
471
487
493
506
525
531
517
499
485
479
468
455
432
421
407
390
395
396
389
398
411
410
400
418
434
443
447
450
457
455
452
434
415
403
375
363
355
345
344
351
361
371
386
403
414
429
436
433
433
423
406
388
369
355
347
342
336
339
338
348
361
368
362
391
411
423
431
444
439
433
424
403
387
384
370
360
352
355
371
384
374
372
392
399
409
424
437
451
447
435
425
415
395
403
407
396
407
401
398
397
387
392
399
416
436
443
449
444
438
437
430
424
410
389
380
376
378
382
398
417
419
418
424
443
453
456
465
469
468
460
454
444
422
407
391
390
399
409
417
407
417
432
428
440
454
473
487
498
494
485
478
465
445
433
415
398
391
400
405
420
428
453
481
480
486
490
498
494
483
483
469
456
441
424
413
406
402
404
410
419
436
448
465
488
501
507
509
515
527
487
467
464
451
453
438
424
415
416
422
433
433
433
448
474
502
508
499
491
483
486
476
465
448
426
416
412
413
411
415
435
463
460
459
473
490
495
498
488
479
476
468
459
446
438
414
412
421
407
408
421
433
445
464
473
487
507
516
519
515
507
483
465
458
453
449
443
425
418
417
416
433
431
444
470
497
503
501
495
478
467
457
446
430
421
417
416
425
431
440
442
442
464
492
503
507
502
497
502
493
486
471
452
444
432
424
415
418
416
416
418
431
441
460
471
489
496
500
495
488
482
465
456
452
438
422
402
395
402
432
437
442
452
471
493
513
521
523
515
494
484
478
462
448
427
404
403
411
419
428
450
459
454
466
495
506
512
503
495
480
477
474
468
470
450
432
429
429
429
442
446
447
453
465
478
497
509
515
524
515
493
462
440
433
424
408
399
404
412
420
424
436
453
472
488
510
521
518
510
515
503
478
457
448
437
433
426
421
423
430
437
442
446
457
477
498
505
513
527
535
522
499
475
463
456
442
433
428
437
443
460
470
475
495
520
533
543
540
533
520
501
475
463
457
446
446
454
451
456
459
457
472
486
502
525
553
558
558
551
552
541
526
506
490
472
463
459
468
482
478
476
484
492
509
531
549
551
548
542
526
507
489
480
478
472
464
445
432
425
424
425
430
447
476
484
498
507
514
511
500
485
477
450
423
403
387
390
405
426
413
409
420
427
449
479
502
521
508
504
498
483
468
456
438
410
398
395
401
407
418
427
431
443
458
471
479
483
479
478
485
477
465
440
435
421
409
408
413
413
413
407
419
441
466
487
497
502
504
492
478
463
451
442
439
429
410
402
408
425
446
455
440
444
469
477
478
492
501
496
500
494
474
442
416
380
362
357
355
370
387
397
435
491
507
521
543
559
579
603
623
627
643
679
718
752
784
820
861
905
954
991
990
989
990
989
988
988
987
987
987
987
988
989
990
991
924
848
775
716
646
574
493
413
365
344
321
307
321
333
345
350
345
338
332
333
329
332
337
346
357
372
372
377
386
392
397
404
410
411
405
389
377
360
346
334
327
331
336
345
350
357
366
374
392
418
429
434
423
412
393
377
367
360
348
349
347
347
342
340
361
368
382
406
430
476
467
427
417
420
424
409
396
389
385
378
363
375
390
392
395
403
419
444
470
486
485
495
489
480
455
433
414
391
384
386
396
397
394
402
411
422
432
451
470
484
495
491
488
481
470
464
455
450
438
428
414
417
421
425
430
442
476
500
491
507
507
497
481
474
469
464
465
472
463
440
430
430
438
439
455
475
478
495
521
529
532
541
556
540
516
496
477
483
498
489
469
470
477
490
493
507
529
531
543
562
577
581
578
577
562
535
513
510
496
488
475
477
488
504
521
539
552
563
584
608
592
576
576
575
565
558
540
533
541
513
487
489
514
529
543
549
552
558
564
562
571
585
586
572
545
526
503
487
472
455
464
473
478
481
491
516
530
546
551
546
548
549
530
515
497
480
461
455
443
426
423
423
424
425
439
458
451
448
457
466
474
476
467
456
440
433
421
392
352
342
337
341
357
378
393
388
402
420
432
448
451
440
433
423
408
387
375
370
358
351
351
353
345
335
343
353
372
395
419
439
448
433
418
410
394
383
363
352
341
336
337
337
348
366
376
384
400
414
434
449
442
439
439
450
452
452
427
379
349
346
344
351
354
359
363
381
400
419
448
465
461
455
450
450
438
422
407
385
377
401
398
395
404
403
402
409
427
436
453
453
458
463
452
439
428
414
414
404
397
398
404
399
392
392
407
418
438
458
472
479
483
482
469
454
444
435
428
421
424
424
420
412
411
417
427
443
460
462
470
482
485
495
488
471
442
428
429
428
424
432
415
406
417
431
451
460
470
507
523
510
505
497
492
485
470
463
459
435
400
389
391
399
414
430
438
447
468
492
522
538
542
517
496
483
476
454
440
424
410
400
402
407
422
442
452
462
471
501
512
514
515
507
504
500
491
469
457
445
424
412
402
402
413
417
423
437
464
479
490
500
500
493
486
479
468
455
451
433
426
420
415
424
429
439
443
444
466
485
495
491
487
487
493
483
461
454
439
417
411
420
426
421
435
449
447
451
472
501
506
505
511
521
521
507
482
459
446
427
406
407
412
418
408
415
429
443
461
483
502
519
501
484
477
465
458
446
447
448
442
442
427
431
427
423
440
451
466
479
487
500
511
501
495
476
454
437
436
423
413
414
421
437
444
449
460
472
481
501
513
513
509
493
485
476
464
449
452
450
432
417
412
415
413
426
435
459
489
510
511
504
503
498
498
484
475
460
456
453
436
432
444
452
446
442
453
474
472
482
497
507
500
493
491
479
474
467
453
437
435
426
424
440
447
448
471
489
490
499
519
518
505
505
500
486
475
457
444
433
426
414
431
443
438
439
458
476
486
503
518
531
534
512
498
485
476
462
448
440
427
425
424
437
462
477
492
516
541
551
557
560
550
529
509
493
485
488
481
462
463
478
482
492
490
481
494
524
542
543
554
556
538
528
525
509
489
470
456
451
448
439
447
467
490
504
493
497
516
530
523
509
510
499
490
482
475
460
442
424
409
412
415
418
423
420
434
454
474
502
511
520
504
482
464
440
430
428
426
430
426
405
395
408
414
417
441
471
464
462
490
510
503
497
482
457
436
420
415
395
395
401
412
417
418
420
433
456
474
483
483
489
485
486
472
448
432
431
428
426
424
419
426
426
423
428
447
469
490
502
501
492
484
479
469
460
444
435
422
412
409
399
412
425
438
438
442
453
462
464
461
453
444
449
440
436
436
454
466
469
472
505
535
555
586
622
668
721
773
822
867
898
924
969
990
990
990
990
989
989
989
989
988
988
988
988
988
988
989
990
990
946
867
779
689
602
494
411
341
259
206
204
234
259
281
311
350
386
400
408
399
400
395
390
371
359
353
344
341
345
341
350
358
356
351
369
397
419
429
429
428
422
410
403
394
383
354
340
328
324
324
326
323
331
351
368
383
397
423
444
448
452
451
446
422
393
364
352
354
353
352
357
375
386
390
396
413
435
450
459
468
468
465
461
432
426
418
402
391
386
382
382
385
399
407
426
459
480
494
501
495
478
471
459
445
441
431
420
411
409
422
433
438
435
454
459
449
461
473
487
502
499
483
479
487
483
470
458
432
416
409
418
431
444
457
474
494
516
536
558
555
518
501
500
491
488
471
461
468
457
459
462
458
467
471
480
495
510
529
556
571
564
570
560
545
531
501
488
482
487
481
469
473
492
499
518
543
574
595
603
617
624
610
586
546
523
527
522
499
495
501
512
519
527
537
550
567
581
600
610
605
596
586
567
559
552
538
517
503
498
509
523
535
534
525
534
547
560
575
582
579
569
559
542
530
512
493
472
452
446
445
448
456
463
473
471
484
503
518
523
504
495
482
468
464
460
452
437
416
392
373
370
363
384
397
409
431
448
456
454
446
431
420
418
413
403
381
359
357
344
331
335
338
354
374
395
408
425
427
430
428
421
425
420
387
359
355
355
357
359
362
357
352
350
364
391
401
405
418
431
432
429
414
403
383
367
349
329
334
343
355
371
379
382
391
407
431
443
447
452
449
434
425
415
400
385
377
368
363
359
358
374
381
392
394
401
439
486
491
485
475
452
429
409
401
387
383
381
379
382
382
394
394
394
406
429
452
472
474
478
476
470
460
459
441
413
402
392
398
396
399
416
431
449
454
458
473
483
487
485
483
469
458
450
440
431
422
423
418
398
398
397
410
423
420
439
465
493
495
503
501
496
481
454
444
434
426
428
419
422
418
424
451
464
466
483
497
518
518
511
512
502
485
461
440
424
415
396
384
386
393
400
414
435
466
478
491
505
511
521
506
490
479
465
457
446
439
428
426
426
430
420
422
430
438
463
489
511
534
530
509
498
481
458
445
437
438
429
439
432
432
438
444
439
444
457
479
505
519
506
495
495
487
472
453
426
415
402
395
399
417
432
440
459
464
472
483
486
495
502
517
530
514
467
440
416
391
374
378
390
418
434
442
448
463
480
493
498
502
500
498
497
491
473
454
442
429
419
418
422
429
433
431
431
449
466
480
494
513
523
529
516
478
447
441
440
418
415
417
425
427
442
463
474
468
472
491
500
498
495
495
493
481
461
448
441
426
415
415
430
443
446
451
458
462
464
478
494
512
511
504
496
484
467
455
435
421
421
421
428
450
449
461
483
495
490
488
508
533
547
535
510
497
485
476
475
467
464
455
457
456
449
456
469
483
503
522
535
541
538
526
515
494
484
483
478
476
471
473
467
468
475
482
486
502
517
535
557
583
588
574
557
542
515
470
450
438
425
431
432
433
444
464
488
500
509
525
542
528
512
502
489
468
454
433
423
414
403
395
397
395
390
402
431
465
503
525
513
509
512
485
461
446
440
437
427
415
402
400
404
420
426
426
434
459
486
502
499
493
487
481
486
466
440
423
421
410
407
416
419
419
428
443
439
449
452
461
477
487
487
473
458
445
434
437
429
425
417
419
431
424
422
422
432
457
482
498
498
496
505
508
495
468
451
434
433
421
395
390
398
403
414
424
437
444
454
462
482
500
512
511
507
490
489
490
505
515
534
572
625
664
705
735
773
815
864
915
946
981
991
990
990
990
990
990
990
989
989
989
989
989
990
979
922
873
824
779
741
684
607
520
419
344
309
281
261
261
275
295
315
336
352
347
354
367
391
409
416
420
418
406
392
375
371
367
354
356
353
336
335
345
362
378
393
410
427
431
443
436
432
429
417
397
381
371
355
345
348
355
366
375
380
380
394
414
430
451
462
458
460
469
447
418
403
386
368
353
354
369
378
396
414
419
433
450
478
491
496
495
488
473
444
417
405
402
411
411
427
437
437
426
428
423
438
468
497
491
490
484
475
474
462
445
439
439
432
421
427
428
420
418
438
460
478
502
511
509
520
529
523
503
480
464
451
449
443
439
435
444
461
464
475
491
505
517
526
518
510
516
520
518
518
514
501
482
469
459
459
464
477
482
501
502
513
548
574
587
582
567
555
543
533
528
533
524
504
507
503
503
506
527
541
558
577
598
622
622
607
593
575
559
554
554
549
538
522
515
521
530
532
530
531
545
566
582
599
605
601
611
611
587
561
543
524
504
504
497
497
497
502
511
518
530
548
559
568
560
560
556
548
539
521
500
479
470
466
462
460
458
461
473
475
477
494
490
484
485
487
485
481
479
468
451
427
410
395
384
384
388
383
385
393
397
408
423
435
454
462
461
455
434
411
385
357
337
333
336
341
349
357
367
374
371
381
388
399
402
407
404
392
381
372
361
354
360
357
333
331
337
342
354
368
390
398
406
412
414
407
403
394
397
397
403
408
405
393
384
365
349
341
343
358
372
392
411
425
451
458
444
424
414
408
396
388
382
371
366
373
386
388
400
406
424
446
442
453
459
464
464
455
439
415
395
379
368
369
375
388
387
396
413
427
443
454
463
475
476
477
464
449
444
432
418
395
388
389
388
394
412
429
427
433
455
472
476
482
489
472
465
457
448
436
438
434
424
424
421
419
425
429
437
446
469
486
501
502
513
515
503
491
486
461
439
434
417
398
383
381
399
410
427
453
463
473
491
499
520
522
509
492
482
467
459
454
437
429
423
414
418
427
445
451
447
454
489
507
514
514
505
494
482
460
452
448
446
430
418
418
425
423
421
430
453
474
493
497
499
502
502
497
481
469
473
450
435
429
431
432
439
432
419
431
448
464
490
511
513
495
480
470
459
452
444
441
424
404
399
405
415
430
448
454
463
475
494
494
497
499
500
508
490
470
464
440
441
441
422
411
425
433
441
453
474
485
494
487
485
491
496
486
467
464
462
467
448
411
406
415
427
436
444
458
466
483
513
518
518
514
512
500
480
479
476
454
444
438
443
446
453
461
464
474
487
501
513
516
525
524
516
502
497
492
493
474
462
448
438
447
459
470
477
494
511
527
535
537
539
533
536
539
512
497
483
465
443
437
435
444
448
461
473
489
505
527
538
548
544
523
513
500
484
460
441
432
410
399
403
415
431
436
436
443
457
470
485
499
497
497
493
482
464
447
435
424
414
405
410
411
413
434
444
460
482
493
501
500
486
471
466
464
461
461
434
410
402
397
403
414
423
432
433
456
482
495
498
506
500
491
491
463
422
409
404
398
396
394
393
408
404
404
411
434
457
467
490
509
509
501
487
471
460
455
450
441
425
406
413
414
415
414
420
443
465
480
484
487
482
467
453
450
439
446
453
446
445
450
465
493
511
532
558
596
641
697
749
787
814
844
873
893
903
926
948
959
975
981
991
990
990
989
989
989
989
989
990
991
926
867
778
699
617
553
489
430
343
287
267
267
275
286
307
333
352
381
396
405
397
387
388
381
382
383
369
361
358
344
343
362
382
390
379
414
427
407
402
420
435
434
428
409
384
364
350
344
350
358
367
381
385
388
401
431
450
455
463
462
447
435
423
406
392
377
363
352
351
369
384
396
405
413
429
454
471
483
485
489
480
466
457
451
424
408
392
385
391
401
406
404
398
405
425
447
471
495
503
504
491
482
481
475
466
459
450
430
411
414
423
428
434
444
454
458
464
486
503
515
518
514
497
479
462
454
446
440
445
451
453
456
463
463
468
477
493
507
511
519
526
534
524
510
497
487
471
454
454
459
460
466
476
483
494
525
548
552
561
581
562
551
537
520
500
495
487
487
491
499
510
516
524
531
544
563
581
593
599
601
588
575
564
550
542
534
525
530
522
507
528
534
532
525
529
548
575
597
598
594
592
586
581
569
561
546
530
527
513
516
527
540
524
518
532
545
567
579
574
566
556
546
534
527
524
514
496
478
477
470
470
468
474
476
481
486
508
524
524
512
505
478
461
447
434
424
414
408
401
386
384
393
407
423
434
447
461
465
466
461
447
435
426
411
395
382
366
355
342
341
359
362
373
370
373
395
415
428
427
423
417
409
395
378
364
356
350
341
328
335
363
363
364
362
370
384
401
410
420
433
439
448
437
418
398
387
374
359
354
361
363
353
350
356
374
397
419
438
450
453
443
437
428
420
410
393
376
364
352
344
345
357
376
393
414
439
454
452
456
458
458
440
424
406
406
392
382
375
378
388
406
414
424
425
442
449
457
466
466
458
453
444
430
420
413
406
397
389
398
414
427
428
429
417
417
434
455
470
488
497
486
468
460
445
446
439
423
435
445
452
462
469
446
422
433
455
468
479
486
500
497
483
465
439
418
415
411
415
412
409
431
467
471
470
490
494
491
481
483
497
497
473
460
446
442
433
423
412
411
418
424
427
437
463
484
495
506
513
514
513
508
493
476
459
447
427
414
399
407
415
427
448
454
463
480
493
502
497
489
479
471
461
449
436
437
439
440
426
432
441
450
462
463
481
501
508
508
505
513
501
499
492
482
443
422
406
394
389
404
417
423
439
445
457
484
500
495
500
512
507
497
493
482
462
443
410
401
401
402
425
425
427
439
455
480
496
491
489
484
493
498
487
460
444
448
437
421
412
415
425
443
463
463
465
464
477
500
502
496
480
476
472
450
433
428
423
419
413
423
437
444
450
457
471
475
480
488
502
510
497
501
499
470
443
428
413
412
421
424
426
441
460
471
478
487
505
519
520
521
516
510
495
475
459
448
434
430
429
433
444
450
464
472
496
521
528
520
517
514
501
495
488
491
484
470
452
441
445
456
467
471
481
489
502
528
551
562
569
561
554
549
532
515
486
466
460
444
444
426
423
444
463
471
481
499
516
525
531
532
520
503
493
487
480
472
455
444
438
439
453
454
456
468
485
499
510
504
501
499
481
477
475
470
462
454
432
417
400
396
413
428
433
440
452
459
471
488
497
497
498
490
466
445
430
425
421
415
408
412
420
426
438
446
454
473
485
493
496
498
495
481
472
452
426
405
402
406
406
412
419
433
433
450
472
481
490
476
479
491
493
473
454
438
431
417
396
387
400
416
419
415
423
435
456
474
487
489
486
500
498
487
466
439
415
390
368
360
365
377
398
422
444
471
500
533
560
578
608
646
650
665
684
704
731
761
790
817
853
901
944
986
990
990
989
988
988
988
988
988
988
988
988
989
990
958
864
784
728
674
619
556
472
400
347
318
305
313
324
343
351
354
352
338
336
333
337
342
343
339
341
351
361
383
407
408
416
425
433
431
426
412
388
366
357
342
318
316
344
338
333
342
336
354
381
409
416
418
426
426
417
397
379
366
354
349
339
337
343
358
385
387
392
412
429
444
457
480
476
469
464
444
420
395
375
375
364
361
363
371
384
394
406
426
448
463
480
484
483
464
458
458
437
416
411
404
405
407
409
414
425
412
413
443
472
483
488
490
488
486
505
489
470
459
431
410
391
387
404
424
441
452
472
478
472
480
497
505
505
508
506
494
486
479
471
464
458
449
458
476
480
474
475
501
514
506
517
529
530
513
508
504
499
492
488
475
459
461
468
473
479
482
491
514
542
562
571
573
587
579
564
542
526
519
501
479
473
472
482
498
507
519
530
557
584
595
600
620
618
606
580
551
541
526
503
500
504
515
518
518
522
538
537
551
585
581
570
580
579
561
543
523
519
511
504
480
472
476
477
470
474
481
487
499
506
528
557
570
554
529
520
510
471
438
419
413
409
413
419
415
406
409
417
435
469
494
501
496
484
476
461
439
418
397
381
370
366
362
365
359
373
385
387
402
420
438
445
443
434
428
418
404
382
372
367
358
346
333
337
351
367
378
388
410
429
437
434
438
444
450
420
370
344
343
346
356
362
370
372
380
388
376
383
405
424
439
446
452
451
448
443
439
427
411
380
353
328
326
332
363
393
412
420
427
444
459
468
474
462
451
444
428
410
398
377
363
368
376
383
394
405
419
437
454
468
476
481
480
472
471
455
439
429
416
398
408
414
411
418
418
422
419
426
444
468
480
490
485
472
469
455
440
427
417
411
396
389
413
432
430
435
447
450
464
489
504
509
496
483
465
453
447
431
420
400
396
399
405
417
421
427
442
468
499
518
525
508
502
489
482
463
445
445
442
425
416
413
405
403
423
450
473
489
500
518
511
505
510
505
494
466
438
420
426
423
415
410
412
427
436
442
453
471
494
519
524
507
513
510
498
493
466
437
421
416
408
405
397
400
408
416
429
455
470
492
510
509
496
475
485
490
467
449
436
419
415
408
416
422
431
442
448
468
484
492
498
499
498
494
488
472
458
456
457
439
426
424
428
431
432
441
460
481
497
502
506
491
483
490
498
493
481
460
428
398
394
402
409
413
424
431
447
474
490
510
529
522
512
498
473
460
459
447
438
431
428
425
418
410
418
431
439
455
477
503
508
518
509
484
469
457
454
462
454
441
430
420
440
459
449
421
421
450
484
502
513
506
500
492
483
473
451
435
427
422
424
427
446
452
446
448
470
489
508
521
524
516
500
491
486
472
455
446
431
420
418
420
431
438
452
464
479
503
524
532
528
525
515
503
497
485
473
461
457
473
461
459
460
457
464
474
491
515
545
556
549
546
548
547
529
509
487
474
461
449
450
451
457
469
477
482
500
521
533
535
541
540
529
521
511
499
485
478
476
463
455
447
451
452
454
467
475
484
507
511
502
480
471
476
472
465
453
435
418
414
416
416
421
422
434
440
448
465
486
515
532
513
491
478
464
453
442
426
412
401
397
398
408
415
426
446
463
462
467
480
494
497
496
493
473
469
479
447
404
381
381
399
406
410
419
435
463
491
502
502
501
498
480
462
443
437
432
425
403
400
399
399
407
413
421
432
454
472
493
511
510
503
495
491
472
448
438
426
410
397
392
394
402
415
429
442
459
473
477
492
527
534
497
491
498
522
548
560
574
602
637
687
737
792
836
883
938
991
990
989
990
989
988
988
988
988
988
988
989
989
989
990
990
988
927
874
806
722
652
594
494
411
349
317
297
282
278
275
289
297
301
312
329
337
345
356
377
396
419
427
424
414
407
399
386
370
360
353
343
343
335
331
338
366
377
373
381
405
411
411
413
422
411
391
365
359
362
353
332
324
324
334
348
360
367
381
402
427
444
453
449
442
431
410
393
381
366
362
356
364
382
405
438
472
461
437
432
427
451
465
436
429
433
433
435
423
413
389
374
370
364
365
381
396
413
432
456
471
472
478
500
503
489
471
450
421
418
421
417
417
411
410
425
438
442
457
483
500
507
514
504
499
493
483
462
456
460
455
444
429
421
430
433
442
452
465
483
509
518
531
524
518
512
503
495
486
479
477
467
455
455
471
492
499
499
511
529
550
558
551
549
552
546
526
507
502
492
477
474
478
489
507
516
525
534
558
580
598
595
596
600
594
570
547
530
520
521
520
502
505
506
519
525
521
515
522
548
580
597
608
591
571
570
552
514
502
516
515
494
483
488
494
498
508
525
530
540
554
563
558
553
549
541
517
507
470
442
424
418
417
424
430
428
417
416
438
466
479
493
505
516
508
490
475
455
419
401
380
380
378
366
368
367
378
384
398
412
414
423
427
434
431
427
418
402
386
377
361
343
341
348
343
332
357
376
382
399
419
423
424
422
418
403
381
360
366
360
350
347
350
356
362
383
396
377
388
418
433
438
438
435
433
427
416
408
392
380
368
366
363
367
370
379
383
392
411
433
448
450
447
443
431
416
404
394
396
396
400
425
442
435
404
379
371
385
422
454
475
467
462
463
456
449
429
414
400
390
383
386
403
412
413
417
418
426
423
432
456
486
507
501
490
454
428
421
413
420
428
417
406
421
423
424
426
432
450
467
478
490
488
485
483
470
454
436
426
415
409
411
416
434
446
439
448
467
487
500
507
508
499
486
479
474
465
455
444
429
422
421
423
420
423
432
440
451
464
484
509
516
516
513
512
498
482
460
443
429
426
413
410
418
425
434
442
462
488
509
524
530
522
502
481
474
468
457
441
431
424
417
409
416
435
455
472
485
490
505
513
520
520
509
502
490
476
461
449
445
439
442
453
467
463
453
460
480
488
508
517
513
495
487
478
460
445
434
431
428
420
417
418
429
438
453
467
493
505
496
504
516
518
519
515
499
483
470
459
440
434
423
412
414
425
434
445
471
490
502
505
518
534
532
518
504
491
476
461
446
441
433
439
449
460
466
478
506
519
528
531
543
549
536
532
501
463
438
428
430
437
443
434
443
442
448
463
481
506
520
521
521
517
500
488
481
477
466
456
439
427
439
468
457
442
446
462
493
519
535
542
541
526
516
528
504
461
453
452
448
443
442
446
452
462
474
482
476
488
514
528
533
541
537
525
492
477
462
451
445
432
438
453
457
463
475
484
499
519
537
546
554
548
545
539
523
505
501
510
496
491
491
486
462
450
466
484
504
526
543
548
548
525
501
506
500
493
502
503
486
480
473
480
495
514
520
530
531
553
566
574
577
585
586
572
566
563
545
526
520
514
480
474
482
489
492
510
530
553
562
569
577
568
553
548
527
507
499
483
467
463
469
480
480
482
486
479
488
515
534
543
538
530
529
525
512
491
476
464
449
444
441
449
447
456
461
472
492
508
516
531
525
514
507
500
493
486
481
473
460
456
477
486
469
472
470
478
498
516
533
544
547
538
519
502
485
472
461
454
451
443
455
466
465
461
469
488
504
521
531
524
526
519
509
499
489
469
471
471
444
435
437
457
485
500
501
507
520
545
544
536
522
514
512
502
485
467
454
432
421
429
420
430
435
452
474
507
545
578
611
631
647
668
703
719
731
738
760
792
832
855
890
944
984
990
990
989
989
988
987
985
987
987
987
987
987
988
989
990
984
906
827
761
686
618
545
486
444
416
395
392
390
376
377
387
389
376
378
387
372
362
368
381
385
387
403
422
442
457
463
467
463
466
461
438
423
405
396
393
391
386
383
386
384
391
401
431
452
460
471
492
500
497
486
465
445
416
396
386
385
394
403
411
412
408
415
433
454
490
492
487
495
498
498
494
481
436
420
417
406
408
415
424
427
433
449
468
486
504
523
537
536
531
516
491
470
454
448
440
445
446
451
465
477
482
494
519
543
553
554
543
528
526
519
506
506
498
487
476
472
476
495
509
495
492
508
542
569
572
581
583
574
557
547
536
532
531
502
479
483
487
489
479
488
504
524
545
567
585
594
594
591
585
577
568
561
556
541
533
517
511
517
541
543
536
562
579
583
603
619
634
633
627
613
596
584
572
561
548
543
552
558
552
561
573
592
618
638
643
646
646
640
633
630
625
610
593
581
571
569
558
553
558
571
578
588
606
621
634
650
649
634
615
613
614
591
565
549
540
539
546
557
557
556
555
569
573
589
598
595
587
593
588
555
558
544
510
497
491
479
459
460
472
480
478
484
504
512
518
514
511
513
514
511
491
461
443
431
432
441
422
422
447
469
460
465
486
484
481
477
469
469
467
456
443
433
418
389
367
369
388
407
413
426
433
447
464
486
494
496
492
482
475
461
444
430
414
403
400
407
410
416
419
426
442
464
487
503
507
507
509
503
491
479
465
444
431
409
402
410
418
426
436
444
457
478
493
519
527
535
532
525
503
476
452
429
415
415
412
415
419
434
443
453
462
473
489
508
528
545
544
547
550
527
495
477
458
432
432
442
441
446
455
454
460
489
524
551
557
544
536
532
528
509
492
487
468
447
443
445
449
456
472
486
504
530
550
558
555
562
567
560
535
499
494
481
460
459
453
451
457
463
472
487
499
517
532
552
553
560
556
550
552
526
507
496
490
483
477
470
470
475
477
475
483
505
553
568
561
553
539
524
525
515
504
493
487
470
459
467
478
482
497
509
513
537
564
583
586
582
584
560
525
498
493
484
471
471
466
455
453
464
478
476
497
528
556
573
576
571
550
543
526
510
497
486
478
474
478
474
459
466
488
511
524
528
541
556
560
567
583
563
519
490
475
478
473
469
466
460
472
483
490
491
497
519
540
562
565
550
536
520
515
517
505
492
481
480
472
472
481
480
490
500
501
509
519
538
552
560
562
567
547
520
519
511
475
450
441
465
483
485
487
493
514
535
554
547
543
545
536
536
535
529
512
501
496
479
461
451
454
458
475
499
522
545
551
542
543
538
537
528
522
506
496
487
478
480
480
490
498
497
498
498
513
535
531
520
523
534
543
547
541
526
516
510
477
452
447
454
470
470
474
488
502
539
553
554
559
560
556
548
531
519
506
487
474
473
472
478
486
496
493
496
517
542
564
576
587
582
567
556
535
509
504
491
478
471
480
490
499
500
507
510
523
535
553
570
581
591
618
611
583
548
511
487
475
477
501
504
507
502
504
518
544
569
587
605
607
588
563
535
540
551
541
529
523
525
517
511
522
524
524
532
538
558
573
577
582
588
576
580
586
577
535
500
464
451
449
463
473
480
483
484
498
518
539
544
544
542
525
510
499
499
498
494
479
453
443
439
437
448
467
484
494
501
514
526
536
528
518
513
505
496
484
480
479
459
452
462
466
467
472
486
510
530
546
543
541
539
528
509
491
481
450
438
429
428
433
441
455
463
471
488
508
519
529
545
543
546
540
526
502
494
481
475
456
450
453
465
468
474
467
473
492
517
527
522
513
514
505
498
474
444
417
405
421
427
429
435
436
460
491
524
562
603
623
644
658
667
697
732
729
741
781
833
873
894
927
962
991
990
990
989
989
988
987
987
987
987
987
987
987
989
989
990
934
843
774
696
620
549
463
403
371
351
348
356
364
371
384
398
404
390
382
380
379
362
348
361
388
398
408
414
422
444
458
459
462
465
462
449
427
412
403
374
353
342
345
365
382
391
402
426
448
456
470
458
455
447
431
422
398
380
379
368
358
360
372
387
395
410
423
439
457
490
496
477
461
460
463
456
448
446
438
421
408
409
416
423
431
448
473
487
477
475
481
494
504
496
480
475
465
452
439
421
416
418
428
442
455
464
478
490
514
533
527
515
524
524
510
510
499
483
484
469
445
442
442
452
460
463
471
487
504
526
536
549
551
547
537
525
511
506
508
505
494
481
472
474
464
468
491
517
533
548
563
559
552
566
565
543
530
523
532
520
508
499
493
502
508
511
526
558
581
588
595
592
593
587
576
571
565
557
557
557
540
518
516
538
552
554
566
579
604
624
635
627
626
621
610
595
584
576
565
552
538
525
531
540
552
547
550
573
595
611
614
621
624
615
608
590
568
553
548
554
526
507
514
516
514
511
524
528
532
541
543
551
548
541
527
507
497
479
462
445
433
431
440
444
437
426
434
459
484
513
515
512
509
499
493
474
443
428
420
415
397
391
396
393
397
397
405
420
433
441
442
449
456
452
441
423
404
390
386
377
359
360
358
359
372
388
412
435
440
453
464
471
461
451
434
408
395
377
372
369
379
392
382
374
390
399
407
410
432
450
469
476
460
452
448
435
422
416
406
413
400
375
384
415
423
412
401
411
431
449
459
477
475
465
454
437
426
410
392
385
375
395
413
423
433
445
461
483
498
505
500
511
504
495
489
469
437
412
399
395
392
386
393
394
406
427
449
465
490
500
503
501
494
483
474
457
444
440
437
430
435
448
456
456
458
456
474
484
498
508
505
512
511
504
489
473
462
454
444
432
410
412
430
431
434
448
472
488
505
519
522
527
521
521
518
506
492
486
480
448
429
441
474
478
467
455
447
438
450
488
516
516
507
503
497
479
460
455
445
446
443
428
430
435
455
471
478
483
502
532
540
531
519
508
484
471
465
457
454
457
458
445
428
431
445
456
480
503
516
527
526
510
498
488
480
457
442
442
436
434
429
426
439
445
456
472
488
506
522
528
520
503
501
520
523
503
486
476
464
455
443
436
428
416
427
446
474
488
509
512
500
498
500
493
481
464
450
435
420
416
418
433
446
448
457
469
481
500
511
511
511
511
517
515
519
503
468
447
425
427
426
424
431
434
449
467
470
476
494
515
538
528
502
484
468
462
466
458
452
442
437
445
445
446
455
471
500
518
526
524
513
498
489
482
468
456
443
436
438
430
433
436
444
454
464
470
480
498
513
522
530
520
517
505
485
470
457
445
435
446
447
447
453
452
459
472
483
509
527
537
524
514
513
505
494
482
469
465
457
450
435
436
445
459
463
484
507
536
550
550
546
549
524
502
494
488
483
480
478
480
483
475
472
483
472
482
501
520
545
565
564
566
569
546
518
511
502
486
473
464
452
455
470
481
499
520
535
534
532
530
529
546
541
518
492
482
468
461
461
457
455
463
467
476
474
476
482
493
501
506
507
506
501
494
485
471
448
427
404
393
400
417
431
436
441
464
480
500
501
502
497
482
468
454
440
435
428
427
425
419
414
415
414
437
446
459
478
498
514
523
518
504
484
470
451
441
436
428
416
420
428
432
415
415
430
454
469
509
504
469
457
465
468
467
466
462
441
419
416
407
408
417
432
449
457
477
499
510
514
507
496
478
464
455
436
417
404
389
388
382
376
381
389
404
429
463
497
529
559
578
592
605
623
635
655
679
697
725
749
781
830
884
928
973
991
990
990
989
989
988
988
987
988
988
988
989
990
990
955
876
803
748
673
607
566
499
441
397
365
336
322
330
343
333
324
330
345
357
346
331
310
307
316
329
347
374
398
430
443
438
440
437
416
395
372
362
364
360
357
359
369
343
318
322
351
383
405
417
420
420
424
428
414
392
379
369
356
352
346
347
356
364
368
376
390
418
437
448
454
465
469
474
462
447
425
407
393
379
362
356
364
380
397
417
432
450
468
476
469
470
479
473
449
423
413
404
395
402
416
422
434
435
430
426
440
462
487
502
492
492
491
485
478
470
464
460
450
442
434
428
423
426
433
438
443
462
488
524
520
499
501
510
505
481
470
454
436
435
439
447
448
461
478
482
496
519
545
550
542
546
542
533
513
497
490
489
497
496
492
493
503
517
520
499
500
498
516
530
547
557
562
577
581
566
543
525
510
497
497
502
512
523
535
533
534
552
571
581
596
602
602
599
585
568
557
535
513
505
501
516
536
534
534
526
542
567
590
600
592
590
585
583
572
551
539
521
509
497
482
479
480
480
490
498
517
526
541
571
584
594
590
559
509
456
431
411
405
412
419
428
429
420
419
419
434
451
466
468
477
469
456
448
438
430
422
411
383
364
358
366
374
376
384
390
415
438
440
437
436
430
420
402
385
373
356
344
334
326
326
327
344
359
380
386
394
405
404
406
419
414
401
386
379
375
363
364
360
354
353
369
397
414
429
396
379
395
412
421
409
411
418
415
404
389
381
362
348
343
333
340
349
357
369
369
381
404
427
447
451
458
452
450
442
428
421
416
413
401
371
357
366
377
377
386
407
427
443
447
450
466
463
439
418
407
406
399
387
384
376
381
391
402
416
427
448
467
472
472
476
476
474
474
465
456
460
455
426
404
382
381
387
395
418
438
453
473
487
484
485
495
493
475
450
436
428
423
428
428
422
428
445
446
444
459
464
473
497
506
494
485
479
466
447
436
427
418
406
396
396
407
418
425
435
453
474
491
504
518
519
516
513
497
468
450
435
424
413
407
391
396
417
444
456
460
479
497
509
526
505
485
471
468
478
470
442
428
405
392
408
430
433
443
455
472
503
500
490
503
495
485
490
479
448
432
433
435
420
413
414
420
423
433
447
459
478
498
509
525
512
494
485
470
454
441
434
431
433
432
425
427
423
417
423
443
462
478
498
517
501
495
490
477
462
444
435
427
421
416
414
418
421
428
436
455
475
485
500
502
502
500
497
491
477
466
460
448
440
432
424
415
407
394
386
415
456
494
518
522
520
507
488
471
459
450
448
438
425
427
427
442
450
460
468
486
508
524
525
524
523
526
521
523
499
455
435
428
426
429
436
452
459
467
466
486
514
531
535
535
542
550
535
514
496
485
473
463
455
465
463
464
470
466
460
476
502
527
551
552
531
524
509
495
477
469
455
444
446
445
447
434
438
462
479
488
486
495
502
493
495
497
486
465
447
449
445
426
409
392
393
400
410
425
438
453
465
487
500
498
495
482
463
461
455
438
426
423
419
415
417
425
428
431
426
439
458
467
472
470
465
466
468
461
450
445
424
398
388
386
397
413
422
423
427
446
471
479
479
479
483
485
483
467
444
433
421
406
399
401
407
420
434
431
425
445
473
490
494
502
496
472
468
463
450
438
411
401
400
399
400
401
397
394
414
441
471
497
516
522
519
530
532
528
535
551
557
577
596
628
677
712
748
788
845
895
931
972
991
990
989
990
990
990
989
989
989
989
990
990
991
915
836
775
720
664
622
591
560
497
403
349
321
293
279
288
296
287
295
306
320
338
352
361
374
394
402
400
406
412
417
415
406
395
389
392
388
373
358
340
341
349
359
370
389
401
405
424
427
425
426
422
417
404
389
377
365
357
353
363
372
378
388
403
414
430
441
448
454
452
443
438
425
416
416
413
403
378
372
364
370
389
403
406
412
435
481
485
473
466
465
464
450
431
418
420
414
387
385
390
401
415
427
435
448
461
476
486
501
505
502
503
489
473
470
457
442
407
389
392
422
446
465
468
475
478
493
500
506
504
500
497
491
468
455
457
453
446
442
441
442
448
457
462
476
506
526
535
537
530
524
525
522
502
491
483
474
461
458
474
494
491
486
490
499
521
538
543
553
556
566
559
539
525
524
530
525
513
505
505
512
524
540
556
570
579
588
583
585
592
593
582
572
558
553
552
551
544
538
527
529
537
551
549
554
578
596
600
602
599
582
575
573
559
559
552
529
506
490
487
498
483
488
504
516
530
546
561
565
553
547
538
513
487
469
451
440
437
440
445
455
448
443
434
442
457
476
486
476
472
474
462
447
425
408
399
384
381
391
390
381
368
375
389
400
419
430
438
434
426
418
408
398
384
370
366
351
335
328
340
343
353
380
369
375
386
393
398
406
410
405
384
376
366
361
363
360
349
335
335
338
336
348
370
400
422
446
450
441
423
425
415
393
377
361
344
323
314
325
345
374
382
377
381
401
422
455
473
448
438
437
427
404
380
366
353
342
342
343
367
385
388
391
409
427
439
449
464
461
454
455
451
426
407
391
393
387
379
371
371
369
386
404
419
442
460
466
473
482
469
460
459
432
406
402
398
402
402
400
399
406
415
421
439
459
478
492
503
498
489
474
452
439
435
422
409
401
402
413
412
410
416
444
469
488
505
509
499
491
483
478
470
461
444
440
434
424
416
417
423
424
431
435
445
457
481
494
499
510
509
503
502
491
471
448
426
407
404
405
415
418
432
445
457
474
495
501
513
507
477
469
459
447
441
436
433
425
425
427
433
444
450
438
431
446
484
503
526
536
520
504
461
436
420
395
377
377
395
426
435
417
418
428
454
479
507
519
526
521
507
492
470
448
430
420
413
399
407
401
401
418
439
451
471
485
501
506
502
497
488
483
476
463
455
437
421
403
389
395
421
429
415
425
457
482
503
515
522
519
508
500
480
461
451
434
418
409
413
411
418
423
435
445
463
482
514
536
532
521
504
494
476
459
454
443
435
435
448
449
448
443
440
459
480
497
507
510
511
510
507
502
498
493
488
478
458
448
440
449
458
471
479
489
499
512
534
542
543
538
534
527
519
516
516
502
490
483
468
454
459
452
457
459
469
487
520
552
550
523
473
453
446
433
426
424
417
411
409
407
405
411
423
435
458
477
496
505
499
494
481
459
440
422
424
425
414
411
414
426
429
432
439
446
447
453
467
473
480
479
481
472
458
446
440
416
408
416
415
412
418
422
427
434
448
455
472
485
499
498
477
453
431
420
418
415
412
