588
598
609
610
607
604
605
606
597
591
586
587
582
578
570
565
567
565
567
571
572
569
567
562
560
562
558
553
556
563
559
549
546
539
528
523
521
510
512
521
519
516
516
513
506
498
486
484
488
488
489
482
472
461
458
458
464
471
472
473
468
461
454
452
449
442
441
440
437
431
424
424
425
422
422
420
421
414
404
407
415
412
406
396
387
386
393
392
385
377
380
389
389
392
392
386
383
381
384
385
386
383
388
389
389
392
393
393
390
387
383
380
379
380
379
384
389
391
395
400
403
410
413
409
402
395
396
399
406
407
404
400
398
402
393
392
395
395
398
395
401
400
404
411
422
438
440
437
437
443
444
443
441
440
446
447
446
442
440
435
426
430
435
436
439
444
450
450
445
445
449
451
454
454
450
443
438
437
446
452
458
459
455
451
448
448
445
449
447
447
446
448
461
467
464
464
465
468
468
464
465
469
469
462
463
459
448
444
450
457
456
458
463
473
479
480
474
463
454
447
440
442
446
455
461
469
476
478
476
479
494
500
496
490
484
477
475
470
464
462
469
482
492
487
479
478
477
477
472
464
465
471
471
463
454
446
448
461
481
485
479
463
446
435
438
439
442
445
450
452
452
461
468
468
472
470
469
475
479
477
472
472
476
479
470
459
462
468
471
466
464
472
483
494
501
505
502
498
483
473
475
472
473
482
484
478
464
459
456
456
462
463
460
460
463
468
470
474
480
478
472
469
469
460
448
438
431
436
437
443
453
457
469
481
490
490
488
485
484
490
497
506
508
497
483
482
488
492
496
483
462
460
475
481
478
471
471
473
472
470
463
457
459
459
463
465
471
478
479
481
486
495
500
503
501
497
492
481
465
465
464
464
468
466
465
473
482
477
472
466
461
462
469
466
466
470
468
470
480
492
500
510
523
537
541
536
527
518
513
507
502
510
519
533
541
551
556
553
548
540
538
540
543
549
554
546
536
533
524
516
511
507
505
489
474
473
473
473
478
475
475
475
474
470
464
455
460
463
468
466
465
464
460
462
465
455
445
441
447
448
443
434
436
441
432
421
414
422
436
441
444
455
454
452
457
463
468
464
451
443
437
428
429
430
430
434
442
452
460
474
479
476
472
465
458
446
440
440
446
442
439
429
422
429
433
433
438
442
434
436
442
448
445
447
451
450
443
440
443
450
455
463
474
479
483
484
475
465
460
457
456
461
462
464
466
457
445
432
428
433
447
458
456
449
436
427
434
445
460
477
486
504
519
535
545
553
573
596
626
648
664
689
722
760
793
819
857
889
907
918
926
938
938
921
902
900
913
912
887
854
809
757
678
584
498
417
334
246
174
110
72
60
45
28
19
24
40
55
67
78
97
122
144
165
198
236
262
289
314
334
342
343
354
365
372
381
398
408
413
423
432
445
456
462
463
469
480
477
468
472
476
477
477
481
486
493
499
506
502
502
497
497
495
494
503
511
515
523
525
520
502
479
467
467
480
487
492
502
513
507
502
501
500
500
502
517
512
513
507
499
491
485
488
492
498
496
485
481
484
493
503
507
512
513
499
490
495
506
516
525
537
539
533
535
531
532
528
525
521
517
515
512
518
533
543
552
558
550
546
548
540
525
517
521
530
528
521
510
509
522
526
523
516
518
523
528
534
534
533
533
530
532
534
537
534
535
535
545
553
559
559
558
552
550
552
549
543
538
541
543
544
541
549
548
545
550
555
551
540
534
532
528
542
554
551
556
562
557
559
566
575
575
572
574
572
579
577
574
567
561
551
544
547
544
543
542
542
545
547
547
539
535
532
527
539
560
576
579
581
574
562
558
553
543
532
516
509
509
516
517
510
508
510
511
512
518
522
522
511
501
498
494
498
488
476
480
486
483
480
477
476
473
469
461
462
461
456
458
464
459
453
452
453
444
431
424
427
435
439
439
427
420
416
411
409
403
395
386
380
384
391
388
381
369
355
349
360
363
355
352
353
354
346
346
346
350
358
362
367
373
370
363
360
357
357
360
367
370
375
376
379
382
383
377
369
368
365
362
374
371
372
381
389
397
389
381
385
388
397
397
390
384
381
375
372
379
382
376
373
372
371
374
384
391
390
387
391
394
402
412
413
409
402
386
388
408
432
447
453
456
449
445
440
439
432
428
429
430
427
424
419
415
413
415
414
412
415
425
432
432
428
421
414
411
413
421
433
438
442
451
454
453
451
444
441
438
441
444
448
459
469
471
466
466
465
463
460
454
448
456
458
450
451
454
457
465
460
442
432
436
442
447
448
446
437
430
431
423
431
441
451
462
469
471
465
454
447
444
439
437
445
447
458
456
447
443
442
447
447
430
424
430
439
445
444
442
443
444
454
460
460
458
470
481
479
473
461
447
454
457
455
452
441
435
444
447
453
457
458
459
453
445
452
458
455
447
440
449
454
457
465
461
450
446
448
456
459
455
455
459
459
460
454
452
452
450
447
450
459
470
476
479
475
460
449
452
460
468
474
474
473
467
461
460
462
465
466
467
477
480
462
446
446
447
447
447
456
461
465
465
453
439
431
430
430
436
438
443
449
457
459
471
477
476
483
488
491
486
486
490
486
477
475
472
473
478
478
479
475
468
467
475
492
499
493
484
480
475
479
486
482
483
483
491
496
500
497
494
492
488
491
499
499
498
505
516
522
515
517
525
528
524
519
515
514
507
502
499
497
498
494
491
490
486
483
475
465
459
450
440
436
436
443
453
462
465
462
463
462
457
449
455
456
461
470
466
463
462
469
472
475
475
472
471
472
469
457
453
453
449
443
437
437
437
438
443
444
448
445
441
433
428
438
454
461
454
447
438
434
437
448
457
461
463
468
472
476
465
455
439
430
427
431
438
454
465
464
458
449
437
425
421
430
445
450
451
448
443
432
423
429
442
443
445
442
433
434
436
433
441
467
478
480
487
495
491
489
482
488
500
497
484
477
471
457
456
451
453
459
471
485
496
500
504
515
530
530
537
559
582
603
621
636
660
695
728
753
783
811
835
868
888
890
875
856
844
842
837
830
810
802
781
744
680
600
519
433
347
260
175
108
61
36
34
45
52
61
68
87
98
106
127
140
161
187
219
238
241
249
278
315
345
365
376
387
391
390
399
417
432
442
448
453
452
450
449
451
451
453
451
452
460
465
480
484
486
496
499
491
486
487
489
498
507
512
519
532
540
544
547
550
549
545
543
553
552
551
546
540
533
537
543
547
542
536
531
527
529
536
541
542
537
540
538
528
525
525
532
539
541
539
530
524
519
520
525
529
527
528
535
538
535
530
527
531
542
540
534
540
551
550
542
542
542
535
540
557
553
543
538
538
537
540
539
536
543
546
546
543
542
541
542
549
554
564
574
579
582
577
574
578
584
584
576
568
560
556
558
562
560
561
569
572
572
569
561
554
549
547
548
550
557
560
560
556
554
555
560
571
569
573
587
591
601
606
607
598
589
583
582
590
587
590
594
589
583
587
593
588
579
572
571
570
571
580
584
588
592
593
589
585
573
567
561
566
569
568
572
574
580
578
578
584
581
578
587
588
578
568
558
538
527
531
537
541
545
551
550
541
543
549
557
558
551
536
526
522
517
505
497
490
487
484
488
481
474
463
450
450
451
445
433
433
434
436
442
445
445
446
450
458
459
455
454
450
444
434
429
427
425
414
403
397
395
398
394
386
378
377
380
385
382
384
385
384
387
387
388
390
393
395
398
396
390
375
385
392
390
392
400
404
405
404
399
388
379
380
392
410
402
380
376
382
386
383
387
395
390
384
374
380
394
409
410
401
389
376
377
378
380
393
416
437
448
448
449
450
451
446
439
432
429
428
434
449
451
446
443
445
452
450
449
454
457
453
447
457
453
443
445
460
465
463
456
443
439
442
455
463
465
470
466
471
475
473
473
478
476
469
465
461
461
454
450
453
463
470
474
474
456
446
445
442
446
456
470
474
472
469
468
471
472
481
506
517
516
500
494
487
462
442
440
452
461
455
455
458
468
475
466
459
467
479
487
512
525
526
521
508
493
485
492
495
499
500
505
514
508
502
505
501
490
474
462
461
463
463
473
490
501
493
465
452
449
451
448
459
475
476
474
458
449
459
481
502
510
500
498
496
482
470
460
465
481
478
469
459
464
473
473
471
470
478
482
474
459
447
447
456
471
483
485
487
479
468
471
482
497
497
484
480
482
493
504
515
520
518
507
504
501
495
500
488
484
485
483
472
467
467
458
460
475
494
500
502
502
495
485
485
483
477
479
471
464
469
473
464
460
470
473
477
482
482
488
495
498
509
515
521
531
537
541
549
555
550
540
537
526
517
521
547
573
579
570
560
553
549
543
542
541
540
555
565
552
534
530
524
516
516
515
513
508
508
512
512
489
480
470
457
451
448
444
441
459
480
492
504
510
501
488
485
490
493
499
503
496
493
493
483
481
482
488
476
462
456
458
469
480
489
493
493
494
491
486
468
452
458
472
482
477
469
473
477
484
484
467
451
447
447
456
468
475
484
492
492
489
484
480
483
482
476
472
474
473
464
457
456
465
477
473
477
471
465
466
467
470
472
464
460
475
489
500
503
503
495
484
482
477
478
483
481
496
517
517
518
513
500
502
488
480
484
481
473
466
458
462
459
453
446
443
438
437
440
463
509
549
568
585
612
643
673
713
754
785
812
846
882
903
916
911
917
939
948
952
952
945
933
911
886
845
795
731
647
568
495
424
357
284
217
172
151
144
156
157
143
140
155
163
165
167
178
204
223
247
274
282
274
288
301
319
328
338
358
371
383
401
403
396
407
431
459
473
485
498
499
494
504
512
517
518
512
514
508
504
520
540
553
551
550
549
532
519
508
503
509
517
514
506
518
541
561
573
568
557
543
536
545
554
552
536
527
529
519
511
523
546
560
563
554
551
556
555
547
543
552
555
562
573
568
566
562
551
547
545
550
560
557
554
540
527
514
500
493
492
495
497
507
513
501
495
501
527
544
546
559
571
586
592
592
607
623
638
646
652
661
656
632
594
579
572
549
534
512
487
475
479
480
513
542
545
539
538
550
565
578
574
559
557
554
542
533
542
545
551
570
585
604
611
600
576
545
514
504
491
475
470
474
492
533
565
578
588
601
619
627
622
610
601
600
599
598
609
633
642
642
640
611
588
577
578
568
556
548
549
572
594
602
601
600
586
574
568
571
575
577
574
585
600
614
622
622
611
599
602
596
567
547
536
531
524
511
506
500
500
506
509
521
531
537
551
551
542
520
502
499
503
501
507
497
473
459
439
428
422
421
427
446
464
467
475
472
456
441
436
426
389
365
373
387
398
409
446
487
502
489
480
467
430
395
373
369
372
389
412
422
439
458
451
438
431
420
414
409
407
390
390
393
388
395
404
410
413
416
419
414
406
388
380
357
347
351
362
365
367
375
386
366
350
354
355
369
385
399
410
408
399
379
360
350
353
367
398
431
438
439
436
426
420
406
403
392
383
396
400
411
409
398
392
404
412
429
447
447
444
453
460
458
445
447
462
476
471
445
418
411
407
412
430
443
442
439
424
397
379
374
376
356
356
363
383
415
440
463
474
468
462
469
46
1
639
666
704
739
770
801
825
848
870
881
889
895
893
902
902
901
904
905
904
895
870
827
783
702
601
504
9
666
704
739
770
801
825
848
870
881
889
895
893
902
902
901
904
905
904
895
870
827
783
702
601
504
415
327
247
186
133
107
92
72
61
57
79
111
135
152
171
185
204
224
241
263
285
303
326
345
358
375
384
392
414
424
428
427
434
455
471
481
486
489
503
512
500
485
477
493
494
495
490
494
501
499
501
510
524
522
523
522
519
525
518
520
527
533
531
527
527
535
540
542
540
546
559
562
567
556
547
536
525
518
517
539
534
531
539
537
534
536
542
549
552
553
544
538
534
533
535
527
528
543
552
559
566
562
565
571
562
553
556
558
549
540
541
552
547
539
533
526
529
539
554
559
554
544
531
533
541
549
544
546
556
561
559
562
576
584
579
581
572
548
539
539
533
546
554
549
557
564
571
570
570
574
566
568
571
577
581
582
576
568
575
577
564
566
570
576
574
566
565
585
600
602
603
608
613
624
615
595
598
588
582
580
588
595
598
587
580
583
583
587
589
585
583
587
597
597
597
595
606
611
605
601
590
593
585
586
582
583
589
583
575
581
583
585
575
564
571
575
575
575
578
580
572
563
556
550
534
532
537
539
549
555
560
553
539
533
531
516
514
510
501
497
496
496
500
504
509
501
487
481
486
491
492
487
487
486
474
464
459
451
446
444
446
453
460
458
456
462
462
447
436
418
404
408
411
418
426
433
432
432
437
436
426
417
418
424
424
419
418
423
418
406
395
396
405
409
412
412
410
393
384
384
381
385
390
396
406
402
393
391
385
390
404
408
400
390
387
394
400
405
408
406
405
406
400
396
398
404
412
414
416
418
420
417
425
433
428
429
434
437
437
447
447
436
427
427
416
417
420
418
420
434
428
424
424
419
418
424
430
442
450
455
463
470
471
480
470
457
457
456
456
459
460
462
464
469
477
477
479
482
477
470
470
464
461
465
460
461
469
472
473
476
482
478
478
476
466
460
459
470
479
480
480
502
502
497
492
497
511
504
493
495
490
489
480
467
462
462
462
474
489
487
480
479
469
475
473
475
486
487
484
484
495
498
500
498
491
490
488
490
491
497
500
500
490
485
480
472
471
472
481
490
492
490
488
479
465
465
476
476
477
478
481
483
486
484
482
474
483
486
482
477
486
491
501
504
510
502
489
464
449
444
447
452
457
462
475
479
480
480
475
468
470
468
472
480
470
472
478
485
491
491
489
493
497
496
492
485
475
474
478
485
484
476
462
466
472
474
478
479
475
478
483
486
480
483
480
476
473
484
483
482
479
477
475
472
480
480
477
477
482
491
494
497
506
505
498
494
498
490
481
477
483
488
482
465
463
469
475
469
467
469
481
486
488
487
488
487
488
481
468
468
478
492
495
490
484
480
488
498
494
487
486
492
493
495
498
497
489
489
488
500
515
517
515
512
505
490
484
482
477
481
477
476
478
483
485
487
488
491
488
481
481
485
489
488
493
497
496
493
484
488
499
500
503
512
513
512
515
516
515
512
516
524
522
513
495
500
516
531
546
544
533
533
531
530
528
528
537
540
541
541
532
529
517
507
506
512
511
515
522
524
516
509
505
496
489
478
472
460
446
438
452
466
471
471
474
473
467
472
470
474
470
464
467
469
466
462
462
463
462
465
464
457
458
460
459
464
463
463
474
474
474
474
473
464
460
468
476
473
475
476
472
474
470
462
458
462
463
455
449
454
454
467
478
482
475
461
454
461
471
468
461
463
474
477
470
471
466
468
471
463
455
457
465
475
480
468
455
453
457
464
468
469
471
471
466
459
463
467
466
468
473
478
481
491
495
495
493
486
479
475
479
486
489
479
479
481
484
491
506
514
524
549
577
604
618
634
652
671
700
734
759
779
805
829
835
832
831
823
817
812
807
809
806
804
802
784
739
687
623
551
461
367
283
210
144
93
70
67
59
55
56
67
91
115
128
149
164
186
214
238
256
272
292
315
336
353
359
370
391
409
423
435
441
444
450
461
468
473
478
480
474
481
488
495
502
498
496
496
512
516
509
502
499
505
511
509
507
517
524
533
542
544
531
516
516
519
525
527
532
532
534
537
537
538
538
538
526
528
538
531
521
523
524
523
527
532
538
540
540
545
545
543
531
532
538
534
533
540
543
552
550
548
548
542
533
522
521
528
534
537
547
558
566
571
557
535
528
541
552
558
558
552
552
546
539
544
538
527
526
536
546
553
561
566
569
565
553
550
550
544
541
535
540
550
558
560
561
566
571
570
565
565
564
568
565
557
556
557
551
548
550
558
565
574
578
579
580
576
571
572
575
581
590
587
579
576
579
585
584
585
584
589
594
603
603
597
591
590
591
585
591
599
601
591
585
582
590
600
604
605
600
594
588
581
573
567
575
578
580
586
584
585
586
584
577
566
556
550
540
531
532
537
532
527
526
536
545
552
563
572
561
550
533
508
497
493
498
507
508
506
495
492
498
488
476
482
489
489
488
477
462
455
454
461
465
463
463
455
448
450
451
444
447
452
447
441
448
453
458
450
438
432
422
408
402
399
402
409
412
414
403
399
396
388
384
384
388
393
396
391
392
396
395
393
384
377
389
391
375
368
374
381
384
385
375
367
368
377
385
384
392
411
416
421
414
401
390
399
405
398
393
380
374
376
379
391
403
413
416
420
424
417
411
407
397
395
399
398
401
409
405
398
406
420
432
437
436
432
426
424
420
420
427
434
435
428
431
437
451
462
458
451
456
457
437
430
437
446
449
447
448
443
439
441
442
445
446
437
438
444
445
449
451
455
467
483
495
495
497
489
477
467
467
477
481
477
462
464
465
461
456
454
456
462
465
467
470
479
478
472
473
479
489
487
479
470
467
467
467
465
469
474
476
478
469
470
473
470
471
474
482
482
480
486
491
483
478
476
479
477
472
475
485
493
490
476
470
472
477
475
471
467
464
472
478
479
483
488
490
488
486
479
475
476
470
462
449
441
446
458
468
475
480
474
469
464
462
451
458
462
464
471
475
484
484
486
480
472
464
465
467
462
465
474
482
490
487
487
484
478
481
474
467
463
470
459
454
460
464
474
481
483
480
468
460
457
458
463
465
472
479
483
484
488
496
493
484
471
467
473
472
468
476
480
479
473
467
464
468
479
476
473
473
466
471
478
486
484
486
479
479
484
487
499
502
498
484
478
477
470
456
456
471
482
482
484
488
489
489
491
487
482
481
488
484
470
462
468
463
470
471
465
464
473
477
482
485
485
492
492
495
505
508
509
508
506
509
510
509
505
511
521
523
521
512
506
506
515
521
523
524
530
540
536
520
512
513
522
538
544
547
548
541
523
509
503
501
498
495
498
510
505
500
500
499
485
466
458
453
454
459
458
463
464
468
471
467
469
475
475
477
484
485
479
477
473
467
461
458
453
460
464
469
472
470
467
467
458
447
454
463
471
467
461
456
460
459
453
457
460
451
448
452
457
463
460
462
466
477
492
490
481
473
472
467
460
459
448
447
440
435
447
457
464
464
472
480
480
473
471
470
466
467
469
464
463
464
471
471
469
466
476
481
481
481
479
482
482
479
474
468
466
465
469
478
486
493
498
499
509
515
506
480
471
477
466
462
470
489
512
517
526
544
571
593
616
632
658
688
721
754
776
802
831
840
843
842
844
851
856
856
863
883
887
870
841
801
756
686
611
551
488
419
341
269
207
139
110
105
105
95
86
92
109
136
161
183
202
208
228
255
280
298
321
336
347
366
380
398
416
415
416
416
425
441
459
470
482
490
498
499
491
482
480
475
469
469
468
473
477
481
489
497
499
501
497
500
496
496
501
506
508
504
502
508
514
524
528
529
528
531
534
535
529
527
534
546
547
544
544
547
540
530
526
517
519
527
525
522
528
536
544
546
545
541
540
531
524
526
532
538
540
535
535
532
529
530
539
544
545
549
545
543
548
548
551
549
550
560
566
564
559
556
568
567
554
544
534
529
529
532
528
528
539
542
545
551
555
554
544
546
548
546
549
547
547
552
551
554
560
550
545
549
553
555
553
552
557
566
574
585
591
595
589
572
556
556
570
576
577
587
589
585
588
589
596
596
591
598
590
579
577
569
570
580
589
603
608
606
599
595
589
589
590
593
594
585
580
582
585
581
579
577
577
582
576
580
581
575
573
581
574
571
573
575
572
563
562
564
561
556
550
544
549
552
553
541
540
547
549
535
520
522
533
533
522
519
527
528
525
519
510
500
499
490
479
475
474
470
470
471
470
464
462
462
461
451
447
440
442
447
445
435
427
428
423
425
428
432
438
435
429
427
423
426
425
420
419
410
410
410
392
382
389
404
418
419
411
407
400
389
389
399
407
406
393
383
383
375
368
377
380
373
376
381
384
386
385
374
365
363
364
372
376
381
385
383
387
398
406
415
416
423
415
402
396
397
396
394
401
407
412
409
401
391
391
394
399
397
393
395
389
390
398
406
408
415
424
431
440
428
420
426
436
442
440
442
445
439
435
436
424
418
418
433
446
454
448
447
456
454
448
442
439
438
438
435
431
437
447
456
464
462
462
471
472
471
471
478
477
475
474
468
453
452
452
460
472
478
478
479
476
468
462
470
477
483
486
486
482
482
482
483
483
474
468
468
472
478
486
494
494
484
483
486
482
487
495
496
493
489
486
481
480
489
491
491
489
482
474
479
486
480
476
485
489
478
475
480
483
483
478
475
472
481
480
478
472
468
477
480
480
481
488
492
495
490
484
488
503
513
515
503
490
487
484
486
491
487
471
470
474
475
476
470
466
462
467
474
481
483
478
480
484
486
487
484
484
481
480
481
483
489
490
487
480
481
484
481
467
456
468
470
474
478
482
473
470
465
460
464
475
488
493
496
500
500
501
499
487
485
490
494
493
496
503
507
507
495
486
486
486
473
471
470
473
480
469
464
468
476
480
487
494
492
490
493
495
499
494
491
494
495
496
499
494
488
481
481
489
490
487
486
488
491
495
496
497
498
504
509
506
505
506
507
499
497
486
490
489
487
495
497
498
497
489
487
483
478
481
485
480
477
484
492
496
491
484
488
496
503
512
520
528
533
530
521
527
526
531
530
528
531
527
527
523
530
529
533
537
544
539
545
552
556
555
551
547
544
539
538
533
528
527
522
518
511
508
504
502
492
481
475
477
480
484
481
477
471
460
462
457
452
452
452
460
464
469
471
469
465
460
466
472
476
474
475
474
469
470
476
475
471
473
472
472
466
462
458
455
459
463
468
457
452
453
459
463
459
463
466
463
459
458
459
446
447
459
467
467
466
461
462
464
471
472
475
479
483
482
483
483
474
463
455
454
464
476
470
465
467
472
466
461
462
463
467
476
487
493
488
490
488
481
480
470
457
464
475
480
488
487
479
468
454
455
451
446
441
451
466
474
486
497
501
505
515
522
542
555
566
596
620
633
658
683
701
728
756
786
816
847
863
876
890
900
897
892
885
887
905
904
891
860
819
779
712
628
548
468
401
330
256
193
150
130
119
107
96
93
108
129
145
159
176
191
215
249
271
283
307
332
345
355
368
375
382
388
394
401
414
416
425
443
446
451
458
470
481
491
493
497
505
502
506
512
509
499
490
495
502
503
499
494
499
502
503
510
515
519
517
518
523
523
526
532
527
520
520
527
525
516
509
505
510
507
502
500
511
531
534
537
536
541
549
546
539
537
536
535
533
543
548
538
529
525
519
522
523
527
533
531
527
535
550
559
549
546
556
551
545
536
520
514
514
524
533
542
551
558
556
556
555
547
542
542
539
534
533
542
548
548
544
549
554
555
547
543
549
556
561
567
564
565
566
551
549
560
571
580
564
553
551
550
556
560
553
556
559
564
570
580
592
604
606
598
591
588
587
587
586
583
579
578
584
590
595
599
599
592
585
572
571
581
592
603
611
612
597
588
581
586
585
587
591
599
599
588
584
582
585
590
591
586
582
581
584
585
579
577
572
574
575
573
565
557
555
562
571
583
582
585
573
562
546
540
533
535
535
539
535
517
501
498
497
499
496
496
505
503
499
500
494
496
509
509
498
496
496
498
496
489
467
454
458
456
444
430
427
433
440
444
445
442
442
445
435
423
419
419
416
405
403
407
407
406
416
416
412
405
403
406
402
402
404
409
406
403
406
407
405
403
396
390
399
397
394
388
372
361
357
358
368
377
384
391
396
400
401
408
406
401
393
395
393
389
384
386
392
387
385
392
398
404
407
404
391
383
378
376
381
385
384
388
400
406
401
404
412
409
411
412
416
418
422
424
425
427
428
430
437
445
442
433
427
437
448
452
449
450
445
431
423
434
444
446
446
442
432
432
442
448
451
455
459
452
446
443
446
454
455
452
455
460
463
465
468
472
471
475
479
472
459
466
475
481
485
482
472
470
473
474
467
459
455
460
471
479
481
474
473
475
474
475
479
487
498
501
499
504
509
513
501
487
483
475
469
460
464
466
457
451
451
455
459
472
482
485
486
483
485
493
488
488
492
492
489
487
482
482
480
485
493
496
484
473
465
455
457
466
477
485
480
477
468
470
471
465
464
472
485
502
501
499
493
491
485
473
475
481
481
477
472
468
469
475
485
488
481
483
482
474
466
470
476
485
485
478
476
476
478
479
477
469
469
476
480
482
487
492
492
490
487
486
486
479
472
472
472
473
485
496
501
504
501
502
499
497
502
495
479
475
477
479
484
482
484
492
507
514
514
503
484
470
465
463
459
462
465
469
473
466
466
471
473
471
478
473
470
478
483
481
485
490
488
481
481
485
483
490
489
487
492
492
491
493
487
487
483
480
477
479
472
476
484
493
492
490
485
487
491
489
486
493
499
504
505
500
494
497
504
510
511
505
502
507
514
503
497
484
482
480
481
482
486
492
484
475
477
479
477
478
480
488
504
506
492
495
514
528
532
539
534
534
532
525
525
530
535
531
535
537
539
539
543
549
549
538
536
538
539
543
542
540
538
535
524
526
521
514
508
507
496
484
481
483
485
481
473
466
460
461
468
462
462
459
453
454
460
468
471
468
472
476
475
473
468
476
487
482
478
483
481
480
478
466
458
453
455
459
466
466
465
465
462
458
460
465
459
457
454
462
465
468
470
478
480
467
467
459
459
457
458
455
459
465
467
471
479
481
465
455
457
472
488
477
455
448
454
469
482
481
480
476
472
471
468
468
468
469
474
475
477
478
480
479
482
480
476
481
481
481
490
501
488
475
468
468
467
467
458
456
449
442
458
469
472
481
484
486
492
501
515
530
548
572
600
624
662
691
718
734
752
784
821
845
853
861
855
867
885
895
883
870
858
862
872
874
856
828
779
702
617
532
435
349
267
201
147
116
92
72
61
59
71
95
113
129
147
158
173
192
212
225
251
282
305
316
332
356
376
389
395
395
408
423
427
432
441
456
464
462
470
475
485
492
504
514
526
524
521
522
517
513
512
517
514
508
512
514
515
504
501
512
522
521
521
522
530
549
556
557
543
542
546
537
526
518
523
533
524
513
513
510
508
510
516
517
518
513
504
519
528
529
530
533
545
553
550
539
527
518
522
532
543
550
547
537
526
531
543
549
544
544
544
542
540
545
553
552
551
551
549
536
538
543
541
550
559
554
551
543
531
530
538
550
563
561
562
573
575
562
557
558
556
560
568
570
563
565
561
560
561
565
562
569
570
560
553
561
572
577
575
570
571
568
573
580
579
572
572
579
585
585
588
581
580
577
577
571
575
588
592
594
594
600
599
584
576
581
590
589
593
600
600
597
588
589
600
611
612
618
624
621
614
597
586
581
571
579
582
574
565
567
570
572
574
573
565
570
576
564
568
566
558
556
549
538
532
533
535
537
535
537
544
560
561
548
539
530
529
532
528
524
518
509
489
475
476
479
480
482
488
491
487
479
473
473
478
472
467
470
480
472
461
458
460
458
452
441
437
445
450
456
459
462
461
440
426
419
417
405
394
377
367
367
382
389
398
395
389
386
387
395
398
396
393
399
399
388
384
390
390
389
398
405
405
397
391
393
375
362
368
375
373
375
380
385
390
391
390
396
405
405
401
393
386
382
383
388
392
400
407
416
420
419
419
423
428
434
434
425
425
424
420
424
432
435
436
441
440
443
440
431
424
420
415
427
437
437
438
437
442
442
435
432
434
432
432
435
449
458
459
460
463
460
465
472
478
474
471
464
458
455
450
448
446
452
454
465
472
466
455
452
454
459
461
458
456
471
477
480
475
472
481
487
487
480
483
494
494
490
485
487
501
501
492
490
489
484
472
464
462
465
467
471
478
483
484
486
494
498
492
488
475
470
476
481
484
491
497
500
499
496
486
474
471
474
473
471
465
466
472
473
474
486
488
480
485
487
478
479
479
474
477
476
475
471
469
463
463
467
481
479
475
479
476
474
477
484
485
493
500
508
510
512
510
510
507
501
500
491
481
479
473
468
462
469
476
473
465
462
463
472
478
475
473
465
467
469
476
487
499
499
493
491
488
479
468
466
467
476
478
472
473
475
485
487
483
487
479
474
480
483
477
477
485
490
488
485
487
497
505
517
516
508
495
491
488
494
491
487
483
484
484
480
473
465
462
467
475
478
483
486
494
498
497
501
508
510
509
502
500
491
487
487
478
472
468
471
472
470
485
499
506
510
512
507
505
495
491
481
481
481
473
474
478
478
479
485
492
493
494
507
515
512
509
501
497
491
491
499
508
508
497
496
496
490
478
483
493
496
487
485
489
497
507
504
506
508
504
497
503
505
517
523
535
537
533
525
528
544
555
548
547
554
551
545
541
542
533
526
523
528
536
535
528
517
509
513
510
509
508
506
506
502
506
505
497
486
477
473
477
483
491
490
494
497
496
484
470
463
465
472
471
468
461
455
463
472
482
489
488
485
475
464
457
461
463
462
464
473
482
480
479
480
481
484
478
473
474
478
474
470
468
469
463
455
456
457
459
466
473
480
477
472
471
471
468
474
483
492
489
480
480
477
468
464
459
459
463
467
466
469
475
481
475
471
469
478
486
491
490
487
482
478
478
478
483
481
485
483
482
482
481
483
478
463
460
455
453
449
455
468
480
482
476
478
482
486
492
494
499
514
525
535
549
559
561
570
586
603
629
655
686
718
748
781
811
838
867
876
869
868
877
875
861
847
837
839
842
839
825
796
738
655
579
509
427
336
259
191
135
95
86
81
85
88
91
99
127
148
160
175
197
213
232
249
265
284
313
327
348
367
378
383
391
402
412
423
435
448
459
469
475
484
493
498
496
496
501
509
516
521
520
523
523
521
511
510
512
507
510
514
515
510
513
517
525
527
521
521
524
531
537
542
545
539
536
536
540
543
534
531
524
522
523
526
538
544
555
561
556
548
550
551
553
544
536
540
545
550
548
543
543
546
546
545
550
545
541
539
532
530
537
546
549
549
555
559
566
571
570
571
563
550
546
533
531
530
534
540
538
533
541
548
541
539
545
554
561
565
565
559
560
558
559
563
567
573
578
590
570
554
549
548
551
564
572
577
571
563
564
577
582
586
592
588
585
584
576
575
571
575
571
573
577
582
582
584
584
585
588
587
588
588
589
588
594
590
591
594
602
609
613
616
614
617
618
611
598
589
592
603
615
615
614
605
600
601
596
585
582
582
587
585
575
567
573
566
559
556
557
563
566
564
554
551
555
562
562
565
564
562
558
545
539
536
526
524
526
520
511
508
506
506
513
517
521
523
519
518
525
519
508
499
495
495
479
465
475
478
477
479
471
474
479
472
451
435
431
432
430
429
434
436
434
429
426
423
425
425
424
420
415
413
419
421
418
413
411
407
406
408
401
401
408
408
405
409
407
407
397
394
403
411
414
404
388
381
387
395
393
381
379
381
385
386
392
396
401
392
383
386
392
395
399
390
392
406
417
419
414
418
418
407
411
409
403
400
397
406
409
408
411
414
418
423
429
422
421
426
429
425
422
423
429
432
433
435
442
440
438
440
434
433
441
454
458
454
452
448
442
443
448
455
463
471
460
449
452
453
452
453
459
457
454
455
464
469
468
475
484
479
471
467
464
469
476
479
481
483
493
496
478
469
467
475
477
477
469
462
465
474
477
491
499
497
499
497
475
464
460
458
462
470
476
477
477
477
480
486
492
495
498
499
500
488
484
482
486
480
484
496
494
488
478
482
483
492
504
511
517
520
517
502
495
487
478
474
476
485
491
492
487
488
492
490
482
477
473
477
477
482
487
492
488
483
479
471
475
495
495
496
488
487
489
488
499
498
498
489
477
470
471
478
487
497
501
502
491
479
471
475
481
485
489
492
489
485
477
470
469
475
484
489
489
482
470
473
488
492
493
495
499
499
497
492
486
470
459
466
472
475
477
478
485
494
487
489
494
497
499
503
507
508
504
492
483
490
497
499
494
491
490
490
488
488
500
502
492
485
483
490
494
483
477
481
475
474
476
483
494
500
491
489
489
486
488
489
490
484
489
490
495
487
484
484
485
490
499
511
510
507
500
486
487
496
502
508
506
492
485
482
485
488
486
487
486
477
475
475
483
487
478
481
484
490
496
501
509
512
512
510
506
500
501
509
516
515
514
508
501
494
483
480
482
477
471
469
478
490
496
499
505
505
500
510
524
523
516
505
503
504
506
508
505
499
495
490
483
485
487
492
494
501
504
500
491
482
489
494
498
504
504
498
499
509
516
520
528
529
535
537
530
529
538
537
538
542
548
550
553
555
552
553
550
544
538
534
536
531
524
524
523
524
526
520
520
517
507
499
497
504
499
499
496
489
483
488
494
496
486
477
478
471
460
459
473
482
486
485
474
467
459
454
455
457
463
468
475
479
476
471
470
466
459
461
466
474
475
474
465
464
469
483
487
481
469
462
467
472
467
468
466
462
464
456
453
457
465
476
485
476
471
471
465
457
458
461
465
474
467
470
480
484
485
483
484
484
488
495
502
500
492
492
493
486
475
462
463
464
462
469
486
489
484
487
483
478
477
475
471
469
470
471
475
483
487
476
464
457
452
455
459
461
467
473
478
486
495
506
530
551
553
549
554
585
616
641
656
677
709
741
762
787
813
834
846
854
861
876
886
883
882
887
901
910
908
896
872
827
744
643
564
494
428
357
294
250
212
176
135
102
82
80
94
110
123
137
161
183
204
229
258
273
292
321
350
372
382
389
404
412
419
422
427
420
413
416
429
447
460
471
480
488
488
488
486
484
483
483
489
501
508
504
501
500
501
500
509
511
515
516
512
512
512
513
522
531
532
529
528
534
544
541
530
513
504
506
510
510
510
520
522
527
534
535
538
540
536
532
529
534
539
539
526
513
516
521
517
518
524
530
528
527
531
531
528
531
521
522
533
540
542
542
547
545
548
544
540
540
543
537
531
525
526
528
534
536
533
542
549
556
560
563
546
534
536
536
542
552
551
548
550
554
558
559
563
563
555
551
558
551
542
540
552
569
573
563
562
568
570
566
567
573
577
571
570
566
564
567
571
576
577
581
583
585
578
574
570
569
578
587
601
602
603
597
594
595
594
597
602
599
596
597
591
583
579
581
587
597
598
603
610
608
602
589
582
585
589
591
579
573
577
583
593
595
594
581
571
564
557
553
563
568
573
581
582
567
550
549
556
553
555
548
540
531
527
524
519
513
511
508
508
505
503
501
501
499
501
501
496
496
490
492
497
495
492
492
486
472
464
461
461
460
449
438
434
438
440
448
451
448
447
451
444
427
423
425
430
426
421
422
413
408
406
409
399
396
392
382
380
385
394
395
402
409
406
403
406
408
406
402
398
395
385
382
385
386
389
391
387
389
390
401
407
401
401
404
405
403
398
396
394
401
403
400
394
393
397
405
407
401
394
401
406
409
412
412
421
424
416
409
409
419
425
425
418
395
381
392
399
403
415
422
431
434
430
426
420
424
437
443
442
445
448
436
427
430
433
450
459
464
461
465
466
456
454
452
451
440
440
443
445
441
440
444
453
464
472
471
469
468
456
449
453
462
462
462
459
468
482
490
491
485
484
493
498
489
480
477
486
491
488
488
476
467
479
487
476
465
472
485
490
493
494
489
478
475
475
480
477
470
473
478
481
481
482
479
475
472
469
475
488
486
484
492
497
500
496
497
503
504
512
519
514
500
496
496
487
469
462
467
474
476
477
484
488
490
489
490
491
494
498
495
493
490
489
486
484
485
483
481
477
471
483
502
499
492
491
496
493
487
485
487
486
483
479
484
492
493
482
475
471
466
468
472
470
472
483
490
495
497
497
495
497
497
506
508
505
500
494
492
493
496
489
478
470
473
472
478
478
474
480
488
491
496
495
493
490
486
485
492
502
507
515
508
498
495
491
483
473
471
468
467
467
473
478
477
483
495
498
489
484
476
473
478
478
480
481
489
496
498
494
489
481
475
482
494
502
505
501
502
500
500
501
501
491
487
492
497
497
492
487
483
481
485
498
506
505
500
489
482
490
496
501
491
475
474
475
480
483
487
492
499
507
509
509
503
502
498
495
487
487
491
492
481
480
480
479
479
482
482
477
471
472
472
474
477
483
482
483
491
491
490
494
498
496
489
480
480
482
488
493
496
493
479
484
489
486
485
493
503
512
513
508
507
510
506
504
505
504
504
491
489
493
498
498
498
499
507
510
510
500
491
492
499
497
498
496
495
496
503
493
480
480
484
498
509
504
507
501
497
489
485
492
503
513
522
533
542
546
547
545
541
542
545
545
537
536
540
542
549
558
559
559
563
561
553
550
543
533
529
529
523
513
512
516
512
501
502
505
501
494
483
469
466
465
476
482
485
483
482
480
475
476
474
479
483
485
483
479
475
473
480
495
496
476
468
468
468
477
478
476
475
475
471
468
471
463
463
469
478
476
474
472
469
464
462
469
473
472
472
476
475
479
481
478
474
475
473
469
458
449
456
464
467
471
474
477
482
486
483
477
471
469
475
476
472
467
473
473
476
485
486
486
479
470
461
465
474
483
476
466
460
464
467
468
478
488
488
487
482
474
470
472
474
475
477
483
488
484
471
460
463
473
479
483
488
498
513
518
508
515
526
528
541
567
593
621
650
688
719
750
777
808
836
858
867
878
891
899
907
907
906
911
921
925
923
902
869
817
742
656
569
483
405
333
263
211
173
151
137
124
111
98
101
108
124
143
175
212
234
245
258
275
299
320
333
343
357
368
371
367
362
375
389
403
416
425
440
456
467
469
475
485
488
489
487
490
493
499
497
493
493
494
498
505
514
523
523
521
516
509
507
503
502
512
525
531
527
527
535
541
550
559
553
540
525
519
515
514
510
515
517
513
512
516
520
519
528
537
539
552
555
550
560
575
571
554
538
531
534
525
519
513
509
514
514
520
524
531
534
538
539
539
539
543
552
553
548
549
549
545
544
540
534
539
545
547
546
542
541
535
535
534
537
540
540
541
542
543
549
552
548
545
553
567
576
564
551
549
549
556
564
567
573
574
570
568
570
567
562
561
564
571
573
570
569
568
567
568
571
575
583
593
601
598
594
591
588
583
591
595
580
571
569
565
572
581
588
584
582
581
586
594
594
588
590
590
592
600
605
614
617
612
605
599
592
584
580
575
574
583
586
581
582
582
583
582
583
587
581
574
570
564
557
556
547
532
530
539
540
536
530
529
529
528
519
513
525
529
525
524
514
513
512
516
511
500
489
489
491
485
477
477
477
473
466
459
457
463
457
453
452
456
454
454
448
446
448
450
440
430
433
429
430
432
429
419
415
410
400
397
395
407
413
415
410
401
386
382
386
393
392
392
394
394
399
403
397
394
397
397
402
400
402
400
392
392
392
397
389
376
369
372
377
377
379
387
406
416
407
393
386
378
375
383
388
392
395
392
393
397
402
403
410
423
422
416
413
405
399
403
399
393
401
398
403
404
410
419
425
434
436
430
426
433
437
440
426
414
416
416
419
418
425
429
431
434
441
448
453
455
458
455
448
444
442
440
443
445
446
444
448
453
451
449
451
453
461
466
469
471
473
472
466
463
454
454
461
470
474
478
479
480
481
492
495
486
477
473
463
456
469
479
480
476
476
473
473
476
480
487
490
484
473
462
464
475
476
478
491
497
497
491
490
482
474
478
479
479
479
474
474
477
476
472
469
473
485
494
502
497
489
484
481
485
484
474
470
469
476
488
492
488
484
478
473
469
480
485
484
494
504
507
497
484
480
482
482
486
481
478
481
479
472
469
460
460
465
472
478
482
483
486
490
486
490
490
488
480
478
485
486
483
490
493
490
482
480
479
479
476
475
478
481
475
463
466
469
466
472
482
477
481
496
498
494
488
469
459
456
461
472
480
488
486
485
485
474
469
471
481
488
493
492
491
488
483
484
486
486
481
480
488
496
491
485
488
487
490
489
491
496
490
483
488
484
478
483
490
493
488
475
470
477
476
469
472
479
479
474
471
480
492
494
498
496
493
494
489
476
473
476
478
483
487
498
501
497
493
486
485
490
487
491
493
496
497
485
482
480
483
487
486
484
485
488
496
493
486
485
491
487
483
488
494
495
499
497
493
486
480
479
475
470
470
477
471
474
488
494
498
495
486
481
481
482
488
495
503
504
504
497
496
494
490
490
490
491
487
487
492
491
492
496
509
512
501
501
504
500
489
483
480
486
498
506
518
525
517
507
502
501
495
493
493
489
492
500
490
487
480
475
470
475
480
488
496
496
498
505
512
517
518
521
518
518
514
518
518
516
524
542
541
540
538
537
532
537
541
543
543
544
548
545
548
539
527
522
520
517
512
513
521
523
522
524
521
515
507
508
513
510
506
502
500
501
496
486
476
470
467
468
468
475
476
466
460
465
463
463
461
466
476
469
470
466
462
463
466
472
476
481
481
481
468
457
465
463
462
461
454
455
455
459
462
460
462
467
467
466
464
466
464
473
479
471
465
463
462
463
464
453
444
446
460
475
480
494
497
489
485
486
478
472
472
472
465
471
480
487
478
468
456
447
448
451
458
468
474
479
484
488
484
481
477
470
471
476
476
475
470
465
473
479
477
479
479
482
478
468
464
464
468
471
464
461
472
491
503
511
528
545
561
575
591
624
650
667
693
722
757
791
817
847
859
860
861
864
870
877
877
872
871
872
869
852
825
780
719
649
583
505
418
330
254
194
134
106
97
75
65
68
76
92
107
120
137
155
185
211
223
241
270
298
325
339
352
356
357
361
372
386
398
405
420
424
428
441
454
458
465
476
478
491
492
494
499
496
493
496
503
507
515
516
512
504
501
507
519
531
540
540
535
530
525
517
517
516
517
516
521
526
528
530
534
541
542
535
533
533
534
533
533
524
509
512
516
520
527
526
517
512
519
531
542
552
558
563
556
543
544
541
552
555
554
550
539
539
535
531
533
534
530
526
529
537
547
558
563
561
563
554
532
529
537
538
536
541
545
539
534
531
531
529
531
544
557
566
569
566
560
554
548
554
556
552
547
548
544
542
543
551
566
572
565
561
563
563
569
566
567
567
567
568
577
583
593
591
580
573
574
576
581
593
595
587
575
561
563
569
570
575
581
579
585
593
599
595
589
586
587
590
587
577
574
573
579
588
595
596
584
572
571
569
571
573
578
580
586
580
570
575
577
571
564
566
571
572
576
578
575
565
544
539
547
551
549
555
561
559
543
536
536
537
535
528
518
511
501
490
483
486
486
484
486
483
487
491
492
484
476
472
472
469
463
458
468
475
472
461
454
448
443
442
440
441
439
439
445
446
440
439
431
424
423
415
411
416
420
421
418
414
407
408
405
395
396
387
383
380
378
384
391
388
380
387
396
405
416
421
411
397
378
362
355
353
362
380
381
372
369
370
367
369
371
369
369
368
365
359
362
377
392
394
398
404
396
384
382
395
403
405
413
421
424
408
397
388
381
382
383
383
386
390
390
397
401
408
419
423
421
423
428
430
430
430
428
430
428
425
424
427
429
424
430
433
432
433
437
438
432
434
428
428
428
436
442
444
450
445
443
450
457
454
459
455
451
450
448
451
446
437
444
443
437
435
442
456
456
456
458
462
465
462
465
464
463
465
464
466
469
469
472
473
472
473
467
467
463
458
457
458
458
459
464
472
469
472
470
469
471
464
451
446
461
471
469
464
460
461
466
474
482
480
478
487
481
476
469
469
462
456
454
454
454
457
451
454
453
445
440
441
451
457
455
455
455
451
450
449
449
457
466
470
468
471
467
467
462
447
438
439
448
457
467
474
480
471
462
460
460
458
455
450
450
456
463
464
463
468
470
468
473
474
473
475
477
479
473
458
461
471
477
483
481
465
443
440
455
464
455
457
474
483
481
473
470
472
471
467
465
464
464
453
453
446
454
462
464
467
473
471
473
470
465
471
477
478
474
469
466
463
467
460
460
462
465
467
462
463
461
460
469
477
482
477
472
472
471
470
478
487
491
493
491
491
488
488
478
470
465
460
452
448
453
463
471
476
476
472
475
478
479
480
483
481
480
485
488
482
489
494
491
486
487
485
474
466
466
471
472
477
483
484
480
474
463
468
477
488
499
507
509
501
492
476
462
463
468
475
479
470
469
467
467
466
477
490
488
487
487
476
464
461
470
490
497
486
488
500
500
498
504
503
497
488
488
486
488
494
499
501
499
492
493
492
491
489
487
481
483
482
487
493
498
500
496
493
495
489
489
500
502
508
524
535
536
532
533
537
530
531
529
534
541
542
538
541
546
550
541
529
523
513
504
508
517
517
515
510
509
502
502
502
498
492
486
485
485
485
482
471
464
469
478
480
468
463
467
473
481
481
478
477
470
471
479
480
483
491
491
469
453
450
449
451
462
469
467
465
470
468
466
466
470
476
471
466
460
460
455
449
452
459
465
458
453
456
460
459
454
456
463
469
465
461
462
476
477
470
469
471
473
472
475
485
485
481
485
483
476
469
460
463
474
484
476
472
479
481
479
472
471
465
469
481
494
492
489
483
469
468
467
474
472
475
480
485
483
479
474
474
481
478
474
467
468
473
480
488
495
500
499
499
501
509
528
535
545
561
585
619
656
685
708
734
764
787
810
831
849
864
865
872
880
884
882
876
874
883
893
883
835
780
708
619
543
470
402
339
270
206
161
135
134
123
98
81
83
105
121
138
153
175
206
234
257
279
303
327
360
380
388
392
392
391
399
407
417
421
421
429
445
461
465
466
471
485
493
501
512
514
514
520
519
508
501
499
507
516
513
514
515
517
518
523
520
521
527
522
520
523
520
530
536
534
534
534
531
533
535
536
529
531
532
527
515
512
522
524
522
527
536
547
547
541
534
531
536
544
547
551
553
552
552
547
547
543
547
548
554
554
556
549
544
538
538
538
542
547
552
557
560
548
535
528
531
533
538
546
555
565
563
554
549
550
549
544
552
564
568
560
560
560
552
541
537
536
541
547
551
554
561
561
564
571
568
557
553
548
551
565
576
579
583
580
569
559
562
576
586
580
575
572
577
581
582
578
578
585
598
594
590
590
590
584
577
581
583
592
605
607
598
597
599
597
590
593
599
600
600
592
583
576
583
590
589
582
576
574
566
567
576
580
584
590
597
591
585
588
593
579
571
567
575
577
571
557
560
560
558
556
550
550
544
543
542
540
536
539
530
522
520
522
528
525
525
525
517
509
502
497
492
493
498
499
492
482
479
474
469
471
470
472
477
475
465
458
452
455
453
449
454
457
453
451
445
439
426
418
420
424
420
407
396
402
412
417
416
413
411
414
417
415
408
400
401
403
394
388
387
394
398
401
409
422
422
408
393
385
378
377
374
379
391
395
387
383
380
382
380
383
383
382
381
382
389
393
394
398
406
411
416
431
437
427
413
400
397
409
414
420
421
419
419
418
418
414
409
407
416
416
408
410
418
423
421
415
416
424
421
423
431
437
439
443
441
437
435
437
435
431
427
428
426
426
432
440
442
452
457
458
455
456
466
467
464
464
456
447
453
464
477
480
476
470
463
452
450
457
466
473
478
482
485
488
480
470
470
467
457
457
465
476
481
483
482
481
477
467
461
459
459
457
451
453
462
474
482
486
490
486
483
493
495
493
492
488
488
494
496
492
485
481
483
481
486
490
488
486
486
486
484
488
491
488
482
468
468
468
467
473
481
476
476
473
476
478
482
486
483
480
478
477
476
479
479
476
478
476
473
474
470
470
478
481
482
476
482
487
481
472
480
478
473
468
467
471
476
483
484
488
492
490
492
496
496
495
490
482
482
475
476
478
477
469
466
464
464
470
473
479
478
479
471
472
478
485
481
467
459
452
461
479
492
496
493
485
480
485
483
473
465
463
471
481
488
493
482
476
476
473
477
485
481
474
471
472
469
469
472
474
476
481
485
481
479
479
474
472
476
479
475
474
475
479
482
480
481
495
502
506
506
506
501
490
480
467
463
474
483
482
481
479
465
463
465
455
449
453
458
465
468
475
475
481
482
485
490
490
490
490
483
474
475
480
486
490
484
478
474
476
481
483
471
467
471
475
475
481
480
473
483
480
466
466
471
472
470
478
479
473
463
462
468
473
474
480
483
486
485
476
480
486
492
496
496
488
487
487
496
500
496
492
482
477
475
477
479
480
480
484
483
484
480
484
485
484
485
477
464
463
470
480
480
483
487
490
494
486
484
489
495
494
492
485
482
474
476
488
500
495
488
483
478
472
469
478
484
484
476
472
478
478
479
481
487
492
493
487
489
492
495
500
505
500
507
508
514
525
533
543
549
555
554
547
531
512
514
517
520
525
528
525
520
523
521
519
518
521
517
506
506
508
509
510
517
520
515
515
512
509
508
504
497
493
484
467
460
463
463
463
459
455
446
447
455
454
452
456
454
450
451
454
456
465
469
472
472
468
470
471
466
463
467
462
457
453
454
454
445
452
463
469
462
450
448
444
453
459
463
463
465
465
461
458
460
460
460
464
465
464
453
442
447
457
456
452
456
450
448
439
426
419
416
424
443
452
455
453
452
450
453
468
487
498
492
482
475
481
485
477
464
462
471
476
469
475
477
482
483
488
485
483
486
490
484
485
479
462
450
460
475
488
496
495
490
492
502
509
506
515
531
546
564
583
611
635
668
705
739
761
787
820
845
860
872
882
888
889
885
891
892
895
893
893
872
839
799
735
650
574
493
428
360
295
243
194
162
140
120
103
94
97
111
124
137
154
174
189
211
226
243
268
293
313
334
352
361
369
380
390
390
393
407
423
441
449
454
453
448
456
470
480
485
485
480
481
490
500
502
508
515
514
507
501
498
494
495
492
493
492
492
498
501
509
518
518
515
514
513
515
514
516
518
515
522
527
532
542
544
544
537
529
520
515
505
501
508
516
522
517
516
525
528
527
527
527
530
531
528
531
534
526
519
516
516
519
520
527
529
516
514
516
513
520
531
536
532
527
532
540
540
538
535
530
532
531
527
532
532
533
539
548
552
549
546
542
532
524
526
535
541
544
546
549
555
549
548
554
564
562
558
554
550
551
549
550
554
553
560
576
586
578
558
542
538
548
562
565
568
570
563
561
571
576
582
587
588
582
576
572
576
577
583
587
585
590
595
600
600
590
581
579
581
581
571
568
572
581
582
582
584
580
587
603
604
589
582
578
579
576
572
568
562
560
559
561
567
583
590
577
564
549
541
536
535
534
537
544
551
550
549
549
541
531
524
526
531
534
529
519
511
508
504
502
498
497
501
505
502
498
492
486
476
471
468
465
463
458
451
453
458
453
447
444
446
447
440
428
423
425
427
433
435
436
433
434
428
413
400
405
415
417
412
408
402
397
393
383
373
367
372
380
383
386
388
385
385
383
385
387
389
389
384
380
379
387
393
399
410
416
402
391
389
391
400
399
393
400
403
400
390
377
375
379
388
393
394
389
387
393
390
388
392
396
398
389
387
387
388
389
397
411
413
410
408
407
407
411
418
425
426
426
428
436
444
452
457
458
454
439
424
420
418
422
429
433
439
434
435
435
439
439
443
442
442
444
450
457
461
453
444
445
451
459
468
476
470
459
455
453
447
448
451
453
456
457
460
458
457
466
469
464
458
458
465
467
465
467
472
474
479
486
490
496
496
485
478
476
472
471
476
473
476
480
479
480
482
483
481
484
491
490
491
497
484
478
479
478
463
453
459
474
483
482
473
460
457
464
462
465
475
478
473
474
473
479
479
489
495
498
494
495
481
473
471
466
465
464
471
478
484
487
481
481
482
481
479
484
487
487
487
486
477
472
475
477
476
474
473
479
483
485
483
483
487
493
501
505
489
477
466
460
467
474
477
480
476
471
467
473
468
467
474
478
477
474
472
478
472
470
467
465
462
463
474
483
486
484
483
487
485
481
477
477
474
475
477
477
485
482
478
475
475
469
465
462
464
460
460
467
469
477
493
496
487
483
485
486
481
474
464
467
480
483
480
472
465
464
473
483
483
480
475
478
482
488
491
483
469
476
489
487
478
477
477
476
469
470
468
474
480
481
479
476
476
476
477
480
483
481
483
487
483
478
478
474
473
476
487
491
491
491
486
482
476
471
463
463
469
476
480
488
489
488
483
477
476
475
478
484
483
480
486
490
495
499
501
500
495
496
494
492
492
490
498
504
508
495
482
466
456
462
471
475
468
469
480
483
484
475
464
467
478
474
465
460
470
476
477
480
479
483
490
490
492
492
486
481
485
489
499
504
508
512
497
489
487
483
484
482
480
466
466
470
473
476
474
471
478
479
492
502
509
506
509
507
500
495
494
494
494
499
496
502
507
506
499
485
478
475
473
474
479
485
487
491
491
496
494
497
494
491
490
489
493
506
518
530
536
550
548
542
533
530
537
546
544
535
539
543
547
547
534
522
523
525
529
531
533
530
527
527
521
511
512
512
511
505
497
493
492
490
484
484
482
469
458
457
462
474
483
485
489
488
483
488
476
464
453
442
439
443
445
454
469
475
479
478
463
453
453
452
451
454
454
452
458
463
465
470
472
471
468
464
456
454
459
461
468
464
456
458
461
462
457
457
461
459
452
452
455
457
462
459
452
451
455
464
464
465
473
478
482
491
486
478
479
481
481
478
467
461
460
471
481
489
493
484
481
476
470
465
455
450
459
470
474
478
473
474
472
470
463
452
448
445
453
462
459
449
446
450
455
472
485
492
494
505
526
537
541
551
575
602
623
654
685
704
732
769
799
824
851
866
876
887
896
896
895
890
884
879
883
883
859
817
777
708
621
541
463
386
315
247
189
138
109
88
77
76
82
103
131
155
167
184
199
221
244
253
263
271
289
303
324
341
354
364
378
390
394
405
412
423
439
449
450
458
469
480
493
496
497
502
497
486
482
482
490
493
495
499
506
513
517
509
512
511
507
508
511
512
515
526
523
517
516
523
527
531
538
534
520
514
511
512
514
510
511
526
530
529
529
532
536
539
539
541
532
522
518
512
509
513
518
523
524
526
531
526
524
524
524
524
524
529
532
531
531
535
543
548
546
537
531
530
530
531
538
543
543
542
550
564
570
557
545
538
535
529
530
537
544
553
553
554
543
538
537
542
554
567
577
586
591
584
569
557
543
532
535
537
546
558
566
555
547
550
548
548
557
567
573
580
584
583
573
568
572
569
559
554
564
572
576
585
585
589
590
583
587
599
602
606
608
591
577
567
561
576
586
592
599
593
591
593
591
586
594
595
598
603
594
593
580
573
577
573
578
581
573
566
561
560
558
570
570
566
559
557
566
571
574
565
560
559
540
531
538
541
533
523
519
521
522
525
532
528
523
517
512
511
507
501
511
511
504
501
507
507
494
481
476
478
483
480
473
467
464
461
460
457
461
459
453
446
445
437
432
431
430
426
427
432
431
435
432
425
430
431
429
429
430
431
435
438
432
413
405
396
394
397
395
400
399
394
397
406
422
424
422
428
417
398
384
380
383
381
381
371
370
374
374
374
369
375
382
387
393
404
409
411
403
397
397
398
393
383
379
379
382
397
401
402
400
403
409
417
421
410
408
407
419
429
436
434
434
431
426
419
420
429
422
422
426
419
417
413
418
433
449
456
456
458
462
464
463
452
441
432
427
427
428
431
445
450
457
458
466
473
474
470
461
465
472
476
470
465
461
462
458
470
477
473
471
467
468
464
461
468
467
464
466
476
483
482
475
466
458
458
462
470
478
480
481
476
476
481
485
485
482
489
481
474
475
478
477
472
471
476
473
483
488
486
494
485
478
474
472
476
478
489
487
485
496
509
512
508
503
489
468
466
474
475
476
472
474
475
481
490
494
491
473
455
455
465
469
462
464
476
483
489
489
480
478
482
490
494
503
494
490
481
482
482
484
479
471
469
466
467
471
469
464
464
476
482
477
474
476
478
475
475
476
482
486
490
491
493
495
492
497
501
488
470
453
459
472
470
469
470
473
480
485
483
480
474
466
465
464
471
478
479
487
487
488
482
475
474
471
474
475
473
475
488
492
491
483
478
472
471
476
479
483
485
486
491
497
500
506
500
493
494
496
507
510
501
487
488
495
484
466
468
469
474
483
488
492
490
488
485
482
481
486
487
493
491
474
463
465
472
477
479
480
476
478
483
497
507
507
501
486
479
479
478
480
488
496
508
513
512
503
495
484
484
491
488
480
477
476
474
467
474
485
489
491
485
481
485
480
483
488
493
497
492
491
494
506
518
520
516
505
492
487
481
468
466
468
477
485
480
476
475
483
493
505
499
502
510
516
515
508
501
492
492
500
510
507
508
510
511
503
493
480
470
463
470
474
474
483
493
496
499
501
502
501
504
495
483
481
496
510
510
505
513
523
525
532
531
521
515
525
538
542
546
546
544
542
544
542
538
537
536
542
541
532
531
531
518
504
502
501
497
493
489
488
485
489
478
475
476
478
476
480
483
485
486
491
495
500
499
484
469
471
476
482
480
488
496
496
474
458
464
474
479
481
475
470
479
491
487
472
460
463
478
488
486
479
484
490
488
476
466
467
471
470
461
459
457
460
463
471
472
466
456
457
461
465
471
463
454
458
463
467
471
471
467
473
479
477
475
484
493
492
493
488
482
484
493
489
476
464
465
470
469
458
458
463
462
464
468
481
490
496
508
514
511
503
493
487
481
468
455
459
466
479
490
493
497
497
489
484
489
500
515
529
542
560
575
599
631
656
671
689
716
737
770
791
805
825
845
861
861
855
852
865
872
877
866
851
837
806
760
717
658
582
500
423
335
251
179
125
92
80
80
75
69
71
80
94
114
139
163
176
200
227
246
266
292
322
349
361
379
397
412
416
415
420
432
444
451
451
455
471
487
495
498
498
504
505
507
510
513
509
509
513
513
501
506
511
505
507
525
542
548
546
539
533
532
530
525
521
519
521
536
549
548
548
543
543
547
551
547
541
539
537
533
530
527
528
524
518
522
524
530
531
530
531
534
540
542
544
538
536
545
558
557
555
545
543
542
546
554
552
537
532
534
543
550
556
555
546
542
547
551
549
549
553
556
559
554
544
542
541
545
542
546
545
537
542
552
551
550
547
545
554
563
570
566
558
551
552
556
554
545
545
553
561
561
558
563
566
568
573
572
565
565
576
582
588
588
588
587
584
583
582
584
585
586
594
594
592
588
584
583
581
586
596
597
593
582
576
579
587
592
590
589
589
591
591
593
593
592
598
591
585
585
588
586
584
590
601
600
581
576
579
577
575
567
563
560
564
562
568
568
561
564
563
559
568
572
563
558
558
552
543
530
519
521
525
526
528
528
518
514
526
525
519
518
518
514
515
517
518
514
508
507
504
495
495
501
501
498
491
478
461
457
456
458
464
466
462
463
459
454
446
437
433
433
430
427
421
417
418
413
410
410
414
409
408
404
401
409
406
407
417
410
399
394
390
393
398
397
393
385
379
385
388
386
381
381
387
398
403
407
414
415
405
395
384
384
392
399
399
398
404
414
419
421
420
417
415
413
397
390
388
395
400
406
420
425
427
429
427
417
417
421
428
435
433
425
426
433
439
445
432
411
409
415
424
437
438
439
446
449
441
441
440
443
444
451
458
457
454
442
441
442
445
453
453
451
455
461
478
478
473
468
463
467
474
469
472
478
484
485
479
468
464
467
472
470
467
469
470
475
481
490
480
465
465
471
473
476
472
469
474
484
487
481
480
478
481
486
485
484
482
479
475
478
486
493
495
496
497
497
493
489
491
494
494
486
474
475
478
481
484
480
479
477
480
483
478
476
480
484
481
478
471
468
474
486
490
490
488
490
489
487
483
474
472
474
483
483
483
480
475
472
475
482
485
482
478
483
488
487
487
491
486
489
497
491
488
489
497
495
480
472
467
476
485
476
464
461
465
472
480
485
483
482
490
495
496
499
496
492
493
496
491
472
457
461
472
476
478
481
480
477
471
472
477
483
485
484
481
477
486
494
482
476
474
470
463
466
475
481
483
480
477
485
494
492
488
483
480
486
492
500
506
506
497
492
496
495
498
498
494
493
499
493
481
479
475
475
476
479
483
490
489
487
479
476
473
474
479
483
487
489
490
489
492
493
492
487
489
492
501
505
498
502
512
509
503
498
489
482
479
472
466
467
473
488
489
488
487
489
495
495
493
492
487
485
486
492
495
500
515
517
508
499
493
496
505
520
519
503
490
482
472
468
476
488
496
505
497
489
491
497
488
486
490
500
495
492
493
499
500
500
497
500
500
495
487
478
467
475
483
485
490
501
509
511
509
506
504
510
521
529
521
515
509
510
515
513
523
537
537
546
553
554
549
543
545
542
545
554
553
546
543
539
529
517
516
529
536
536
537
532
525
519
517
515
521
520
509
505
500
491
482
475
474
474
477
481
481
479
475
475
474
472
473
481
485
480
474
474
477
476
476
481
482
478
472
471
478
487
477
468
468
474
472
478
485
486
485
479
468
460
462
465
469
466
458
450
450
456
455
455
460
465
470
474
473
471
475
491
495
487
477
474
478
484
486
483
477
474
481
486
493
495
492
487
483
484
481
478
477
483
479
475
482
485
479
470
467
464
470
476
485
487
482
479
475
470
467
470
477
481
483
483
477
477
473
471
473
469
472
478
480
489
497
506
521
534
548
554
560
573
592
625
659
690
715
741
757
775
799
822
838
847
861
876
883
878
872
868
880
884
881
851
802
767
712
638
566
494
427
367
304
239
186
149
126
109
93
92
99
114
138
158
177
197
217
238
256
276
298
318
335
356
372
382
381
381
386
397
406
413
419
434
450
464
473
470
468
474
481
493
502
501
511
517
521
529
519
510
514
518
533
535
530
525
518
507
502
497
504
511
511
507
509
518
528
533
538
536
537
534
530
524
510
502
502
501
495
501
509
520
529
527
524
523
526
525
527
526
527
530
529
529
535
538
543
543
542
544
550
552
548
539
532
529
530
523
526
544
548
538
540
541
531
533
542
550
550
541
545
547
538
535
540
548
551
549
550
554
556
557
555
551
549
552
562
577
570
566
568
564
558
552
541
536
535
536
542
548
550
551
551
554
551
559
565
567
566
574
577
574
568
558
553
560
566
578
581
581
580
567
559
556
565
573
573
570
576
583
590
591
586
585
589
586
590
592
591
588
584
590
594
584
578
575
573
575
581
589
597
600
596
594
592
590
580
574
575
569
565
564
564
562
557
552
547
551
559
563
562
563
550
544
548
544
536
532
537
538
538
536
535
528
525
523
518
515
514
513
510
509
506
504
499
499
494
485
474
464
463
468
466
462
456
458
464
471
471
476
477
477
474
474
474
464
455
439
431
434
438
433
429
421
419
423
423
413
402
402
408
411
409
405
403
407
410
416
419
409
397
388
391
390
397
396
395
397
393
385
380
386
385
388
389
392
393
389
388
384
383
386
389
393
392
392
391
397
405
407
401
396
397
402
400
399
400
407
414
416
409
398
393
393
396
404
408
410
413
418
422
426
428
433
442
449
444
434
423
416
425
429
432
434
445
451
451
439
426
425
435
442
437
429
431
439
450
462
462
460
462
459
455
461
461
451
446
445
447
447
460
481
483
480
471
473
475
472
473
472
467
464
463
455
456
461
466
474
473
463
458
461
464
462
460
462
464
473
477
475
473
473
471
478
484
496
497
485
475
465
468
479
485
485
484
481
484
477
476
482
487
488
492
486
482
484
485
486
491
495
489
490
493
487
480
477
479
477
475
477
487
491
484
477
475
474
479
483
485
492
492
489
492
501
509
514
512
513
502
487
481
481
476
475
474
475
479
491
484
478
472
472
474
476
474
481
493
500
502
505
503
505
501
497
494
490
481
478
474
468
468
477
486
488
485
485
481
480
473
471
470
464
468
471
476
489
500
496
491
493
491
491
485
484
490
486
487
482
474
475
477
482
489
496
491
491
501
500
492
487
481
480
484
486
491
500
501
499
497
498
493
493
490
486
488
489
491
495
498
505
507
505
490
476
479
484
488
490
488
483
485
491
489
482
486
492
493
495
490
494
495
493
488
480
480
488
483
477
476
478
488
491
495
499
493
490
482
471
472
483
491
500
509
509
504
505
511
500
491
489
485
480
483
486
492
491
490
491
486
480
484
485
486
487
491
492
487
483
486
496
505
508
501
490
501
503
498
496
494
489
478
486
487
485
491
498
499
497
492
486
488
494
491
485
483
488
487
489
491
496
504
512
513
507
499
498
498
491
491
495
500
500
508
514
509
505
503
508
510
508
494
483
474
476
479
489
497
493
485
491
502
508
509
505
505
506
496
495
502
513
520
525
530
533
530
529
539
542
542
543
553
565
567
564
557
547
534
526
536
543
550
555
557
550
529
517
516
522
522
517
521
534
536
530
509
497
491
493
479
474
476
472
467
466
471
475
477
474
471
477
486
485
472
466
466
463
456
462
467
475
481
480
473
466
467
472
479
484
489
486
481
479
475
470
474
477
480
481
476
466
464
474
474
470
466
458
459
464
466
470
484
478
475
477
473
474
469
469
468
471
473
468
462
460
463
477
480
478
475
475
479
468
456
469
475
482
485
485
476
475
485
491
494
491
483
475
475
475
481
492
499
502
495
488
484
486
483
475
474
470
469
475
484
477
468
458
455
459
468
478
491
504
519
533
553
560
559
552
565
593
620
642
665
686
717
754
788
820
845
855
865
876
887
885
881
892
901
904
908
906
892
860
815
751
661
565
477
407
342
277
216
167
134
124
116
115
104
111
132
138
143
159
176
202
234
256
279
299
318
333
346
355
371
381
390
397
391
391
391
406
422
434
453
468
474
471
474
483
490
493
493
500
512
510
499
490
490
493
494
493
496
501
503
506
514
527
531
528
525
530
523
523
523
517
521
528
529
526
527
538
540
540
540
541
534
522
520
518
515
514
515
523
525
532
535
538
537
533
525
526
531
530
531
540
546
545
542
541
534
526
521
520
517
515
520
529
531
537
536
533
531
535
537
542
542
548
557
557
556
554
549
544
544
539
533
523
523
533
538
541
540
545
546
549
540
537
544
543
545
553
560
561
556
557
559
562
557
551
555
561
570
577
570
563
564
561
559
566
570
575
569
570
563
557
557
570
583
593
591
592
590
579
571
566
574
585
597
611
610
606
607
597
582
558
546
553
562
568
573
578
578
578
581
583
594
596
589
592
591
582
587
590
594
588
578
572
574
577
579
568
564
565
566
566
558
552
547
549
550
554
560
557
552
547
548
542
535
527
521
533
540
530
522
526
533
532
511
505
508
502
486
486
498
502
503
499
496
485
473
469
465
464
462
456
452
449
452
449
441
443
438
430
422
425
431
433
438
438
447
454
455
444
433
426
414
415
423
428
423
414
402
399
405
410
410
408
406
403
403
398
400
400
401
397
395
394
392
393
398
400
406
410
405
398
398
390
379
373
374
380
388
398
401
402
394
390
393
397
401
411
412
409
401
403
398
400
406
411
415
416
411
405
395
388
390
396
402
410
413
415
423
423
419
411
407
412
422
427
430
436
450
455
449
440
435
439
437
437
442
452
448
443
444
443
439
443
444
454
470
471
461
466
466
463
451
447
445
450
453
459
462
462
470
470
470
470
461
446
448
456
453
454
460
464
471
473
472
476
478
483
487
485
481
477
477
480
490
489
482
482
483
478
480
483
487
483
474
475
473
480
485
486
480
479
479
473
462
467
478
492
492
489
487
484
487
489
490
492
491
486
484
488
494
494
490
489
485
484
483
487
490
490
489
483
474
471
472
468
477
481
483
487
487
481
479
480
478
475
476
468
463
471
482
477
479
479
484
484
482
488
483
483
493
498
492
486
487
488
491
494
490
491
489
486
485
488
489
476
458
454
461
473
491
499
488
479
475
471
474
467
461
470
475
474
476
480
480
480
481
482
478
478
488
496
500
503
498
493
492
484
469
458
457
465
467
467
466
469
468
471
473
480
484
486
486
492
493
489
490
486
487
494
494
496
495
495
503
492
484
484
489
488
491
484
481
480
470
462
463
474
477
476
476
476
478
483
480
480
484
486
487
496
504
499
501
504
503
492
477
475
482
486
485
494
497
505
510
514
511
506
497
486
482
487
489
492
488
479
477
484
488
485
482
484
482
480
479
488
500
513
515
516
514
502
481
481
484
492
487
486
485
478
475
480
486
490
493
498
498
493
494
496
497
492
491
491
482
483
487
487
477
471
476
478
480
487
486
487
494
496
502
502
505
510
512
507
491
483
481
478
478
475
476
485
490
493
502
510
512
509
500
494
497
494
494
494
498
492
485
486
497
511
514
501
502
508
510
503
498
503
515
527
531
533
534
531
533
535
543
550
556
557
553
557
552
542
546
551
541
529
520
518
523
526
521
510
512
520
521
519
517
525
526
524
521
512
515
509
502
486
473
468
469
471
471
464
457
458
461
463
464
471
472
464
462
472
481
478
465
460
463
464
462
464
463
461
456
451
453
459
465
470
467
461
468
467
466
466
471
478
477
466
455
459
470
473
467
467
470
467
462
462
467
468
467
472
479
487
489
482
472
473
479
480
476
483
489
480
458
441
435
433
442
463
471
477
479
477
477
481
491
499
501
497
491
495
501
489
476
470
475
481
478
469
458
460
468
478
480
472
469
468
465
476
483
484
478
466
474
483
479
479
492
512
526
537
559
586
619
640
657
685
716
750
776
797
817
840
854
868
880
888
892
891
885
881
881
885
888
869
835
774
693
613
531
435
348
277
213
158
119
102
107
104
95
107
119
138
140
134
139
161
190
217
234
263
295
319
330
339
348
363
378
383
388
393
395
407
417
431
445
451
461
477
497
508
497
493
499
506
507
496
495
492
492
489
491
500
511
521
518
510
504
508
507
507
510
519
528
533
532
527
523
520
525
526
526
525
519
521
526
521
524
527
527
531
536
533
533
533
533
535
533
530
526
523
527
524
524
528
529
537
542
546
547
545
549
561
564
552
537
531
541
540
528
525
535
544
547
555
560
566
571
571
559
546
531
516
513
516
528
545
555
550
552
552
548
543
542
537
538
546
542
538
542
558
569
566
559
547
540
540
549
564
571
568
562
562
560
559
567
567
568
560
550
546
550
554
557
567
576
573
559
555
568
572
579
585
583
586
588
587
582
575
572
579
586
590
599
613
615
621
626
625
614
587
571
559
564
582
591
595
591
586
586
590
587
581
575
575
574
569
559
557
559
565
570
574
574
575
576
576
577
584
581
575
566
565
564
562
553
546
546
541
539
534
531
531
528
516
510
514
520
523
508
496
490
492
505
512
514
510
510
515
509
503
493
484
473
476
480
473
463
457
452
448
443
440
435
445
450
446
445
445
440
439
440
451
447
440
433
419
410
401
392
393
411
426
426
413
403
398
402
398
394
395
399
398
402
409
411
403
408
414
409
402
399
391
389
389
385
385
387
384
391
391
394
395
394
389
382
383
387
396
401
404
417
428
425
419
410
403
403
395
384
389
401
410
409
412
416
417
417
420
424
423
429
425
421
413
407
407
411
414
421
418
422
431
435
444
450
457
460
461
452
439
432
434
442
446
449
441
437
436
441
445
448
445
449
452
447
449
465
474
473
465
464
459
461
464
464
461
455
451
456
456
457
461
467
474
471
469
463
458
459
467
477
481
479
477
469
468
475
475
476
483
484
476
481
476
468
474
475
469
471
471
471
474
479
483
482
474
480
483
482
479
474
478
487
485
494
498
497
497
491
483
481
477
473
469
465
462
468
478
487
487
486
484
479
471
468
474
484
490
485
480
482
479
467
464
468
475
479
483
479
467
458
462
466
465
463
469
468
471
466
468
469
471
469
463
459
467
481
482
482
481
481
484
499
507
506
502
502
493
484
469
457
462
469
479
481
479
475
481
481
477
480
480
487
493
494
484
469
465
461
455
465
469
481
491
489
488
493
492
494
494
494
494
489
486
480
478
489
492
483
473
468
467
476
479
479
473
476
481
483
490
483
473
469
478
490
499
489
487
498
505
502
489
479
469
464
468
476
481
478
479
485
491
491
487
488
490
491
493
494
492
492
493
485
481
484
490
497
490
479
486
505
506
504
500
494
483
479
485
491
494
495
498
501
504
491
478
476
476
481
481
475
478
482
485
487
489
491
489
488
492
494
489
495
497
493
488
482
493
504
504
509
518
521
516
503
497
482
472
472
478
474
471
469
475
481
486
489
490
483
482
480
483
488
489
491
495
498
497
496
494
496
503
500
500
495
496
501
505
512
515
519
521
527
521
509
502
496
492
494
493
493
491
487
482
480
482
494
504
505
506
516
526
535
538
531
532
534
537
542
545
546
544
547
555
560
556
558
564
561
559
554
554
551
543
539
526
520
521
524
517
500
492
484
479
478
484
484
475
479
481
483
486
489
492
494
490
480
475
474
476
474
465
468
474
475
463
455
456
453
451
452
458
463
456
449
461
468
469
472
482
495
500
495
483
481
465
458
459
463
466
459
464
470
476
474
472
474
477
469
458
452
455
462
460
459
461
461
468
485
489
480
465
462
477
492
490
490
491
492
483
475
478
482
481
475
467
465
476
480
484
480
469
467
469
472
482
484
485
486
481
474
464
459
457
462
463
468
476
483
482
478
483
490
488
483
480
479
481
485
488
496
498
500
511
528
540
553
573
594
621
645
666
689
718
749
782
812
844
871
872
867
868
856
843
842
844
842
850
862
874
858
818
761
685
607
524
428
342
261
187
134
101
89
86
80
73
78
88
103
125
153
179
198
217
237
263
286
308
325
339
353
370
385
403
414
428
438
443
443
444
447
454
461
463
473
474
476
483
484
483
492
504
514
515
506
502
499
507
518
523
517
516
519
518
514
506
507
518
517
523
535
535
535
529
519
520
528
525
524
520
520
524
535
536
536
546
545
548
549
551
555
547
532
523
516
517
521
528
533
540
540
537
535
533
539
547
545
540
536
541
542
539
530
531
538
547
542
546
552
552
554
549
542
531
539
541
544
549
559
565
571
569
567
570
574
577
564
553
548
550
552
562
554
556
555
547
538
536
536
539
545
547
545
545
549
554
556
564
569
576
580
582
572
562
562
565
570
574
571
564
564
570
574
581
581
578
573
566
566
575
579
577
582
591
596
592
592
589
586
584
586
591
591
594
584
578
576
583
581
582
595
602
599
588
579
579
579
578
577
580
580
576
576
576
573
572
581
584
574
569
580
592
589
571
561
555
547
546
544
540
536
534
530
526
531
535
536
532
527
520
512
506
511
504
498
502
512
516
525
520
518
507
496
494
494
490
479
480
467
454
450
454
455
450
448
449
447
442
447
454
460
461
456
449
442
440
449
448
444
438
436
435
428
416
413
408
414
421
424
421
422
412
403
399
398
402
409
411
403
405
411
410
403
401
401
406
411
415
407
403
393
380
379
381
379
386
391
398
397
390
398
405
401
390
388
391
389
388
393
398
401
404
406
405
402
400
398
396
389
388
392
398
400
397
405
416
418
418
420
419
422
420
418
419
427
439
441
443
440
437
438
437
441
441
442
455
462
469
460
441
436
434
434
438
437
431
439
444
442
441
449
454
452
459
463
465
467
463
461
460
459
461
461
466
469
467
463
463
467
471
472
478
480
481
485
479
471
462
451
451
458
467
477
475
475
476
475
473
470
468
473
481
482
483
481
478
481
489
498
499
500
491
491
491
491
480
468
464
475
486
487
482
483
491
496
504
499
494
488
474
470
474
473
464
464
471
471
473
475
475
481
488
488
483
474
467
471
483
490
490
486
484
484
476
466
467
473
477
471
465
466
475
484
486
485
488
490
489
483
482
482
477
479
483
472
476
487
494
493
484
479
481
483
481
487
488
487
479
480
474
469
474
474
475
479
480
479
478
481
483
481
483
489
494
500
496
486
472
460
460
471
488
494
493
497
504
502
494
483
476
475
476
481
475
469
469
469
470
474
469
478
484
486
489
486
485
487
492
484
475
475
483
490
489
492
492
491
491
488
481
481
487
487
487
486
493
504
513
516
513
505
492
473
465
468
473
479
479
488
488
486
488
489
486
483
484
488
483
486
486
496
508
511
497
496
498
501
493
483
484
490
486
490
492
492
488
486
484
476
473
473
480
487
490
495
490
488
490
494
492
488
480
479
482
483
485
489
491
496
487
478
477
483
491
492
497
500
504
501
487
475
471
469
474
481
484
484
489
493
495
506
512
509
511
505
491
490
492
490
490
488
498
494
485
483
486
489
490
498
507
507
502
504
505
503
496
488
490
497
504
513
522
514
509
504
498
489
483
475
470
469
471
476
483
495
490
490
492
502
512
507
491
483
482
486
493
506
517
529
538
546
556
551
545
548
544
544
537
542
548
534
512
509
518
532
540
537
533
525
521
519
517
518
513
507
508
512
511
515
523
526
526
526
531
530
523
508
486
466
458
455
448
450
467
475
475
467
465
476
478
473
472
474
473
471
473
471
475
476
476
475
473
475
474
474
473
469
464
463
461
453
448
446
446
450
451
455
462
476
486
489
484
484
489
485
480
471
465
464
458
456
454
453
451
456
464
457
462
465
469
469
466
469
471
467
468
475
481
479
474
467
466
461
460
455
452
457
457
462
459
463
472
481
484
480
474
465
464
467
470
478
481
479
483
486
487
483
475
467
461
458
459
468
478
473
476
489
508
518
525
536
546
556
565
585
607
633
660
686
709
735
763
794
829
857
871
881
894
908
897
870
856
851
871
885
886
858
820
771
701
626
552
471
393
318
254
203
155
120
97
84
85
90
89
97
114
137
162
186
202
219
246
268
287
312
332
357
372
381
386
384
387
396
409
417
425
437
451
455
459
454
455
468
480
485
487
493
501
502
497
495
498
504
510
506
509
512
514
517
526
528
523
512
501
500
505
511
524
526
529
529
528
520
519
518
513
513
513
515
519
523
531
541
531
527
532
525
526
532
532
537
544
541
539
538
536
540
538
535
528
529
528
525
521
515
522
527
532
539
541
543
549
542
540
537
532
536
532
539
545
538
537
533
528
533
545
553
548
543
546
546
543
538
544
546
546
548
544
540
540
544
551
559
566
570
573
567
564
561
565
572
571
570
569
564
551
538
544
552
556
561
558
557
561
561
559
552
558
569
578
581
578
575
575
572
575
571
564
567
579
590
591
597
598
599
597
587
576
572
574
579
589
594
585
584
588
594
595
600
600
593
586
580
577
579
582
583
588
594
588
581
577
577
578
576
573
572
567
566
564
561
561
574
578
573
568
563
559
558
544
535
535
534
523
509
509
512
517
522
517
511
508
503
508
516
503
492
492
493
491
489
491
500
502
497
485
472
463
459
453
454
461
471
475
478
472
459
445
442
436
431
416
420
430
433
437
442
434
422
422
418
422
422
410
406
405
406
409
410
413
406
402
408
414
412
409
406
412
421
426
416
400
382
390
394
391
393
404
407
403
394
383
385
382
380
379
377
377
380
383
385
387
393
399
408
405
407
412
418
415
404
399
397
393
399
403
405
410
413
405
398
400
409
411
408
408
415
422
418
410
407
408
407
412
425
436
430
428
438
447
443
442
435
434
445
451
456
461
465
458
451
451
460
462
456
451
450
448
443
440
444
446
448
455
457
461
471
475
467
455
453
453
456
460
471
473
471
466
464
469
467
475
480
480
478
471
460
456
459
455
454
459
463
472
485
489
483
483
480
484
480
480
476
471
470
466
463
468
480
486
488
487
482
485
482
474
474
482
489
485
482
474
477
487
503
510
514
503
490
486
484
481
477
475
481
484
478
475
482
483
483
487
485
476
470
473
480
484
491
489
486
486
490
492
490
478
470
476
486
498
504
492
477
474
475
480
474
467
471
473
479
480
479
470
466
466
480
496
493
490
492
486
479
469
466
469
473
471
474
474
472
468
478
481
485
489
487
478
473
472
479
485
485
480
474
469
469
470
471
476
485
490
495
500
498
497
488
476
468
466
464
466
465
471
484
493
498
499
494
493
496
498
492
490
481
481
481
473
475
478
477
475
484
493
490
476
468
471
479
481
480
485
488
496
499
490
483
486
484
483
473
475
480
480
479
485
489
486
479
481
485
487
483
488
494
488
484
486
495
498
500
498
486
481
478
481
484
484
481
483
478
477
477
480
485
485
489
482
480
482
482
484
488
488
492
493
495
499
504
508
501
491
492
495
493
485
480
481
484
483
481
478
483
487
483
478
484
491
492
501
511
510
507
505
512
517
515
500
479
461
454
457
465
466
466
473
479
487
494
496
490
480
481
485
496
500
494
488
491
494
495
491
487
490
496
502
501
489
490
488
483
485
494
496
499
503
510
505
499
504
512
510
500
493
499
501
504
501
500
506
511
503
502
495
493
489
495
499
498
492
481
483
491
496
494
499
501
505
511
514
516
515
515
525
536
539
545
553
562
563
560
557
559
559
560
563
563
562
556
553
531
515
515
516
512
505
504
510
515
516
516
513
517
525
531
522
521
522
521
514
502
486
477
473
473
471
468
470
473
475
473
471
472
474
474
467
462
469
467
462
461
454
459
473
478
482
490
495
495
483
478
483
477
471
476
467
458
462
473
482
484
461
445
449
464
467
468
469
456
455
457
457
464
463
461
459
456
459
465
471
473
469
467
461
464
472
480
494
497
485
478
471
471
477
477
472
468
474
472
464
460
459
461
462
466
471
474
476
479
478
473
479
487
487
490
488
479
473
475
477
480
490
493
488
480
478
473
469
476
483
482
481
485
498
504
508
521
540
559
582
606
626
644
670
694
723
760
796
824
850
863
872
879
896
898
890
885
884
884
893
899
886
855
814
746
659
571
478
389
321
245
180
129
101
90
84
80
76
86
103
115
129
147
169
188
205
225
254
284
311
332
348
358
367
368
376
388
401
407
401
405
421
430
437
449
463
478
488
492
492
492
493
498
509
511
512
512
510
510
508
508
513
524
527
521
518
520
515
499
497
493
500
511
510
506
511
518
524
529
532
521
510
512
512
512
511
520
534
533
536
545
541
539
536
534
536
542
534
527
522
526
532
541
548
536
532
524
519
524
534
534
539
541
541
551
551
540
536
532
528
521
522
526
522
526
536
539
542
544
549
546
541
532
536
542
546
547
551
562
568
563
551
521
516
530
543
555
562
568
564
545
542
548
552
546
537
542
560
570
572
569
569
570
579
584
586
581
580
578
566
552
557
565
561
563
556
547
554
559
567
571
554
553
559
567
572
571
580
577
576
580
587
592
594
600
595
589
577
570
573
578
578
582
596
601
606
616
607
600
596
593
588
579
576
573
571
571
584
590
587
582
579
581
579
577
572
564
551
548
544
536
543
557
566
569
559
546
535
523
528
534
534
535
542
542
532
527
521
510
492
487
493
491
485
483
489
490
493
491
489
485
479
477
472
468
467
468
464
454
439
434
449
452
457
458
448
439
438
445
438
433
430
430
422
403
408
415
424
420
414
405
400
402
407
409
407
400
396
399
396
396
395
395
392
392
389
383
389
391
389
389
387
392
397
398
390
387
388
387
384
387
385
390
392
389
387
379
367
369
377
377
379
389
398
403
405
410
412
414
415
413
406
398
409
412
407
402
405
407
405
403
405
408
416
420
422
429
430
430
442
448
446
440
442
446
445
443
439
432
433
434
441
453
460
459
446
438
440
450
451
448
439
433
430
426
430
438
444
456
462
467
465
453
448
445
443
443
448
450
454
467
476
479
480
467
464
466
473
475
473
478
473
479
480
479
476
475
469
459
449
445
441
437
450
465
475
488
494
496
494
493
474
466
471
479
486
490
484
489
494
491
480
471
467
465
476
484
484
475
474
485
494
496
491
489
481
471
472
474
470
477
485
484
490
490
485
484
476
467
473
475
469
464
470
472
478
478
484
486
486
487
487
477
469
469
473
474
478
476
474
473
476
474
469
464
464
466
467
475
487
491
490
485
475
477
478
475
475
477
483
487
481
474
460
458
467
474
478
474
477
478
482
488
491
490
494
499
502
499
497
500
494
485
481
474
472
477
467
473
478
478
480
481
475
466
468
476
478
472
474
481
483
481
489
493
488
484
484
483
470
471
476
471
471
470
476
482
480
484
487
490
491
483
486
490
496
500
505
501
508
502
494
490
491
484
478
472
468
463
469
473
474
481
489
501
506
502
496
501
495
486
476
474
482
487
484
483
484
486
485
484
484
489
496
492
495
495
501
505
508
519
522
511
501
496
498
503
494
481
475
469
471
480
484
483
492
506
509
501
490
485
479
484
490
495
497
499
503
509
509
499
478
468
465
465
473
477
479
489
488
489
488
494
492
488
492
494
498
496
492
493
496
485
479
483
487
492
495
499
505
512
518
517
523
534
538
538
544
558
568
580
577
571
553
531
517
509
511
515
518
523
525
529
529
527
532
544
542
536
533
532
538
539
534
531
518
504
490
481
478
479
477
467
464
459
461
467
468
474
476
476
475
481
481
476
480
477
464
453
450
449
457
462
458
457
458
456
451
452
458
453
451
459
463
466
475
475
473
477
479
479
472
472
476
474
466
470
472
465
462
455
446
438
437
447
448
454
468
476
469
455
453
461
466
462
465
467
470
472
461
464
475
480
479
476
483
485
483
484
488
494
495
489
484
481
484
491
494
488
486
486
472
460
456
458
461
464
468
471
477
481
471
460
453
456
464
469
475
483
494
501
505
514
523
530
544
564
582
598
625
661
692
715
727
743
765
786
805
833
852
856
859
863
867
861
849
832
818
809
809
800
766
703
621
547
469
398
327
252
185
123
87
73
68
58
55
64
77
90
116
146
166
177
193
215
235
252
273
299
322
336
355
370
382
392
407
417
430
441
446
449
454
461
471
483
498
500
507
514
511
508
507
503
506
509
512
511
519
528
522
514
515
519
520
526
532
533
538
543
538
541
537
529
529
535
533
530
535
542
550
550
547
549
548
545
540
531
523
517
527
540
539
532
528
535
544
544
543
544
547
558
566
561
550
533
523
526
525
525
518
513
509
513
531
553
570
574
576
582
581
577
567
550
543
543
539
532
525
524
529
537
546
555
555
551
543
540
549
560
572
570
569
569
563
560
557
557
558
552
543
544
546
542
545
552
559
567
570
573
579
569
568
568
573
580
586
588
580
571
574
575
572
570
579
587
594
594
598
599
584
575
576
582
591
598
596
593
588
587
589
593
597
597
597
604
605
597
595
590
585
589
593
597
604
606
603
593
592
596
597
598
596
591
586
587
588
590
591
581
576
578
575
576
572
569
564
557
552
551
556
557
551
546
540
544
548
541
535
528
524
531
533
523
513
513
513
513
513
511
512
512
506
498
494
492
489
485
487
492
495
495
495
483
472
471
464
456
456
462
473
476
463
442
433
429
426
431
436
435
435
428
424
422
420
422
423
419
409
409
411
418
418
408
410
409
404
401
397
387
386
389
390
383
385
391
398
399
396
397
393
392
387
392
392
384
391
402
403
395
388
393
395
397
391
391
393
394
396
400
404
407
408
406
402
401
395
392
397
399
407
418
426
425
413
421
424
427
424
423
421
424
428
433
437
437
438
432
431
430
427
425
428
435
442
444
442
441
440
438
436
442
458
464
465
463
463
471
474
467
454
447
442
437
439
448
454
463
472
476
480
484
478
470
456
451
452
451
452
454
462
470
473
471
467
469
471
469
462
464
466
468
473
488
495
501
504
507
497
482
476
476
482
487
492
490
489
491
489
485
481
476
471
466
471
478
482
479
477
474
479
486
481
481
489
489
484
477
475
485
485
481
470
470
472
477
478
484
488
486
486
481
476
473
477
480
484
486
485
481
475
480
489
497
505
514
517
513
511
496
480
469
467
468
478
481
476
471
470
471
471
474
482
485
480
487
498
494
484
481
471
458
458
465
470
465
466
472
476
479
481
484
488
488
484
486
492
496
498
492
488
480
476
461
467
475
469
471
476
484
487
490
493
489
484
484
489
497
495
494
489
491
485
478
478
485
488
488
479
479
485
487
483
480
475
473
471
466
470
472
476
480
488
495
502
501
498
495
491
486
488
490
492
499
500
485
483
483
482
482
483
480
481
483
487
493
494
486
483
482
482
484
486
492
496
500
504
516
515
501
486
488
494
487
480
483
477
478
486
485
478
484
495
498
491
477
478
485
487
481
474
470
471
476
481
482
487
490
494
497
497
491
490
484
482
490
507
510
510
514
511
500
498
501
500
504
506
501
502
504
495
491
495
499
493
491
491
490
492
496
501
505
508
508
510
509
501
497
495
492
495
508
512
510
499
495
500
508
514
517
509
507
507
515
515
520
525
531
533
539
545
553
542
532
537
545
551
555
556
552
549
546
539
528
519
510
506
511
514
513
513
511
505
509
511
511
504
505
512
513
502
499
505
500
489
486
488
496
492
492
491
497
497
495
504
499
492
486
480
468
454
444
447
452
458
467
468
462
456
466
476
469
468
471
475
469
460
463
468
472
472
473
473
473
478
476
470
464
459
456
458
466
470
466
467
469
479
487
487
492
494
487
479
478
474
470
473
478
480
480
480
479
485
479
471
467
479
484
483
483
485
491
493
487
480
480
481
483
476
472
475
482
480
480
481
493
493
488
483
480
485
488
490
489
489
491
488
475
464
462
470
476
480
488
499
518
532
543
540
546
568
598
626
649
675
702
741
777
805
833
848
852
855
862
860
867
877
883
882
894
893
885
861
824
772
697
614
543
471
393
321
259
207
170
147
137
112
84
69
78
101
129
151
172
191
212
234
255
278
302
324
345
357
368
375
379
398
406
414
418
421
427
437
449
461
460
458
452
464
481
493
505
508
505
505
505
503
507
519
521
523
522
513
509
506
507
508
514
513
502
499
509
512
518
521
526
535
546
549
547
540
537
538
538
520
513
509
509
512
512
509
515
528
529
526
527
524
526
532
533
535
529
531
541
537
533
528
529
531
533
531
533
541
546
541
539
544
538
533
537
537
536
538
532
530
536
542
547
556
558
562
554
549
549
553
557
555
548
546
546
540
534
533
535
539
539
535
535
541
546
541
534
541
547
551
555
559
563
569
573
571
567
571
568
563
564
568
575
573
571
575
578
581
576
578
581
581
582
578
569
567
567
570
577
583
577
575
577
580
578
583
585
585
583
585
572
562
580
602
612
612
606
603
611
606
602
593
586
583
584
582
579
584
579
569
560
565
569
572
572
571
564
561
560
564
563
557
555
556
559
567
577
571
562
556
558
561
562
553
546
535
525
519
517
520
520
518
518
518
519
517
512
506
499
503
502
495
493
497
497
492
487
484
484
477
473
467
463
462
458
455
460
465
465
469
461
446
436
418
410
410
415
427
433
425
418
414
411
413
420
420
417
413
408
398
398
407
406
395
391
391
395
394
400
409
409
399
393
385
385
393
399
402
407
403
404
400
392
385
382
381
386
390
390
382
382
385
395
402
400
398
398
404
405
410
416
422
421
408
402
407
410
406
404
404
405
396
389
402
411
417
421
417
412
413
417
421
419
420
429
433
436
441
437
430
429
434
434
425
426
430
432
436
432
430
432
433
438
441
446
443
441
448
451
458
464
462
457
453
446
436
435
448
456
462
469
479
478
473
457
449
451
457
466
472
477
482
484
478
467
464
474
487
489
492
493
508
504
502
484
466
466
467
467
466
472
480
481
485
486
489
491
484
486
483
477
469
463
473
474
480
486
485
487
487
496
496
492
487
478
476
472
468
461
462
468
473
465
464
466
469
479
490
491
490
489
483
476
474
480
480
480
481
474
472
469
471
474
475
477
478
487
498
504
500
492
488
483
476
477
477
477
485
491
485
477
479
489
493
500
497
498
487
481
475
471
474
478
483
488
493
491
496
502
503
501
499
496
490
495
491
481
487
499
503
497
495
497
492
488
482
479
484
486
480
477
485
487
490
489
482
485
500
500
500
494
482
476
475
480
488
494
495
495
496
497
502
499
492
496
500
493
484
486
496
505
507
504
496
491
481
471
466
468
473
478
481
481
483
487
491
486
480
481
488
492
494
495
486
482
476
474
481
483
492
493
488
491
492
495
501
502
500
502
501
503
508
506
493
486
486
491
495
497
494
492
491
491
496
495
489
481
478
487
479
470
473
474
477
482
483
487
500
508
514
503
510
516
508
492
484
483
480
476
473
483
497
503
499
503
500
498
506
512
509
507
506
500
497
496
500
507
504
497
489
485
491
494
500
505
504
506
507
503
503
508
512
520
523
526
527
534
537
535
538
534
534
536
537
547
549
545
550
554
551
541
537
533
531
532
533
523
509
504
503
504
507
509
509
507
505
506
509
506
501
496
491
492
493
498
498
493
487
482
473
460
454
452
457
457
460
460
460
464
464
469
469
468
469
472
464
464
474
477
481
487
493
499
489
475
464
459
461
464
462
462
464
463
455
462
469
464
461
455
462
465
474
467
459
459
464
464
456
449
461
471
474
460
453
454
456
458
463
472
475
477
473
472
470
462
459
454
454
465
470
466
470
471
469
463
462
471
474
476
478
478
477
470
469
478
492
494
493
487
480
475
468
464
461
454
445
453
453
459
471
482
493
500
509
506
523
548
552
563
592
629
661
680
698
724
744
761
790
826
859
873
874
877
889
897
903
903
899
910
911
894
863
827
781
708
612
533
459
388
321
252
190
150
129
110
95
82
87
101
118
136
147
171
192
210
237
252
262
283
314
327
332
346
358
371
383
394
402
402
407
410
413
428
443
457
461
468
476
482
483
476
468
476
495
507
505
504
507
503
501
505
504
507
512
513
510
506
506
512
507
496
498
505
511
523
529
532
526
524
522
524
524
513
512
530
534
531
522
512
515
519
520
524
521
526
529
532
533
532
532
540
542
536
532
537
528
521
532
539
540
536
543
550
546
544
539
537
548
549
545
540
537
532
531
531
528
519
512
511
517
522
527
529
538
546
548
550
558
562
562
554
553
547
535
532
531
531
532
531
533
536
548
556
559
562
563
568
571
573
573
570
557
555
565
567
571
574
583
589
586
581
573
570
572
575
569
574
575
571
571
565
567
573
573
577
577
572
588
598
603
603
603
607
597
590
590
595
607
612
601
597
599
594
591
586
580
581
593
598
587
583
591
602
600
593
586
584
584
586
583
577
559
555
563
563
560
551
550
551
553
552
548
542
538
534
547
555
551
552
551
543
545
548
546
537
529
525
525
513
504
500
503
504
502
499
493
493
495
491
482
474
469
477
481
476
473
473
469
459
450
452
455
457
445
438
430
422
418
422
422
421
424
418
409
404
401
405
404
394
383
387
401
405
399
395
397
397
390
389
384
374
375
387
392
392
394
403
395
400
398
396
399
403
396
383
373
379
381
386
389
386
386
385
380
378
377
374
375
379
376
384
392
407
418
414
411
408
397
387
388
391
389
376
383
398
401
407
413
415
414
415
417
420
417
409
410
420
425
430
436
432
429
438
446
448
440
430
431
438
432
438
431
424
427
434
441
437
437
446
453
452
458
463
460
455
447
438
441
452
449
448
454
454
461
464
456
456
456
456
465
471
475
473
470
469
475
464
453
454
456
460
476
477
470
463
471
479
478
482
480
470
476
484
487
480
471
465
465
466
477
473
473
478
475
473
477
483
485
480
474
472
468
474
475
471
475
477
479
476
475
483
495
494
493
494
497
503
499
493
500
498
491
482
477
485
489
483
486
487
487
485
486
487
475
476
475
474
478
483
490
489
483
476
464
460
465
468
462
461
468
473
474
479
474
467
467
470
477
484
486
485
479
479
484
485
484
482
478
469
471
479
485
483
486
485
480
485
492
500
497
492
486
480
482
481
473
466
469
476
481
491
492
486
485
487
480
479
480
481
483
482
474
470
474
475
475
483
480
482
482
488
489
485
502
512
513
512
510
510
509
500
487
480
474
474
473
471
476
479
474
474
477
471
466
477
477
480
493
495
497
491
486
488
484
486
487
494
504
505
499
491
484
466
459
466
470
478
485
485
493
493
487
481
481
481
481
488
488
485
484
486
486
491
492
490
489
491
493
504
509
507
504
493
484
487
492
505
511
514
504
502
505
507
511
506
493
485
482
477
474
484
487
498
504
507
496
492
497
503
516
517
527
536
544
545
546
546
545
543
545
548
550
545
546
543
542
535
523
524
532
537
536
539
533
511
502
501
509
509
505
503
498
498
493
490
485
478
485
483
473
467
468
474
477
476
469
472
473
468
469
461
454
454
460
458
459
465
471
469
461
456
455
457
460
466
465
469
468
477
474
469
467
469
474
477
474
467
458
450
451
452
450
442
448
449
455
458
460
468
478
471
465
463
469
461
456
462
466
472
476
478
471
472
480
478
473
466
471
473
471
471
475
471
463
460
459
464
466
471
478
481
482
480
482
480
488
489
472
463
460
456
452
451
456
458
468
471
470
468
460
452
447
453
465
470
469
480
489
491
508
522
530
538
552
573
600
624
643
674
696
727
756
783
804
826
859
876
877
875
878
875
867
860
856
850
852
847
818
765
693
612
527
439
360
276
203
131
83
67
77
87
93
84
73
73
79
103
131
151
178
204
217
236
258
285
309
327
350
375
392
397
397
403
412
421
427
434
446
449
462
469
472
479
483
488
493
503
511
509
515
523
529
535
524
512
509
513
521
519
513
515
524
525
524
514
511
513
519
520
525
524
522
520
515
517
524
532
538
541
542
536
527
525
530
532
534
546
548
543
540
531
522
521
521
530
534
536
538
541
537
541
545
541
546
553
544
539
540
543
546
540
544
544
545
538
529
529
533
542
543
533
528
538
543
542
536
532
543
549
551
545
542
544
546
547
546
543
544
550
552
553
556
566
570
569
567
576
584
581
572
567
551
532
536
549
563
570
573
583
599
602
590
582
581
571
563
558
548
544
554
566
578
584
583
576
575
576
578
585
589
590
590
588
587
588
586
580
584
586
581
584
585
591
603
611
617
622
618
607
599
597
590
587
592
597
599
602
597
587
586
596
599
594
584
573
563
559
557
559
570
568
564
563
564
564
562
566
566
557
543
547
556
564
564
558
554
548
548
556
548
541
534
532
529
527
527
510
499
499
498
493
480
472
472
463
462
464
470
473
471
468
458
455
449
446
443
442
444
443
449
452
453
438
427
426
425
430
438
436
427
415
406
404
398
394
398
396
390
387
397
393
390
391
387
384
382
380
383
384
390
393
393
391
399
400
389
384
379
379
379
382
386
389
389
386
391
397
400
398
403
400
389
386
388
387
381
381
386
396
402
402
410
415
412
422
419
411
404
401
403
407
410
407
398
399
408
416
412
411
410
406
413
420
432
439
438
429
423
427
434
443
448
442
446
447
438
438
438
441
438
442
443
451
463
463
451
450
448
447
451
455
454
453
453
455
453
447
440
448
453
447
453
458
462
467
467
468
467
465
465
474
483
483
480
483
479
471
462
455
454
457
467
478
485
490
483
473
466
466
472
482
487
483
475
468
466
467
477
484
483
475
479
484
489
497
499
495
479
473
469
461
455
462
475
486
484
479
487
491
489
488
486
488
491
482
482
481
475
467
465
465
466
472
474
477
470
469
469
472
478
475
469
468
477
485
478
474
476
483
485
483
472
462
457
460
465
478
478
475
480
479
476
467
475
477
477
476
476
482
485
474
469
470
469
463
462
466
469
476
481
484
487
484
483
486
491
479
462
465
473
482
488
485
483
481
478
482
486
490
485
486
484
475
472
475
490
503
508
502
487
476
463
456
459
465
477
480
475
475
478
480
480
489
497
489
482
490
503
503
493
484
491
485
482
477
480
490
502
501
498
484
483
482
484
486
492
488
488
486
486
484
480
476
479
485
486
487
486
494
503
511
510
501
502
506
509
504
491
500
507
511
512
516
523
528
530
533
536
530
531
539
549
540
533
531
532
538
541
544
545
549
554
550
553
543
535
527
520
519
516
507
500
495
495
488
476
472
473
477
479
473
472
472
480
482
480
471
469
474
482
489
485
476
479
485
477
471
461
453
461
476
475
471
473
483
485
471
463
471
475
473
468
460
454
457
458
460
458
457
464
472
475
481
483
485
486
484
469
458
461
466
467
463
463
470
478
476
474
471
472
465
457
455
462
468
473
468
474
479
477
475
479
478
476
477
474
465
459
464
476
481
475
467
466
469
473
479
482
480
483
490
494
492
489
491
490
469
460
467
473
463
457
456
468
476
483
485
496
504
509
519
525
530
544
563
581
594
606
618
641
668
691
718
749
782
811
837
858
871
875
887
889
895
892
870
849
842
843
827
803
762
698
623
539
461
391
309
238
180
128
103
93
86
77
75
84
104
121
139
154
174
195
217
243
276
305
320
341
358
373
389
399
407
413
415
425
426
418
417
425
440
453
464
474
488
498
508
513
510
517
521
516
506
504
506
508
510
510
507
508
514
519
523
533
537
538
535
543
547
542
539
540
542
536
534
531
521
515
524
531
542
550
544
533
524
529
534
541
549
548
545
548
551
541
530
531
538
547
552
552
551
548
541
537
538
543
548
540
535
538
549
551
544
546
551
556
551
548
552
558
558
558
555
555
545
551
561
560
557
556
561
554
555
555
547
555
566
568
576
576
568
554
550
549
555
553
552
553
555
553
554
558
551
551
565
575
582
589
592
592
595
588
583
581
575
565
553
558
569
578
586
585
581
581
583
578
573
575
580
588
590
585
585
584
582
589
581
585
588
585
581
589
597
602
606
615
623
630
627
617
611
609
609
609
611
613
614
612
606
592
589
593
602
603
589
577
585
591
588
581
584
598
607
595
582
570
562
560
561
566
566
562
555
548
552
556
556
553
550
544
544
535
524
524
526
517
514
510
505
506
499
497
498
502
501
489
471
470
478
476
471
465
458
452
455
454
451
451
448
441
437
442
446
452
455
445
441
432
427
424
427
423
403
387
388
398
403
407
409
412
411
410
416
425
432
423
407
394
399
406
400
398
387
384
382
384
386
389
395
404
408
413
415
422
425
422
413
401
386
382
394
404
402
399
402
408
408
413
409
400
399
397
399
398
396
398
409
415
409
417
430
435
430
416
401
400
405
409
411
408
411
414
416
419
426
432
435
435
437
437
441
437
436
433
430
432
439
445
456
460
452
453
449
442
445
445
436
432
438
449
463
470
471
475
473
466
461
452
454
456
460
464
462
458
459
470
480
484
483
482
483
484
483
480
463
459
465
478
484
483
486
486
483
482
478
477
482
491
492
494
493
491
498
496
495
496
498
502
509
510
508
501
494
483
471
471
473
476
481
489
494
495
496
498
496
497
500
500
501
503
495
492
497
503
510
505
490
493
498
497
493
491
489
486
483
490
501
503
504
506
505
496
481
482
479
479
485
492
492
488
484
482
476
476
481
482
480
482
485
485
480
476
478
485
491
496
496
497
500
504
504
493
491
492
488
481
478
477
473
478
496
494
492
494
497
492
494
498
501
506
503
498
483
478
478
485
490
486
484
486
495
498
496
494
493
492
490
484
485
489
493
492
492
490
485
491
493
501
509
503
504
510
517
519
511
511
502
490
490
491
495
490
479
478
481
482
492
496
498
497
503
509
498
484
485
493
501
502
496
485
482
487
491
493
497
495
487
487
490
495
497
504
510
509
510
512
508
498
494
504
512
516
508
497
493
499
508
510
519
518
515
519
511
504
496
491
489
494
501
497
491
483
482
487
496
499
504
505
506
509
511
519
524
520
508
500
494
491
493
492
492
494
488
486
491
497
499
493
486
478
475
487
501
509
514
517
522
530
532
539
548
552
557
560
562
559
562
559
548
550
555
561
559
555
543
545
544
536
530
529
536
537
531
524
518
522
526
534
540
547
544
529
513
507
512
505
495
482
475
476
477
476
481
478
469
461
465
473
478
484
485
482
476
471
466
466
472
476
477
479
483
481
479
474
470
468
468
470
472
481
484
484
481
476
476
468
472
474
476
473
474
477
479
478
477
487
492
495
501
504
501
492
488
484
476
477
482
472
468
466
468
469
466
460
461
465
469
465
468
485
497
488
474
472
468
464
473
476
472
472
479
487
488
488
489
487
486
487
485
484
485
480
479
476
481
489
492
494
499
494
489
486
479
472
470
477
490
493
500
515
532
547
561
563
566
579
603
629
656
685
713
743
773
808
837
861
875
889
895
894
894
898
888
876
882
896
900
888
856
810
740
659
584
508
436
376
314
258
205
168
143
124
94
88
95
115
138
163
178
188
201
228
253
274
299
322
340
362
366
371
381
392
401
406
403
408
422
436
447
442
457
473
478
481
485
480
489
496
502
504
504
505
508
499
502
508
510
508
506
506
504
508
519
527
524
516
510
508
521
528
539
547
543
540
534
525
521
522
513
503
504
510
512
519
527
532
535
535
534
534
538
544
547
547
541
540
542
544
542
538
542
543
539
535
533
525
520
518
531
545
560
565
561
557
538
520
514
523
529
529
532
541
542
540
544
547
552
561
567
568
566
559
563
569
567
568
563
553
559
562
555
551
552
550
546
550
557
566
569
567
564
557
555
558
554
553
564
571
569
572
572
569
566
566
565
570
575
573
573
573
589
591
583
582
586
588
590
585
578
582
585
590
596
600
599
589
581
576
581
584
586
589
595
608
621
615
615
609
606
605
605
597
578
574
579
584
588
590
597
597
596
592
591
590
592
599
597
588
582
578
582
582
581
581
576
578
575
566
560
555
563
569
568
570
563
561
564
552
544
545
549
550
541
528
522
520
518
516
512
508
501
495
488
483
480
479
479
477
470
466
465
466
469
469
469
470
464
454
444
444
445
444
449
446
438
433
434
436
431
434
429
422
413
408
405
401
398
393
396
403
408
409
411
419
417
403
399
398
401
408
410
407
408
408
407
406
403
389
371
367
372
378
387
385
389
393
391
395
395
392
395
401
400
400
395
392
394
395
398
407
409
406
403
400
400
406
409
406
409
415
420
421
419
418
412
407
408
424
434
438
440
440
441
440
434
425
421
413
405
406
407
411
424
435
443
446
441
433
432
439
445
445
445
443
444
446
448
458
463
465
465
461
462
462
459
459
463
462
453
443
442
450
453
454
458
458
466
468
469
475
479
477
477
475
472
466
466
473
471
473
476
473
476
470
459
450
454
469
483
484
482
489
489
482
474
476
480
482
484
492
496
494
487
475
472
480
489
488
483
486
497
497
496
486
483
483
483
491
496
499
498
492
497
502
501
493
490
486
484
487
478
472
471
473
478
476
478
482
488
496
507
513
509
492
480
482
488
487
479
478
485
489
490
496
499
500
498
493
482
474
473
479
480
482
485
483
484
483
480
478
493
500
502
502
498
491
489
475
471
473
467
464
470
473
477
482
485
492
493
491
492
497
496
496
492
488
483
477
478
482
487
489
492
480
471
469
478
479
479
483
489
485
487
495
502
509
505
496
495
501
510
517
506
496
483
469
461
468
477
486
483
477
468
466
473
480
488
495
495
503
500
500
496
496
495
487
485
483
486
492
490
487
479
471
470
479
486
487
486
488
489
486
485
484
489
492
491
490
495
501
502
496
491
490
491
486
484
482
484
481
483
486
484
477
476
475
473
483
496
503
501
500
497
500
505
501
494
498
484
472
463
464
473
494
506
510
501
490
492
494
483
477
478
474
475
475
480
488
497
495
489
496
510
516
505
481
476
474
471
474
492
506
510
504
501
504
510
510
504
501
500
494
484
479
483
489
488
487
489
492
496
503
512
514
519
515
514
520
528
530
528
526
525
522
519
521
525
530
542
548
549
544
540
536
533
532
530
529
522
517
509
504
500
491
488
494
501
507
516
523
517
508
500
494
484
476
477
477
473
472
478
478
479
485
485
474
470
469
464
452
442
444
456
455
458
459
462
465
465
472
476
465
463
462
469
471
478
474
467
474
476
472
467
457
447
443
455
460
454
448
442
444
457
466
474
480
484
489
472
453
450
450
444
447
457
459
454
448
443
443
451
465
477
480
472
471
474
471
467
467
469
467
476
481
483
481
477
476
477
472
469
468
471
470
464
465
472
478
469
464
470
474
472
461
451
449
461
480
479
475
479
484
482
476
477
476
471
471
466
470
477
489
502
523
540
568
601
633
661
688
707
740
777
812
829
854
871
884
891
909
922
923
909
897
886
887
881
868
845
818
763
674
589
514
446
385
318
256
200
153
121
111
101
88
93
103
113
132
156
170
189
210
222
236
260
291
321
346
371
380
389
391
393
391
391
398
409
421
429
429
435
451
474
483
486
497
506
521
520
513
504
502
505
503
503
500
493
487
492
499
504
506
513
512
515
519
517
517
520
516
509
510
521
521
522
540
543
538
536
530
531
534
530
511
504
508
519
518
523
525
526
530
536
531
534
532
524
522
528
526
530
531
534
543
549
547
543
544
550
556
547
541
534
534
538
531
528
527
532
528
525
529
532
540
548
550
545
533
526
529
536
533
532
536
543
547
547
547
554
561
561
555
543
549
554
542
547
549
551
560
565
568
561
550
543
541
544
552
556
556
557
556
557
563
571
573
573
576
572
573
568
571
582
592
589
580
571
569
574
579
585
582
573
581
585
584
593
608
612
602
601
602
600
601
591
595
597
598
593
583
584
592
588
583
575
578
577
581
583
576
577
577
579
585
582
579
579
577
581
585
595
584
577
576
576
570
558
552
546
548
555
559
555
548
532
524
525
526
521
519
520
523
522
519
511
512
511
514
510
504
499
499
498
494
487
484
484
489
488
486
485
479
470
453
440
442
436
444
447
446
451
452
464
469
459
437
421
410
409
413
411
404
407
417
419
412
408
400
392
397
401
389
396
394
392
396
396
395
390
390
399
403
396
391
382
388
387
387
387
394
395
397
398
394
382
378
378
381
388
385
388
381
373
375
383
382
388
402
410
414
413
409
412
404
392
388
384
387
391
388
377
375
382
389
394
395
406
416
420
427
426
421
422
425
428
424
428
435
441
436
428
415
408
418
430
427
420
417
419
429
443
448
454
449
444
439
441
448
454
455
447
453
463
454
446
449
455
445
444
440
439
441
446
455
457
455
456
458
464
463
465
465
475
490
491
487
480
468
460
457
456
454
451
454
458
460
467
471
471
469
464
464
464
463
468
472
471
469
472
479
481
481
481
485
484
485
484
482
479
472
469
465
466
469
470
466
462
464
464
473
483
491
498
500
506
508
509
502
487
478
473
472
470
471
473
466
464
463
471
472
462
461
466
472
468
462
467
473
481
483
482
480
475
480
488
484
479
479
485
487
479
463
454
461
471
476
474
481
470
451
455
466
477
485
485
484
481
481
478
478
479
470
468
473
475
477
472
473
487
492
490
484
485
478
481
481
485
485
478
473
472
472
479
480
480
493
490
485
488
491
486
469
467
470
466
465
474
483
494
495
486
488
484
479
476
475
480
480
474
467
470
468
471
475
473
486
496
500
517
529
537
526
508
491
480
475
483
496
485
480
486
491
493
487
481
478
479
475
477
488
487
486
475
468
470
473
472
472
485
498
494
488
490
497
498
486
474
478
480
480
475
468
469
473
477
471
465
470
470
472
474
480
477
486
497
497
500
501
502
503
496
496
490
489
493
503
507
504
507
501
496
493
489
497
498
498
491
482
483
481
471
471
474
480
489
496
498
496
497
503
509
503
494
496
495
487
492
502
516
518
510
507
513
514
501
499
508
507
504
507
512
516
527
532
538
535
549
559
556
551
545
544
534
529
527
522
519
522
523
532
530
516
508
505
505
515
516
510
503
495
487
476
468
470
477
482
474
476
475
467
462
460
467
472
470
472
480
483
474
470
465
461
464
465
463
457
454
450
445
442
445
456
468
470
470
475
474
473
468
466
471
472
469
469
472
470
461
452
454
463
465
471
475
480
480
476
466
452
448
458
462
460
458
461
474
485
486
480
479
486
486
473
465
461
461
464
462
463
467
472
476
476
477
481
482
479
468
470
474
478
485
484
481
483
488
491
484
479
479
480
482
486
477
473
471
471
467
452
447
450
457
465
471
480
496
518
530
532
537
549
565
571
578
602
632
653
679
713
746
777
801
828
857
867
866
865
861
857
859
852
845
835
827
814
804
774
712
635
558
475
390
292
206
142
102
86
80
65
54
65
78
91
108
132
154
165
175
199
215
233
261
287
313
336
359
381
401
408
410
412
418
422
423
430
441
449
459
469
478
486
482
480
486
494
495
498
510
515
511
510
513
508
506
511
512
515
522
530
536
538
534
532
532
535
548
554
556
543
529
531
530
525
519
526
527
513
500
502
508
513
518
526
528
525
529
536
541
547
548
542
530
527
527
539
549
552
547
549
545
539
543
547
544
540
538
547
549
550
539
531
522
521
523
532
535
534
536
532
525
526
526
531
531
541
552
553
553
548
545
544
549
554
556
561
562
559
554
547
544
549
553
557
552
548
553
556
552
553
551
549
546
551
557
563
566
556
544
542
557
575
581
577
559
557
567
582
584
586
590
601
595
586
579
576
577
582
586
583
580
579
578
580
588
597
595
592
591
593
587
586
591
594
596
602
601
604
602
604
609
620
624
609
583
562
555
568
575
578
578
580
578
572
567
567
566
568
572
576
576
574
576
575
574
565
557
555
552
546
539
540
543
539
534
534
531
520
516
518
520
522
525
524
527
520
511
517
518
513
505
500
496
495
492
484
475
470
467
463
463
465
471
469
456
447
442
445
442
448
442
436
438
437
432
433
437
425
418
414
416
416
410
413
419
423
424
421
413
404
395
388
382
379
386
388
380
378
384
390
392
385
378
381
386
385
384
386
393
398
403
405
394
391
388
383
385
396
400
396
393
399
407
405
397
391
393
402
400
402
401
399
401
399
403
402
408
411
416
415
421
423
419
428
430
431
427
427
439
439
440
438
427
423
423
422
426
434
435
436
440
434
433
435
441
451
454
452
454
458
458
452
444
442
448
450
447
448
450
458
458
456
461
464
466
467
458
449
454
458
464
470
470
468
463
463
464
459
462
465
463
466
460
462
471
479
480
475
465
465
471
478
483
488
486
480
472
473
472
469
483
495
491
487
481
477
482
488
489
487
490
495
501
501
497
496
484
471
464
462
464
476
477
476
472
473
471
470
474
484
493
492
495
499
503
502
504
505
496
486
474
477
490
495
492
488
487
485
484
476
460
452
457
463
472
473
477
480
481
485
494
486
487
493
492
487
478
477
478
486
486
485
485
477
471
479
478
479
481
469
466
475
484
480
478
484
485
488
488
480
478
475
475
481
485
493
500
502
495
496
486
484
481
484
484
483
486
492
494
497
496
496
498
508
514
508
503
489
483
481
483
480
474
473
476
473
476
482
482
477
472
468
474
487
494
494
493
488
491
489
483
477
476
486
488
487
481
470
467
472
476
479
482
491
499
501
496
499
490
486
484
473
471
485
495
492
490
489
493
504
513
499
490
489
495
507
518
515
503
499
499
495
491
486
477
475
480
486
491
491
494
497
496
501
499
503
506
505
503
493
489
487
483
483
482
484
483
488
490
493
501
510
513
508
509
510
508
504
508
505
505
512
517
518
521
512
488
483
483
469
466
474
489
496
500
501
508
512
520
514
502
503
501
492
486
481
478
479
477
471
472
478
482
487
490
489
485
490
496
505
515
530
538
538
530
533
539
543
538
534
532
531
534
532
534
544
547
551
557
555
541
545
546
542
547
551
549
547
544
540
536
540
546
539
533
521
506
495
488
490
499
499
499
496
489
490
488
489
490
484
482
481
478
470
468
469
475
478
474
479
475
470
476
486
478
477
482
485
481
479
475
474
469
467
474
477
478
480
473
465
465
463
469
467
471
473
473
474
476
473
465
469
473
476
488
486
474
475
477
472
462
455
454
460
470
482
491
490
489
487
486
476
469
473
483
489
491
496
488
491
496
488
477
472
466
468
464
466
467
471
468
466
473
481
487
491
498
499
492
499
509
506
501
494
491
487
480
468
459
460
465
473
478
482
490
494
502
512
535
551
562
559
571
587
610
637
670
699
727
758
787
812
838
861
871
875
882
895
898
887
870
864
875
868
846
819
787
739
658
580
511
445
385
320
256
202
165
143
130
118
105
108
124
144
159
175
196
217
230
252
271
298
324
341
352
369
379
390
404
408
418
415
408
401
405
412
423
435
446
457
466
477
485
497
509
510
508
499
499
499
503
511
516
514
511
505
502
514
539
552
553
539
531
530
530
522
516
508
508
509
512
515
515
508
508
520
522
520
521
525
521
519
522
528
536
541
540
543
561
574
565
550
541
538
540
537
537
533
525
524
518
517
525
535
540
539
536
530
530
531
531
535
532
525
522
527
528
537
549
554
558
562
559
551
546
543
544
543
543
538
526
531
537
541
542
544
551
550
547
552
549
549
554
558
566
572
568
567
573
580
586
583
572
572
574
562
547
551
557
559
560
554
548
547
557
571
572
567
556
555
564
572
578
582
587
584
580
581
583
582
583
588
592
585
579
579
592
595
598
618
633
645
643
648
631
615
588
560
562
578
582
576
570
571
569
572
576
582
582
570
561
557
563
577
586
585
579
575
562
546
544
536
533
535
537
536
532
533
537
541
537
535
536
537
546
549
541
543
537
528
521
514
502
499
504
508
502
497
494
488
485
484
486
487
487
474
459
458
462
462
469
481
482
467
463
465
454
448
445
443
438
433
426
422
422
426
428
434
438
440
436
428
416
407
406
409
410
408
406
407
414
424
434
444
447
436
409
393
390
382
373
377
388
391
392
394
401
402
393
384
386
394
401
401
392
379
379
381
392
403
409
405
394
393
398
400
409
414
407
409
404
404
403
403
398
400
407
403
400
401
403
403
408
408
402
399
401
403
410
418
427
433
435
445
458
472
467
457
452
435
425
422
428
430
429
429
428
424
429
433
432
433
436
444
446
442
443
444
444
442
446
467
478
474
464
467
480
483
479
470
469
468
471
460
454
446
445
455
459
469
473
467
467
469
465
461
461
465
471
475
481
483
481
477
483
483
481
479
483
486
485
482
481
488
488
476
464
470
475
478
484
487
482
483
485
480
476
472
471
475
481
477
478
486
490
496
500
501
500
502
502
497
487
485
485
486
489
486
483
478
475
476
475
475
477
482
490
497
495
492
487
484
487
497
495
488
479
470
469
468
473
481
478
483
494
495
493
497
490
481
478
482
485
493
498
497
500
507
504
500
490
474
454
451
457
456
461
468
468
462
461
464
472
472
472
481
487
493
491
487
488
487
489
491
496
496
489
484
485
485
474
465
470
478
485
490
489
485
485
486
486
494
501
510
508
496
494
500
502
501
489
484
484
490
489
485
489
492
493
496
496
492
482
481
479
476
473
471
473
480
483
482
483
492
500
498
498
490
484
486
493
498
497
496
498
495
485
473
466
470
474
476
477
481
487
487
488
487
491
497
503
498
496
497
493
488
486
486
496
499
501
500
493
490
483
483
478
479
481
481
478
474
479
486
491
500
503
503
499
496
492
489
490
490
483
483
486
483
480
482
483
476
475
473
482
483
490
497
500
498
500
508
510
503
499
500
513
518
503
502
504
501
497
491
485
478
474
475
484
482
489
488
482
479
482
489
494
501
510
516
518
518
512
502
493
484
468
464
470
481
479
483
489
494
496
495
487
482
490
510
517
519
518
518
521
532
528
528
533
540
541
538
538
547
554
557
558
558
554
550
535
528
526
529
526
523
524
522
514
514
518
518
507
501
502
502
506
505
502
500
494
486
484
480
473
472
483
488
480
470
465
463
465
470
470
479
483
479
477
476
474
465
459
460
467
469
471
466
459
458
463
466
470
470
464
460
454
453
453
450
448
450
457
462
468
474
482
480
474
469
463
459
466
467
467
466
460
464
465
459
454
453
460
473
476
481
482
466
453
454
456
457
456
464
469
470
466
465
471
476
476
476
488
491
492
490
499
497
492
484
483
476
474
472
468
468
467
466
466
472
473
465
463
461
453
452
461
466
472
475
471
474
490
508
532
549
570
595
616
639
656
675
689
719
764
793
817
842
867
883
894
900
897
891
885
875
881
892
892
870
836
791
719
635
557
477
407
339
271
204
155
128
120
122
115
107
115
125
128
135
140
150
173
203
235
262
291
320
333
338
351
365
384
400
415
418
410
409
413
421
435
445
450
459
466
477
490
493
489
488
487
494
500
505
491
484
488
497
506
506
513
513
515
512
501
498
505
504
506
510
512
518
523
529
528
521
514
520
529
531
522
517
518
519
522
531
535
531
535
533
526
512
507
514
526
532
526
516
520
528
532
525
523
517
520
527
532
537
542
545
547
546
548
541
538
534
531
531
531
534
539
540
540
545
549
553
557
551
550
547
528
526
524
529
539
535
536
535
534
535
534
530
534
536
540
540
546
548
550
549
552
560
569
571
559
563
562
554
548
545
543
547
551
554
556
562
557
553
563
577
573
567
562
566
572
572
565
563
562
561
567
571
575
576
577
575
569
573
578
578
582
585
582
588
591
593
593
588
586
588
580
574
582
591
586
583
581
583
587
589
595
597
591
593
590
584
579
570
570
575
581
578
572
568
571
573
570
562
553
545
546
550
551
549
545
546
552
555
546
535
526
520
518
519
513
510
514
511
508
503
499
499
503
499
487
484
478
476
470
468
472
476
479
475
462
463
464
461
459
467
468
463
458
446
424
410
415
417
416
413
411
413
415
412
417
421
418
418
425
424
417
423
416
407
405
399
396
389
391
396
400
404
414
404
395
379
364
357
362
371
376
374
371
373
379
385
392
396
393
395
391
388
394
402
405
405
407
411
418
410
393
392
391
389
396
395
395
392
394
403
409
416
422
426
429
419
413
406
412
409
411
413
411
414
420
426
427
423
419
415
413
409
412
418
425
436
451
453
436
427
427
431
435
438
435
431
434
440
447
459
466
459
449
445
445
449
455
457
455
456
453
455
454
458
460
450
456
465
470
459
449
453
465
473
468
466
473
476
475
473
478
477
469
464
469
478
479
475
470
471
479
479
481
484
474
470
470
467
467
470
473
474
474
479
481
479
484
481
468
459
463
471
479
489
497
501
503
499
495
499
496
493
490
490
494
491
482
463
450
459
474
472
461
467
471
474
480
483
473
470
476
484
485
483
475
468
467
467
480
485
473
473
467
464
471
473
468
463
469
476
477
479
486
498
507
510
499
492
488
485
474
462
465
466
475
478
479
481
476
472
474
476
475
477
482
491
492
491
479
474
473
476
481
487
496
501
497
492
489
476
467
471
467
465
470
478
486
483
477
474
480
478
472
464
474
482
473
468
479
496
500
503
501
495
485
478
484
494
499
494
490
495
492
485
484
486
490
490
482
481
475
475
478
481
482
488
486
485
481
476
482
498
509
499
493
501
508
508
490
476
475
476
470
462
471
469
477
482
485
482
489
490
483
479
479
481
483
486
483
486
484
490
489
480
485
490
493
496
489
486
493
502
496
485
479
479
487
483
477
475
479
486
484
491
493
485
485
482
483
487
492
490
489
493
492
486
493
497
501
493
489
489
487
488
490
493
481
476
479
485
488
487
488
490
489
493
503
518
514
499
488
489
496
493
492
480
471
476
479
485
486
489
486
488
489
486
483
485
488
490
491
489
489
487
489
497
506
507
508
513
508
498
490
497
507
507
506
510
514
522
524
520
523
528
530
540
535
536
538
538
540
538
529
525
533
544
544
543
544
541
530
526
524
530
534
534
527
518
515
510
495
489
490
484
480
471
461
462
466
468
464
463
467
466
468
471
468
473
465
460
465
471
480
482
473
461
458
465
467
470
473
475
470
472
469
464
463
464
472
477
483
484
475
467
460
465
469
470
468
464
457
454
458
454
454
462
471
480
479
475
483
485
480
479
468
467
471
467
462
452
447
446
450
459
469
477
481
483
484
480
468
452
449
456
458
453
451
457
474
477
482
480
472
470
475
476
481
482
481
485
485
482
473
469
460
462
471
474
474
479
482
480
476
479
487
490
497
500
511
527
543
566
577
593
610
635
661
699
735
759
786
815
842
855
857
861
859
851
855
855
853
856
847
836
820
796
761
698
622
560
487
408
325
238
157
94
60
62
67
66
65
72
91
111
125
137
145
162
187
215
238
254
275
297
318
341
364
380
386
395
411
416
424
432
431
430
437
443
457
463
472
486
492
495
498
503
506
515
517
519
516
503
494
495
506
523
526
525
529
522
518
520
518
519
513
510
514
526
530
528
526
526
528
530
525
520
530
535
532
531
533
530
527
524
528
529
531
522
520
525
524
524
533
540
540
545
550
549
534
532
536
541
548
544
538
547
547
540
539
538
542
542
535
527
527
535
536
532
535
537
536
535
543
546
542
535
537
544
552
558
557
551
553
550
545
540
538
546
547
555
561
558
556
544
537
537
547
562
572
568
561
559
557
552
549
549
556
556
545
538
538
552
563
567
562
561
563
569
574
579
581
584
582
581
579
574
575
574
573
568
573
585
587
578
578
581
587
594
596
593
589
581
580
586
593
594
594
583
572
581
589
588
572
556
558
564
577
587
586
585
586
588
587
578
571
571
569
562
565
565
561
559
555
558
567
569
570
565
562
565
563
560
560
565
564
563
550
541
523
511
511
514
507
505
507
504
502
495
493
485
486
477
468
469
466
467
468
472
476
468
460
462
469
463
457
452
443
440
442
447
435
429
429
430
434
441
454
460
458
451
446
439
430
423
416
411
401
389
386
381
376
377
377
373
377
385
387
386
386
390
393
397
403
405
404
406
404
399
396
395
388
386
385
387
390
388
391
397
396
391
390
395
401
400
393
392
393
394
394
397
398
408
414
414
407
401
403
402
406
409
412
415
421
418
412
418
435
441
431
416
412
414
422
431
435
433
435
439
441
431
432
440
441
445
451
447
449
447
447
444
441
439
440
446
454
459
459
469
470
456
451
451
452
458
451
445
444
450
457
466
469
466
469
472
477
480
484
481
472
465
453
451
459
466
468
478
482
483
481
473
471
473
473
476
483
488
487
486
481
478
475
468
471
470
471
467
467
481
487
489
491
490
476
471
472
471
474
472
480
491
492
488
487
494
498
496
490
481
471
464
467
469
473
485
487
478
468
464
465
460
456
457
466
472
481
487
484
476
484
493
499
507
500
484
491
495
488
474
460
454
460
466
473
471
460
454
454
462
473
481
484
483
483
481
478
471
476
487
483
465
457
457
461
464
471
481
479
479
482
484
477
474
476
477
484
488
488
485
481
479
476
482
484
482
478
477
481
484
487
489
480
473
477
481
478
473
477
480
479
480
477
478
488
497
499
494
492
495
496
491
488
493
489
481
476
480
485
493
495
489
486
484
488
490
496
501
498
495
497
494
482
472
476
482
489
487
476
469
472
486
491
498
493
484
480
477
474
481
491
495
494
494
490
489
482
479
481
486
492
490
492
491
491
497
494
494
487
480
483
485
497
500
490
492
500
496
487
484
488
496
501
502
505
512
522
521
526
534
537
542
542
538
539
539
534
530
531
534
530
528
530
534
532
528
529
525
516
521
521
519
514
508
509
516
514
506
507
512
521
518
519
517
507
500
493
487
486
490
488
479
476
478
479
479
477
478
465
462
460
462
466
460
447
454
458
456
460
467
479
478
468
468
467
469
478
477
471
467
469
468
460
468
473
471
463
459
465
473
471
471
472
476
484
480
480
476
472
473
473
472
473
485
488
485
471
461
457
464
463
460
459
452
461
468
475
474
475
464
452
461
462
467
475
477
484
489
495
493
490
482
477
475
471
464
462
470
480
485
486
486
485
485
484
482
480
486
484
493
488
479
482
493
512
520
534
551
567
578
594
614
632
652
686
720
746
768
788
811
837
858
867
867
867
865
863
858
849
845
836
826
806
767
704
632
554
474
390
307
242
186
136
92
64
67
75
76
82
95
113
123
136
151
166
190
206
227
253
282
313
338
360
376
390
402
409
413
420
430
441
451
456
460
466
477
481
483
489
500
511
521
529
529
527
529
531
537
527
508
508
514
518
517
517
526
529
525
527
526
528
531
531
531
534
537
539
541
538
541
550
559
560
561
550
548
552
552
557
555
546
537
538
540
535
532
525
531
540
545
548
554
562
563
562
565
566
564
557
550
542
536
543
552
561
561
556
555
551
550
557
558
554
546
539
536
538
554
564
571
576
571
564
558
558
556
549
541
538
538
545
551
557
562
569
579
577
578
579
575
568
567
572
578
578
580
585
588
577
569
570
564
558
561
565
567
569
563
566
573
573
575
580
583
589
593
586
586
589
585
578
577
587
592
590
595
600
595
586
582
580
591
598
603
601
599
601
604
608
612
611
606
601
597
593
592
593
593
595
597
605
602
596
593
602
605
606
593
580
570
567
566
574
580
585
574
570
579
583
584
582
570
561
560
563
563
557
559
560
553
543
531
522
523
530
527
513
519
539
537
525
515
511
505
504
506
505
511
515
512
499
483
477
479
482
483
471
464
462
454
454
448
449
458
464
465
458
448
446
443
437
432
425
421
424
426
420
415
407
403
404
409
417
411
401
409
417
420
419
414
405
401
397
393
388
390
391
391
389
391
398
403
409
407
409
403
393
379
376
379
383
392
395
397
394
394
393
387
384
377
372
382
391
397
404
412
423
426
423
427
429
432
425
416
414
411
410
412
416
413
411
415
421
423
419
418
420
427
430
431
434
437
440
449
449
450
451
443
433
440
445
443
443
442
440
443
443
445
444
443
446
445
449
459
461
456
449
446
450
457
455
454
459
467
472
471
477
491
502
509
512
510
505
505
493
474
468
468
470
475
472
477
472
460
458
469
477
476
475
486
485
483
480
479
479
477
478
483
488
489
492
508
509
501
496
484
475
479
483
479
478
481
476
475
486
498
502
492
472
462
461
472
489
502
517
514
512
491
481
472
479
483
492
497
499
501
500
489
487
484
483
488
492
490
486
478
475
481
486
491
495
495
492
486
479
480
495
494
489
490
492
489
483
484
479
474
469
470
475
479
476
470
469
474
482
487
482
476
478
478
486
494
494
489
492
499
500
502
503
510
513
500
491
489
488
488
488
486
476
479
479
470
469
472
479
483
485
490
494
498
498
496
490
482
483
487
493
496
500
498
496
494
490
486
485
486
489
489
489
487
486
494
504
506
496
487
474
474
477
489
502
500
493
484
479
480
481
483
487
490
486
482
483
486
486
484
483
484
482
481
488
497
506
508
512
512
507
515
524
516
494
481
481
485
484
489
489
497
503
501
496
501
513
520
520
513
512
506
495
484
480
490
501
493
477
469
493
511
519
514
509
501
489
485
491
493
486
486
490
495
502
505
512
524
531
536
544
542
542
542
533
536
542
543
543
541
539
536
536
537
538
539
548
546
544
542
535
526
522
521
524
529
528
520
515
518
520
510
503
501
506
502
505
498
485
482
478
472
471
477
472
464
462
466
479
491
489
493
496
489
481
472
463
451
453
460
466
471
479
490
499
493
481
476
466
457
458
460
460
464
468
461
462
470
476
477
473
472
471
469
467
466
460
460
461
468
476
482
482
488
489
489
493
483
474
472
477
476
475
472
466
468
477
486
485
488
489
486
475
475
482
478
470
470
477
479
482
487
486
479
480
481
488
494
494
492
480
475
471
472
471
468
467
468
466
466
464
459
465
469
474
484
503
520
536
547
558
565
583
608
640
667
700
718
736
763
788
808
823
840
859
879
891
887
877
876
875
878
886
878
859
822
778
713
627
556
482
407
338
276
229
187
149
123
110
107
109
107
120
140
153
167
180
196
223
257
284
304
329
352
372
383
378
370
372
383
401
411
410
416
429
446
461
475
483
494
496
494
492
484
472
470
476
490
499
509
514
514
515
524
530
531
532
533
533
525
515
513
510
504
502
496
498
506
509
509
509
513
523
534
544
540
525
515
521
521
524
533
538
541
539
533
530
531
534
538
539
541
542
535
527
530
534
532
526
519
520
522
531
542
549
550
549
548
547
547
551
558
559
552
544
546
546
530
523
527
535
539
546
550
547
550
550
547
543
544
547
544
544
547
547
546
549
552
543
541
542
544
552
556
566
571
564
563
569
573
568
566
568
574
573
569
562
558
558
558
554
557
563
565
565
563
566
569
565
568
574
578
578
578
579
580
578
586
590
594
591
583
581
582
596
602
595
587
583
581
580
580
582
587
602
607
607
605
599
592
594
598
601
600
592
581
577
582
587
588
589
591
587
583
582
574
567
574
581
584
578
576
576
568
565
559
552
540
539
542
543
536
532
533
533
525
523
524
528
523
515
515
521
522
518
514
515
519
523
511
498
478
473
478
480
488
490
487
490
488
482
471
463
455
441
425
427
431
438
439
441
442
443
444
449
447
439
431
427
425
420
426
421
415
412
412
414
406
399
399
401
408
409
405
403
398
400
403
396
392
388
384
383
385
390
394
400
406
407
398
404
411
408
406
410
409
402
401
403
405
400
397
400
394
391
392
400
406
404
402
400
405
409
412
412
414
413
415
419
425
428
431
426
422
417
411
405
402
406
414
420
424
427
430
438
441
448
450
446
443
437
439
443
440
438
429
432
439
448
457
464
467
464
459
451
455
460
466
471
477
463
454
455
452
445
439
452
469
472
477
478
472
468
465
461
452
447
450
459
462
463
469
474
477
486
487
491
490
485
485
485
480
476
475
463
459
466
465
465
474
479
480
479
481
484
486
496
500
492
477
470
470
476
479
474
467
470
482
490
494
496
497
497
502
505
502
496
484
474
464
462
473
480
485
495
503
502
493
486
486
485
481
480
485
489
488
486
491
497
500
492
482
482
483
491
497
501
502
493
489
487
484
480
482
483
481
482
480
480
481
481
481
479
474
476
484
490
495
496
494
498
494
497
498
495
491
487
480
481
489
488
482
483
495
496
485
473
468
472
479
484
490
493
495
495
487
480
479
480
488
494
483
477
475
480
483
481
481
482
484
486
485
487
490
482
474
478
490
492
498
500
495
499
500
508
511
505
501
495
483
479
483
489
491
490
487
485
486
493
492
498
500
501
493
496
500
494
485
480
480
491
491
489
496
505
510
512
500
494
495
493
490
491
491
488
490
489
492
500
504
503
500
497
490
490
493
493
482
485
490
490
486
486
487
484
479
477
479
481
480
480
489
486
488
492
499
505
505
500
493
495
499
504
503
492
490
494
496
502
506
513
522
514
508
516
533
540
539
535
539
544
545
540
539
540
528
524
522
520
521
523
526
528
531
533
540
550
554
553
552
552
546
541
524
509
507
504
502
501
494
489
494
493
492
491
481
474
464
457
460
466
471
466
472
474
481
485
485
473
469
473
474
465
459
461
471
472
472
472
469
468
473
474
475
482
493
497
487
482
481
483
480
463
449
446
454
459
460
461
459
457
456
465
475
475
469
469
465
465
475
482
484
481
481
480
474
469
467
467
470
474
475
473
471
473
479
468
464
469
471
475
476
470
457
455
465
466
458
454
455
460
459
457
469
475
481
483
481
484
491
494
493
491
488
488
483
478
475
470
474
481
498
503
498
495
496
499
507
516
528
541
562
590
613
636
656
677
699
732
769
801
826
847
867
877
893
905
905
895
890
889
898
900
891
865
826
769
682
596
518
441
376
311
250
200
173
153
142
124
104
94
102
113
128
143
163
180
195
212
234
251
281
310
329
346
360
372
385
389
399
411
416
420
423
434
444
451
452
461
467
478
481
474
475
476
480
481
484
496
512
516
515
515
512
513
520
521
518
518
521
520
516
512
516
518
519
516
512
511
516
525
531
534
541
549
548
539
532
515
499
490
502
515
521
521
517
507
505
508
513
520
531
536
535
536
536
537
538
540
539
530
527
534
535
537
538
535
530
525
526
530
537
542
540
542
546
544
543
535
536
539
543
542
539
536
532
537
545
553
554
549
549
552
554
558
557
558
