495
496
500
502
522
525
505
493
492
498
499
493
485
478
476
462
448
431
420
428
421
414
409
416
419
402
370
323
280
301
369
417
424
417
406
411
397
376
368
373
380
385
383
382
383
385
390
408
415
426
425
396
390
386
378
378
377
369
366
366
364
363
368
371
373
373
367
354
345
346
352
362
362
363
376
403
430
422
408
405
412
413
407
406
416
419
406
396
400
412
426
427
427
430
432
424
419
408
384
363
353
348
339
336
344
371
408
414
409
410
436
476
501
510
520
523
516
497
491
492
484
487
491
489
484
484
502
508
489
477
472
471
458
451
448
441
446
458
468
477
476
466
452
446
456
463
461
439
424
425
441
444
440
431
436
442
430
425
436
446
452
452
442
445
451
458
462
462
453
442
447
456
467
471
466
462
458
464
473
463
443
445
452
451
446
440
433
427
418
431
450
467
486
489
480
464
449
437
437
438
440
437
426
415
423
451
479
496
506
503
488
479
484
494
491
482
476
473
476
482
497
500
491
485
481
481
484
482
477
480
473
467
462
466
468
468
462
457
453
460
462
456
449
452
457
464
462
451
454
462
482
494
496
485
473
471
475
482
486
482
486
491
499
503
503
512
519
510
499
486
491
499
499
485
474
471
475
484
488
483
487
488
478
469
454
452
481
512
521
506
481
460
456
467
490
495
497
500
505
506
508
502
493
480
468
472
470
464
470
499
539
562
561
544
521
512
513
530
543
541
543
535
538
540
553
571
569
562
551
540
532
534
538
533
530
534
539
537
531
521
520
516
520
524
522
520
510
498
499
485
470
469
470
460
449
438
420
421
423
428
442
451
461
467
461
454
424
408
391
383
412
459
514
552
559
546
537
512
480
467
467
445
436
456
483
491
485
478
470
465
478
486
482
474
475
478
477
480
484
470
463
463
457
447
443
448
453
457
465
470
467
465
466
470
472
484
485
481
471
456
449
461
465
466
465
467
459
433
425
446
460
492
510
508
501
481
463
455
453
457
451
447
474
501
508
505
503
490
475
462
469
484
507
521
522
515
513
517
523
520
515
511
515
517
522
535
566
602
636
669
703
742
773
808
846
879
894
908
924
936
933
929
924
912
900
891
883
875
848
800
729
639
534
436
344
258
180
108
51
24
17
17
17
17
17
24
47
64
89
115
147
182
213
234
257
288
305
313
336
346
377
412
447
467
481
490
488
485
484
488
483
474
472
485
484
463
463
477
493
501
504
492
491
496
513
540
561
571
565
556
557
567
568
565
557
530
507
496
483
467
464
476
508
515
498
495
519
549
577
599
601
605
600
596
591
581
570
551
540
527
506
486
485
502
535
552
556
552
546
547
550
551
552
555
557
556
557
562
565
566
572
571
566
564
563
558
549
548
556
561
554
549
542
529
522
530
543
549
537
515
500
501
533
561
584
591
596
598
605
597
590
580
569
557
550
553
557
564
566
559
546
550
565
570
563
567
565
570
569
582
592
589
571
561
558
570
570
568
569
571
571
574
570
567
567
576
581
580
570
554
541
537
536
544
552
563
581
606
615
608
594
582
586
596
597
590
579
580
577
571
571
567
562
569
585
603
602
597
592
588
589
596
597
595
582
571
559
552
554
558
572
580
570
555
557
560
564
553
554
546
535
524
522
521
517
512
493
488
484
476
496
520
538
554
546
529
523
521
514
508
504
501
497
496
486
478
471
460
460
457
452
455
445
446
442
439
438
433
431
428
422
414
411
394
390
388
383
393
398
411
439
447
444
435
428
414
402
395
395
398
395
388
386
396
400
402
400
402
402
395
388
382
379
379
374
377
383
392
390
390
384
369
363
368
379
399
408
405
399
384
371
372
372
357
348
362
377
384
386
403
417
422
420
421
419
407
399
394
393
398
400
382
374
373
383
397
412
417
408
417
434
434
425
429
438
440
432
418
412
405
397
395
406
424
422
399
385
386
405
440
457
478
486
477
462
453
445
444
448
459
468
467
465
463
468
454
438
446
450
446
432
437
456
471
484
465
441
431
435
458
496
505
507
504
498
487
486
480
472
481
476
478
475
470
475
472
453
455
455
449
450
455
466
473
468
468
464
462
461
460
457
459
468
470
460
446
430
414
413
433
464
475
494
508
515
507
499
495
490
476
480
500
502
487
484
489
501
508
513
526
526
501
484
484
489
497
494
489
477
462
451
445
442
448
459
468
467
469
475
478
487
487
481
481
485
489
492
476
464
463
462
464
455
440
431
417
415
421
427
443
458
481
501
509
521
511
491
484
496
490
478
458
462
477
485
483
486
495
507
511
505
503
506
509
510
501
496
496
499
486
478
480
478
476
475
479
490
501
521
513
495
489
486
494
507
511
502
504
509
509
501
495
492
486
491
477
452
433
444
454
479
506
507
494
478
473
459
456
455
462
471
482
501
485
478
477
473
492
524
535
531
522
517
513
509
519
518
511
513
521
539
552
559
559
553
545
544
545
549
544
541
543
541
527
508
483
465
463
469
495
535
554
552
553
554
547
540
525
513
510
518
520
511
488
486
482
480
490
502
513
503
478
454
443
446
453
462
469
474
476
471
476
459
449
435
431
426
440
467
487
474
459
456
452
450
458
472
470
461
469
480
473
475
483
487
478
469
463
465
468
465
441
417
415
423
433
428
412
388
362
375
438
490
515
525
521
524
527
527
516
523
508
491
480
472
461
458
459
463
470
479
475
464
451
439
439
449
464
460
454
472
488
493
496
490
481
472
473
476
470
471
463
457
463
465
459
457
452
459
476
487
488
490
507
532
548
548
555
565
577
591
613
642
671
695
708
721
753
775
781
801
838
886
932
959
981
990
987
990
989
989
968
921
863
793
703
625
548
455
376
290
208
138
94
71
58
56
52
54
65
76
95
115
128
147
157
161
187
236
300
339
354
364
384
394
407
417
422
428
445
459
459
462
456
463
481
504
512
503
497
502
500
504
509
515
502
480
463
453
434
417
408
399
406
433
470
515
548
571
577
570
559
551
543
538
546
555
562
556
544
537
536
533
532
528
526
525
522
516
520
527
527
512
498
485
481
473
470
479
527
584
618
637
637
620
601
587
588
574
569
571
575
574
561
553
560
560
542
524
516
504
495
493
501
521
533
532
531
537
537
534
535
531
524
508
501
493
477
471
481
509
530
526
513
537
578
598
603
603
599
591
585
564
557
561
552
558
561
562
559
567
572
575
572
564
569
574
573
558
549
550
559
564
560
553
545
548
539
523
513
509
511
536
558
581
589
578
577
593
621
641
651
650
641
623
611
613
629
634
628
626
626
628
630
633
631
612
601
581
557
538
526
531
539
531
518
522
535
551
553
562
572
579
584
580
581
578
564
561
562
559
559
558
561
564
555
540
542
553
564
571
572
576
555
538
526
519
515
518
517
507
499
492
488
483
476
480
488
491
489
464
437
413
397
380
377
391
415
447
476
503
512
500
484
467
452
430
422
421
406
407
428
453
472
473
457
450
444
444
443
428
417
417
423
427
423
404
385
369
361
355
348
347
352
364
380
384
387
386
383
379
378
372
374
364
362
364
370
372
372
363
356
364
393
408
415
420
399
388
378
379
377
372
370
369
369
357
359
370
387
393
395
385
383
388
387
373
368
383
396
406
403
408
418
413
405
402
403
410
419
416
410
405
409
410
419
428
428
400
366
348
363
402
458
487
478
461
461
467
472
464
454
453
466
474
471
470
459
448
447
436
423
404
386
380
383
380
384
389
391
389
397
414
418
407
412
430
445
467
485
486
488
480
464
451
456
463
474
478
478
483
492
505
509
511
503
494
489
491
492
476
464
457
453
456
453
453
457
455
450
451
455
462
462
463
458
457
463
476
485
492
503
504
502
503
501
498
491
485
476
473
465
458
458
475
491
486
478
475
466
447
428
432
459
482
502
506
496
487
480
482
494
514
524
517
517
517
514
510
511
512
499
484
471
469
473
472
476
487
493
487
480
477
479
501
515
512
501
496
494
479
461
458
467
461
449
444
451
465
490
507
490
461
474
520
550
542
522
513
514
518
524
520
510
488
465
467
470
480
489
492
496
504
515
530
524
503
488
483
489
489
488
489
476
443
426
447
494
529
529
520
513
495
481
475
484
487
490
494
506
527
526
515
496
490
499
508
510
498
490
484
466
457
452
461
478
489
494
497
496
492
484
485
499
515
518
515
509
510
518
522
519
523
530
538
552
562
547
543
544
550
553
549
546
550
558
557
557
552
535
519
525
531
525
507
498
513
525
525
523
524
520
515
509
503
497
489
486
490
479
465
447
458
494
518
515
500
483
471
486
500
499
483
479
481
475
463
456
446
431
423
415
418
435
467
503
514
506
485
466
464
479
491
490
482
475
468
466
452
451
447
443
455
466
481
483
476
479
480
470
457
457
465
473
470
460
447
442
441
452
453
436
438
466
486
481
480
482
485
477
475
478
479
463
450
450
449
455
456
460
469
474
476
484
494
490
476
466
468
471
483
490
497
500
502
500
478
481
503
507
505
491
477
466
464
461
450
446
441
432
428
428
437
451
483
501
516
533
558
587
607
619
648
680
701
730
760
798
842
880
902
908
917
945
972
981
972
958
955
957
959
952
916
859
796
712
619
531
447
371
294
221
140
91
66
61
50
45
57
69
82
93
93
94
117
159
209
251
281
291
307
328
345
354
355
369
390
409
426
429
424
426
432
444
449
442
463
499
525
529
528
516
514
513
503
506
512
522
531
546
543
520
516
518
510
504
508
510
516
516
510
513
521
524
511
500
499
514
528
522
520
522
530
531
527
520
524
538
551
550
542
542
551
561
565
562
558
555
548
543
549
560
565
560
539
528
522
521
520
522
528
535
537
543
556
566
560
557
556
548
539
546
551
548
549
543
541
537
512
506
513
524
525
544
551
543
545
555
566
569
571
573
569
547
525
523
539
547
547
542
542
555
565
567
551
536
530
537
536
540
559
580
592
587
583
582
569
554
548
554
566
576
576
566
559
545
537
548
558
562
558
565
581
591
590
591
598
604
611
611
609
613
602
591
590
589
598
591
573
560
566
569
584
602
605
601
588
579
583
573
570
577
578
578
586
598
595
589
592
598
599
597
594
585
584
591
583
576
568
554
538
530
526
527
538
559
570
572
573
568
560
558
550
539
536
533
537
538
542
523
498
479
482
489
496
497
501
497
487
488
488
503
509
496
478
449
425
421
427
434
439
434
434
447
453
457
456
455
456
449
454
442
423
410
399
402
408
411
403
400
398
388
378
383
395
396
398
403
404
415
423
424
419
412
399
392
397
390
379
375
375
379
388
397
391
384
389
391
390
388
388
403
409
398
388
381
374
371
370
366
361
349
345
349
368
389
390
378
369
369
376
387
400
406
395
377
374
381
403
426
443
445
438
430
430
428
415
415
419
411
406
402
389
387
400
420
441
440
434
421
416
425
442
438
424
414
419
426
421
418
421
444
466
464
451
435
432
428
427
421
430
443
461
464
458
456
461
469
471
474
466
444
418
401
426
462
475
464
451
437
433
431
430
429
445
464
463
445
437
436
430
425
429
447
465
485
495
504
493
471
470
464
457
453
454
446
448
473
6
479
473
478
487
504
515
511
496
468
456
460
474
462
446
451
461
465
464
454
2
437
441
443
453
468
476
479
473
478
487
504
515
511
496
468
456
460
474
462
446
451
461
465
464
454
459
483
515
520
510
508
496
488
479
474
465
457
455
457
456
460
469
470
469
468
472
470
467
463
462
461
461
459
461
466
467
467
479
492
507
503
482
475
457
443
451
469
493
515
527
526
524
518
509
506
503
488
473
458
453
456
459
473
481
479
463
450
446
450
451
449
460
482
499
508
504
498
501
498
493
486
486
480
475
454
451
459
481
481
472
477
477
474
460
460
467
481
489
502
510
513
506
506
510
501
487
488
497
498
499
503
490
476
464
464
470
478
488
481
459
433
421
438
455
458
463
471
494
500
502
515
510
497
494
500
512
508
511
510
510
514
498
489
487
492
497
493
493
494
493
497
504
509
511
500
494
492
486
479
479
489
489
479
472
478
489
508
520
510
502
505
512
511
506
491
484
487
511
520
519
530
550
540
533
542
551
560
566
565
556
548
539
541
535
520
505
491
489
500
507
504
504
505
513
505
496
487
487
498
518
531
527
524
519
513
510
497
484
475
480
492
499
504
503
491
478
479
479
481
484
479
470
456
436
418
419
425
444
473
480
468
459
453
469
493
505
488
482
493
499
504
501
491
465
450
441
438
441
449
460
462
448
438
433
438
450
453
443
439
435
442
449
473
492
503
502
494
504
483
465
466
463
451
446
447
448
450
459
468
468
472
476
471
475
481
492
499
494
490
480
459
451
455
464
466
467
474
479
478
469
473
473
466
465
465
463
466
471
479
476
474
464
460
473
492
509
508
515
523
538
558
578
575
579
600
639
672
702
743
778
801
832
863
895
902
898
895
894
897
898
897
905
916
910
896
878
846
781
699
625
544
448
349
243
144
81
39
22
21
24
26
29
45
73
97
125
150
162
178
198
217
232
253
284
314
344
364
367
376
395
408
426
432
428
431
431
432
444
467
477
484
483
485
495
503
498
492
497
497
505
519
513
506
505
520
536
550
551
541
537
541
546
548
557
564
561
541
527
524
520
515
496
483
495
509
522
530
542
546
552
552
540
526
519
529
532
540
557
569
558
557
560
562
558
554
557
553
555
561
568
571
579
582
574
568
573
568
561
545
532
529
537
541
542
535
531
531
532
535
536
528
527
526
522
522
529
548
556
568
574
572
574
583
588
592
584
563
545
531
527
539
558
561
558
559
556
549
545
549
560
569
571
558
552
550
572
577
580
575
569
570
572
571
566
558
547
561
588
607
613
616
624
612
596
592
598
604
596
590
590
575
578
592
608
623
626
618
611
616
612
608
607
604
593
593
595
601
608
611
609
598
594
594
596
596
595
591
603
621
623
619
601
595
600
606
610
597
584
579
579
576
577
579
582
580
579
577
571
563
561
564
563
563
550
530
518
504
505
525
537
542
542
539
547
559
561
558
543
543
551
550
545
552
546
523
512
515
515
493
483
478
466
457
450
430
413
408
415
430
442
448
447
438
432
433
434
432
436
437
435
426
426
423
419
416
422
422
415
404
398
412
409
392
378
373
372
377
381
377
380
387
395
391
379
375
369
374
376
375
372
366
376
380
376
362
369
385
398
409
410
403
396
388
381
380
377
375
375
377
376
375
373
371
366
364
384
409
429
428
424
414
409
414
415
405
402
388
386
402
404
397
390
393
408
424
428
431
429
433
430
428
429
423
425
424
419
414
412
412
415
433
445
451
456
460
456
447
455
463
471
468
458
463
456
453
450
452
451
455
463
472
467
458
452
451
442
446
449
455
462
470
468
456
464
466
465
470
477
484
476
470
467
464
471
487
487
472
462
460
467
475
469
461
452
461
481
491
483
472
466
464
467
472
483
493
487
480
481
485
488
487
464
449
453
451
446
443
443
445
457
465
464
456
463
475
485
483
475
481
485
487
485
482
478
483
483
472
460
457
466
492
496
488
488
497
501
501
492
480
471
476
481
481
480
456
443
445
453
461
463
464
453
452
455
453
450
449
456
477
467
457
457
456
463
465
458
455
472
489
497
507
508
500
492
488
477
474
476
479
489
481
490
491
487
487
475
462
456
455
466
480
474
458
449
449
453
460
468
488
502
499
490
485
483
488
500
501
506
512
511
515
517
513
510
510
500
497
493
484
481
482
479
479
488
488
488
481
481
479
477
484
483
494
487
481
496
526
546
554
545
530
522
524
531
539
537
534
535
540
546
557
563
560
552
542
533
529
532
530
525
517
518
512
504
501
505
496
490
494
520
525
519
506
501
489
490
502
495
487
476
462
454
451
458
463
469
476
474
461
463
468
477
472
462
462
482
492
483
470
462
468
476
483
485
486
485
486
487
491
477
465
457
456
454
464
462
472
469
459
459
476
476
463
455
454
453
456
469
472
473
476
477
472
467
474
483
477
469
465
473
472
468
471
471
469
464
472
482
463
454
467
484
492
488
492
499
509
512
501
495
485
467
444
437
451
463
470
466
468
476
475
476
482
489
489
490
488
477
478
482
486
494
500
498
497
499
509
520
528
543
566
591
611
635
662
674
681
704
743
785
815
849
887
926
961
962
941
927
928
923
924
918
901
882
849
798
733
640
547
463
363
275
199
135
84
45
25
30
40
52
70
93
111
124
138
163
193
224
235
246
276
313
349
382
396
393
387
389
393
400
412
409
402
401
419
458
483
486
489
490
495
497
499
491
487
489
496
502
520
534
541
543
546
536
532
536
532
523
504
492
494
500
509
516
519
523
539
546
545
543
539
537
531
528
529
528
526
521
527
541
552
551
552
559
556
548
556
552
547
539
535
534
548
564
578
582
577
574
568
562
554
542
532
526
539
557
576
577
576
560
539
535
533
534
530
536
543
546
549
553
554
543
537
534
540
541
541
548
556
556
561
560
561
575
576
564
558
557
555
556
545
540
547
548
542
538
531
526
536
556
568
581
579
579
573
567
567
584
605
602
596
601
608
614
614
605
614
624
626
606
594
591
588
591
592
591
585
582
585
589
581
574
580
596
609
612
611
603
603
604
613
607
598
596
594
584
586
590
598
605
610
610
605
611
621
621
618
612
591
575
568
565
567
580
585
572
561
556
565
580
585
587
584
583
584
576
575
575
578
573
565
564
562
552
550
547
546
539
527
531
534
535
530
525
531
521
508
500
507
505
502
488
477
470
479
494
500
503
495
498
484
456
431
434
440
461
481
483
486
484
472
457
453
438
431
429
423
418
411
401
396
395
386
373
380
392
398
400
390
390
395
389
378
368
370
370
366
370
378
388
392
392
384
375
369
363
359
359
355
353
362
369
366
362
367
374
383
381
376
374
369
367
367
366
374
382
394
406
412
410
406
405
390
377
373
369
381
403
420
417
400
396
398
404
417
432
435
442
441
443
453
451
436
422
423
419
416
413
406
410
426
433
437
435
430
431
435
438
432
421
424
425
418
421
423
421
425
433
428
422
425
435
444
448
453
454
456
458
464
469
457
437
433
443
451
459
467
460
452
448
455
449
447
450
455
468
476
483
480
471
470
482
493
487
483
484
487
483
479
477
479
479
481
478
470
456
454
464
466
455
435
428
452
484
503
502
491
487
491
495
489
481
485
493
501
502
499
502
500
496
488
488
479
466
471
478
475
469
470
483
490
484
491
496
478
465
461
455
453
452
453
459
475
480
472
469
475
488
497
500
503
499
485
475
474
469
467
463
472
482
483
479
484
484
473
467
476
499
509
514
515
507
493
483
474
470
455
450
459
473
489
488
486
482
473
467
466
472
479
483
484
483
487
492
499
504
507
508
505
493
490
492
486
476
467
468
469
473
476
483
490
489
482
486
487
481
486
488
489
477
472
471
477
485
480
478
484
484
483
481
484
490
492
495
492
484
478
456
435
438
463
486
505
521
530
525
518
508
500
488
484
491
501
511
517
529
535
538
540
534
540
539
536
533
537
528
520
519
516
519
517
523
535
547
551
552
536
514
501
517
533
554
569
567
553
537
526
521
512
515
514
507
496
494
493
484
483
479
473
465
460
455
444
446
450
453
459
459
458
457
467
475
462
453
449
457
445
441
447
462
472
488
494
484
475
468
464
470
479
489
477
458
440
439
455
451
451
454
442
434
439
452
469
478
476
464
459
452
451
448
449
448
446
448
455
462
466
477
479
483
478
476
471
470
468
465
458
453
450
458
467
474
482
489
488
481
481
482
485
484
480
481
474
464
451
452
447
444
447
450
448
456
474
479
479
481
485
488
479
465
466
464
453
447
450
452
451
459
476
501
513
528
547
561
570
577
585
604
641
676
701
734
775
813
853
885
915
921
912
918
928
936
945
946
954
946
929
896
867
826
749
652
567
487
416
342
264
194
149
126
99
80
70
72
81
95
110
129
152
178
206
231
246
271
297
311
321
334
352
365
374
379
388
394
400
405
420
434
436
444
458
473
485
480
482
487
489
491
479
451
452
472
501
508
509
503
489
478
471
471
474
487
493
484
472
469
483
518
539
536
537
534
521
516
522
530
531
527
532
541
543
538
525
514
506
500
504
513
525
536
534
522
516
523
530
530
526
521
517
511
514
526
534
540
536
526
519
524
533
545
554
545
542
547
547
545
549
558
566
558
544
537
529
530
551
564
556
546
549
554
557
555
553
556
555
547
534
521
507
499
505
521
536
553
552
543
540
543
551
558
559
554
546
544
550
559
568
572
566
561
544
538
547
547
548
554
548
544
551
551
551
552
561
581
587
593
600
601
590
577
568
568
572
587
601
609
620
612
602
598
601
601
601
599
600
597
588
593
603
615
628
630
623
613
611
605
599
598
608
613
612
604
593
590
586
585
586
579
590
600
604
604
600
602
598
595
582
569
562
549
561
565
546
550
551
546
536
534
529
528
535
542
548
542
531
530
527
529
523
507
494
486
484
494
499
502
498
479
468
467
464
463
466
469
468
472
475
473
461
450
442
433
425
420
410
414
428
433
434
426
412
400
396
389
391
396
398
399
393
392
394
391
392
393
392
385
369
365
364
361
365
373
377
380
370
367
372
370
373
395
397
378
368
359
358
359
365
375
368
352
350
361
365
373
389
388
387
384
381
371
371
377
373
375
382
392
389
392
397
389
380
372
361
352
344
342
356
381
401
409
402
400
408
409
410
415
414
411
409
390
381
388
403
413
416
411
413
414
409
416
411
399
394
400
413
428
435
421
400
397
406
423
434
438
436
437
437
439
444
451
460
455
459
454
448
430
411
403
411
422
437
444
440
437
442
446
450
456
446
438
440
450
461
467
474
473
465
460
465
478
484
484
490
476
464
466
473
472
470
472
474
472
475
462
443
428
430
450
465
472
493
510
506
508
505
492
477
463
459
457
464
464
458
453
450
446
431
433
449
458
461
456
444
452
462
468
471
470
487
505
513
513
507
497
494
496
496
504
506
499
494
490
484
490
489
487
470
450
451
459
466
473
474
476
479
479
486
490
483
478
475
470
466
469
457
452
453
452
456
467
475
478
475
483
486
471
461
462
472
485
490
487
489
499
503
498
496
496
485
471
462
469
462
471
483
490
502
517
520
507
490
477
469
462
458
455
474
488
500
501
494
486
486
485
486
490
494
494
493
486
471
458
442
436
452
467
481
490
486
488
488
475
476
478
484
487
485
479
476
475
473
474
472
458
443
442
446
448
456
482
503
511
515
505
507
517
520
524
526
508
492
486
484
497
500
497
495
496
488
476
478
476
466
461
454
452
467
489
499
501
502
492
483
468
466
477
501
517
518
528
531
532
532
533
543
552
548
535
527
531
530
532
541
548
552
548
547
533
516
511
509
515
526
524
522
522
517
507
513
521
509
488
462
452
454
465
476
503
503
500
501
507
503
498
511
520
516
505
496
491
482
475
468
456
452
447
444
446
451
457
460
456
444
437
433
432
427
436
440
445
450
451
460
464
468
466
470
461
461
465
459
458
466
473
466
462
456
458
460
460
464
469
466
453
442
438
434
442
464
466
463
453
449
458
456
446
439
453
472
468
456
459
464
475
477
464
444
441
453
470
487
485
482
482
479
482
498
503
483
467
458
459
458
455
458
461
462
470
475
469
460
471
475
473
467
458
468
475
486
472
461
464
472
484
497
515
535
548
564
571
593
621
659
688
707
732
754
779
815
853
889
911
917
909
913
931
950
955
950
946
952
939
913
874
835
785
705
624
538
447
369
285
207
150
117
100
85
68
71
90
102
123
141
148
163
182
216
254
288
304
314
315
311
306
312
326
348
368
397
405
399
400
414
432
433
429
434
446
458
469
471
476
482
492
490
491
487
484
483
494
496
488
484
488
500
509
513
524
527
528
522
514
508
508
498
495
506
507
509
514
507
494
489
496
508
511
509
509
511
509
514
529
537
537
531
523
524
531
543
548
545
525
502
488
487
511
521
548
585
609
614
602
578
544
525
512
506
515
524
530
531
528
524
523
536
533
532
535
528
526
536
546
548
541
532
524
518
523
539
548
545
540
543
544
542
539
535
540
547
548
548
551
541
534
526
521
520
539
557
571
579
574
560
534
522
524
542
558
580
590
593
598
604
604
593
580
571
572
574
577
583
596
608
610
606
606
592
584
591
599
606
598
580
572
574
574
581
591
593
593
590
587
577
573
573
582
590
610
627
639
637
636
623
614
603
595
602
606
611
611
600
584
563
567
584
591
584
576
562
561
572
585
583
573
567
554
548
558
565
575
572
561
551
543
538
529
535
540
553
556
553
554
553
552
551
542
541
552
549
537
522
503
479
467
457
456
446
445
439
441
440
439
448
447
454
456
463
461
445
435
428
418
420
432
443
435
420
416
417
413
414
416
408
398
384
378
380
382
373
355
340
350
364
383
388
385
378
381
387
383
377
350
345
358
368
364
351
346
349
360
381
392
397
398
397
396
392
390
395
395
387
378
369
371
372
366
362
364
360
352
352
353
355
352
351
364
375
395
407
414
411
413
410
405
417
407
398
396
399
393
381
380
386
394
401
410
420
429
427
429
406
386
381
388
400
411
408
403
400
409
417
412
402
403
418
424
426
424
417
430
452
448
441
435
437
440
438
433
425
436
452
454
445
446
452
456
459
466
450
437
439
442
445
450
452
448
448
443
434
426
416
404
398
413
437
450
454
462
462
460
450
445
460
488
493
491
490
485
472
465
463
470
488
491
477
472
470
465
474
483
491
500
503
494
476
454
459
459
453
462
473
477
475
481
486
477
467
458
455
463
478
474
476
469
472
482
492
481
456
451
467
481
478
484
488
484
472
480
484
488
491
484
473
468
473
472
470
465
468
475
464
457
456
445
440
446
455
465
470
468
459
453
454
464
480
508
528
514
500
487
486
493
503
502
507
509
509
502
486
476
471
463
460
460
462
470
489
499
487
470
476
488
484
478
463
451
453
467
487
488
492
486
485
489
488
483
483
493
503
493
479
457
438
433
440
459
466
473
478
487
484
476
464
465
478
495
498
499
486
474
471
471
463
466
468
468
476
480
478
471
472
479
476
479
483
491
502
512
512
500
492
499
496
488
479
473
474
466
468
486
501
514
510
494
478
473
477
478
481
476
474
480
486
482
476
485
499
505
516
509
496
482
468
467
474
479
488
486
485
479
477
482
493
494
495
496
510
513
510
502
489
483
485
487
483
479
483
486
487
486
488
489
477
475
481
493
495
492
491
496
512
534
544
557
555
550
549
553
552
543
541
539
521
515
504
510
526
531
543
546
538
537
553
564
565
556
546
535
527
521
532
545
554
562
560
540
523
508
503
504
495
482
474
478
485
474
454
427
418
413
406
401
411
437
452
454
446
446
471
495
501
496
457
422
426
441
456
460
465
462
453
446
453
454
451
455
459
457
448
443
450
449
445
447
456
457
464
467
463
461
456
454
448
443
435
441
450
457
459
456
453
444
440
465
489
496
498
499
493
493
493
482
479
473
456
443
451
457
446
443
457
469
470
464
470
477
480
485
484
490
495
490
481
483
493
486
490
500
491
479
471
465
459
448
442
439
436
444
446
446
445
446
455
465
477
490
500
513
524
538
551
571
595
621
643
663
696
742
781
813
848
880
906
921
923
910
906
909
922
916
905
884
874
868
874
876
853
777
678
585
496
400
302
214
139
87
55
35
34
34
38
40
48
61
89
116
135
152
178
198
209
233
257
263
284
314
349
382
395
388
392
397
400
409
416
425
430
443
460
466
468
459
459
473
493
526
535
517
499
496
489
485
493
512
524
520
530
544
547
529
510
495
476
464
458
472
481
499
511
518
520
527
538
552
558
560
571
577
564
553
539
525
522
521
527
522
520
518
516
523
522
522
523
519
516
523
533
537
531
530
534
541
542
534
534
532
534
527
523
518
517
525
531
536
538
536
541
532
528
541
551
554
566
563
550
547
542
532
537
537
533
524
523
525
546
558
561
558
554
544
536
522
535
555
557
565
568
555
545
548
547
547
546
561
577
571
569
567
564
572
578
579
572
570
577
576
558
552
544
553
565
568
567
573
582
586
587
581
580
571
582
590
597
607
616
612
607
618
622
621
616
614
625
620
606
593
575
560
555
545
528
529
539
561
593
617
633
631
626
621
609
599
591
575
566
576
593
585
577
580
580
580
584
581
577
576
582
572
571
579
583
588
588
572
565
551
536
522
512
508
506
503
505
512
514
513
521
516
519
521
524
517
505
494
496
493
481
472
477
473
468
468
457
444
441
442
442
441
442
436
423
406
407
418
425
411
391
383
394
399
409
418
436
444
436
420
405
392
396
415
431
418
399
394
381
364
366
374
383
386
374
349
342
342
347
345
340
357
382
385
385
381
379
379
366
346
329
327
341
364
375
379
381
375
378
378
378
369
368
370
372
374
371
358
352
353
354
369
377
391
400
394
386
385
395
411
417
419
434
445
432
422
416
409
395
385
388
402
423
427
435
446
443
442
437
423
413
416
427
437
437
438
437
429
417
410
404
406
418
429
434
446
465
467
463
471
472
463
453
448
462
474
470
465
462
442
433
432
428
429
422
428
435
440
439
430
427
429
450
476
486
485
472
467
469
465
465
477
490
503
500
497
498
504
507
497
485
464
457
466
457
450
454
450
446
450
467
485
483
466
453
460
468
477
495
484
463
448
442
446
446
448
455
456
458
451
446
453
461
468
467
469
486
482
469
462
467
466
459
466
476
488
495
490
490
478
482
480
474
468
464
469
476
475
466
460
453
450
455
475
490
496
494
490
487
487
472
454
457
462
452
444
440
451
458
466
484
492
486
482
475
466
466
472
480
478
480
473
464
456
451
449
449
444
440
438
437
453
469
493
498
487
477
475
475
485
480
485
486
491
502
496
483
473
464
458
450
446
437
433
444
454
460
466
475
482
486
485
484
490
498
500
497
500
499
505
507
508
508
507
507
496
467
453
450
437
448
475
487
489
470
459
466
473
474
471
467
461
459
461
466
474
489
503
510
500
480
456
450
467
496
514
506
499
494
492
497
497
493
499
503
501
509
514
508
498
487
477
476
480
491
491
488
492
497
494
495
503
511
508
500
505
522
526
518
502
488
483
479
491
503
512
518
530
547
547
542
526
519
516
518
527
551
565
557
556
555
546
542
537
532
542
540
530
514
511
496
494
493
485
483
479
475
474
473
468
458
445
442
452
446
469
484
490
491
497
496
484
491
491
484
488
493
487
485
482
469
467
471
468
464
464
451
448
449
446
447
447
449
445
445
440
438
453
463
457
458
465
471
469
461
457
457
463
467
471
476
471
464
456
460
471
475
475
476
471
469
467
461
458
456
449
433
438
450
448
455
472
486
477
456
435
428
427
451
471
471
459
456
465
478
472
463
465
472
494
505
505
503
499
499
503
499
481
458
438
441
460
458
451
443
442
456
469
467
467
480
503
517
525
519
525
543
563
577
589
614
637
669
709
747
782
818
844
870
886
889
890
895
894
901
908
909
906
901
891
869
843
799
731
643
559
474
376
279
195
120
72
50
50
56
44
44
56
81
111
131
144
156
186
221
254
276
304
337
353
363
370
363
367
382
392
399
400
404
409
421
432
439
451
461
460
457
453
466
481
490
497
512
514
516
511
510
512
512
516
520
525
522
511
516
525
525
511
500
507
522
542
549
531
513
491
489
499
505
514
525
531
529
520
524
525
524
521
528
528
525
532
546
557
562
565
561
547
542
535
529
529
540
556
551
537
535
553
575
589
582
568
554
545
549
555
555
554
565
580
578
578
573
561
544
534
533
529
530
541
556
554
555
557
554
550
545
555
555
552
551
545
538
532
529
537
540
537
530
530
528
531
535
544
550
550
545
540
540
549
558
563
578
588
590
579
568
547
526
517
537
568
588
592
587
580
584
592
597
600
605
610
595
583
583
594
595
578
552
535
542
573
611
635
633
623
611
607
605
607
602
597
591
581
586
597
598
592
586
585
594
603
611
608
609
610
611
607
605
591
589
589
585
582
587
577
562
555
560
575
577
576
572
563
554
544
527
522
525
536
554
566
570
573
569
564
564
563
563
570
575
568
565
553
529
521
518
513
504
479
442
416
415
432
457
483
500
500
484
466
451
447
456
459
463
463
452
443
441
431
412
404
396
393
395
397
394
386
384
390
402
405
395
382
379
375
387
395
397
398
387
377
372
364
365
375
381
376
362
349
347
346
353
369
379
388
391
395
398
389
363
345
334
333
349
364
383
398
399
397
401
395
394
391
387
394
407
408
423
432
419
404
394
390
375
363
357
353
357
358
350
355
375
396
409
414
411
417
419
410
408
404
423
419
411
420
434
454
457
429
403
395
399
410
421
431
441
446
455
452
449
446
440
431
420
406
400
413
403
407
420
435
448
453
443
437
431
436
441
453
468
482
487
488
490
482
473
467
465
473
452
435
431
441
438
432
439
451
460
464
460
470
472
475
476
478
481
484
491
487
474
467
473
488
510
518
511
486
467
463
466
465
461
464
474
477
484
490
489
488
480
471
470
480
485
480
471
463
464
457
459
469
481
483
488
487
481
482
483
479
474
468
475
483
483
494
514
516
489
465
469
478
470
465
471
469
475
484
491
500
514
509
497
494
492
486
470
465
474
483
481
481
466
444
433
424
441
467
489
509
507
496
491
485
483
486
490
500
497
491
487
490
495
504
495
484
473
473
478
470
449
447
456
473
488
495
501
502
504
507
500
489
486
483
478
485
487
489
485
479
492
488
482
487
486
482
483
490
499
492
480
480
481
480
478
483
487
469
462
453
431
427
434
456
476
492
504
520
521
499
503
509
517
516
507
509
516
529
528
519
503
493
489
472
464
454
437
431
441
469
490
496
498
492
497
496
486
483
490
500
511
517
518
512
503
496
492
480
476
474
473
473
473
467
462
459
462
471
486
485
475
466
477
503
516
513
519
517
513
509
512
519
511
514
519
510
494
481
469
463
451
431
432
462
514
541
536
531
526
522
525
529
526
525
532
535
528
525
514
497
495
498
498
498
495
496
496
502
516
527
521
512
519
536
533
514
512
513
529
537
540
541
549
557
550
543
537
535
536
538
540
532
528
533
533
525
513
496
485
491
502
509
510
507
507
501
489
482
493
509
521
518
516
495
495
475
452
457
461
477
481
466
453
442
455
487
510
512
510
508
501
496
489
486
476
475
469
462
458
446
431
430
436
437
433
436
444
458
481
504
510
502
508
509
508
508
509
498
479
461
439
408
371
348
371
429
467
474
467
468
480
487
489
475
466
460
460
463
467
472
474
471
458
448
448
457
466
466
471
478
488
496
494
486
476
476
467
456
456
467
485
490
492
493
497
497
502
504
505
489
467
462
476
478
479
476
463
462
470
470
459
447
448
466
476
498
501
508
525
564
605
626
656
673
693
709
712
741
797
837
870
898
908
916
921
928
927
937
936
928
943
938
921
887
843
790
715
639
555
479
406
327
238
166
125
106
94
89
83
77
88
108
122
129
146
185
222
243
263
282
297
323
351
376
388
394
403
407
418
425
432
440
447
464
459
459
472
467
458
436
425
430
453
483
513
523
518
503
494
495
501
501
498
501
503
496
488
485
480
471
462
465
479
489
499
504
502
502
510
525
527
530
529
526
518
514
512
513
520
523
528
538
539
527
527
535
534
525
523
517
516
510
515
519
527
532
535
545
548
546
550
550
541
538
549
565
577
580
560
547
562
584
596
585
572
558
535
519
517
508
501
506
513
519
516
503
501
494
491
479
479
498
535
548
555
561
551
553
556
555
544
536
544
554
550
563
565
560
556
549
543
536
541
553
556
556
560
560
558
559
558
566
570
567
564
559
565
586
610
622
634
631
622
618
620
619
618
611
597
588
580
573
560
550
545
549
565
575
580
587
592
588
591
592
575
567
568
583
601
613
640
648
645
635
632
636
632
623
608
598
588
583
580
584
592
587
566
559
566
576
576
577
581
581
573
571
573
577
583
593
602
597
588
581
584
587
573
555
530
516
520
529
519
511
504
497
496
494
490
491
485
475
482
494
496
491
483
479
488
486
477
471
468
471
470
472
477
480
475
461
457
448
433
420
421
421
422
425
421
417
425
431
417
411
404
392
396
384
378
373
380
386
394
402
401
387
382
377
373
375
384
384
376
364
365
377
384
377
373
373
367
352
349
365
377
376
368
356
346
347
350
357
372
366
368
380
387
394
399
397
392
383
373
380
379
372
365
368
394
406
403
400
405
413
417
417
413
415
414
400
395
398
403
402
405
404
399
403
402
390
391
407
419
424
431
428
418
418
426
432
431
413
394
386
380
389
401
414
426
433
436
440
436
435
415
412
416
416
413
419
432
440
446
446
448
441
433
428
434
441
449
452
449
446
446
445
444
440
441
451
464
471
473
482
490
491
492
491
489
498
496
491
487
471
450
440
446
444
442
445
452
465
490
503
512
514
502
481
462
445
447
462
468
469
469
472
476
482
480
468
462
457
452
445
436
451
480
487
487
493
495
481
479
488
488
480
474
469
477
485
486
488
488
488
471
459
459
462
467
471
471
476
474
487
497
506
510
514
516
509
508
517
520
529
532
525
518
514
520
531
527
508
478
435
400
390
406
430
455
475
475
466
448
440
444
453
469
489
503
492
475
475
480
477
477
475
481
490
496
485
474
469
463
456
468
483
493
498
501
500
502
500
498
492
484
483
497
502
500
495
495
504
507
508
506
516
497
477
482
491
499
491
492
503
515
513
502
491
487
481
480
478
485
489
488
482
479
487
479
461
462
462
459
458
450
452
462
462
457
450
448
452
470
484
486
483
484
487
481
486
498
506
507
512
513
500
496
497
507
504
498
491
487
472
455
447
454
474
491
511
516
501
478
474
483
486
483
482
485
487
486
489
488
497
506
507
511
515
524
521
510
497
488
492
499
495
497
503
502
499
485
475
465
461
471
474
462
458
464
467
473
463
458
453
461
476
480
484
493
507
504
498
501
486
484
500
511
515
515
525
519
506
495
486
502
507
494
485
477
467
461
472
495
516
521
517
516
513
512
516
530
548
562
561
559
555
544
535
530
540
552
548
540
540
551
560
563
551
535
523
515
510
509
504
501
503
508
512
509
508
511
518
517
516
515
520
514
501
489
489
493
491
485
482
469
452
436
431
435
452
478
488
477
469
468
463
454
450
450
459
458
452
458
466
460
462
474
491
499
499
498
496
489
491
490
489
492
493
485
475
462
455
459
463
438
407
383
372
382
402
408
426
448
473
487
479
477
476
479
481
482
488
483
474
467
464
465
464
465
454
449
455
453
459
463
469
477
463
448
447
449
452
461
481
499
499
487
475
470
478
485
489
490
494
491
491
483
475
476
478
481
471
462
460
461
458
458
468
478
487
489
485
476
472
483
491
496
507
528
561
595
622
646
672
692
706
718
740
778
825
871
906
919
933
944
948
944
936
935
940
951
952
937
903
856
796
703
622
539
460
403
335
251
155
90
73
57
47
60
75
82
90
102
127
160
189
221
257
277
292
303
317
332
337
352
374
382
393
409
410
418
442
457
445
440
438
448
462
470
472
475
480
492
504
495
473
454
445
440
425
417
438
487
528
531
532
541
549
543
532
523
516
511
516
521
517
514
519
511
505
511
518
520
527
525
513
503
496
489
486
497
510
515
514
520
521
525
528
544
552
551
554
550
540
533
515
512
511
517
511
507
508
532
555
561
553
539
540
539
539
546
559
564
553
543
540
554
578
580
567
561
551
537
526
515
514
508
514
516
507
502
514
530
542
548
570
584
584
581
579
566
552
539
528
518
519
531
556
563
553
550
553
554
559
557
560
560
560
563
560
556
552
557
557
556
565
571
568
568
572
572
577
590
607
615
606
593
584
577
574
567
562
552
556
565
571
568
580
598
616
631
625
619
614
617
621
623
623
631
637
624
605
610
606
594
588
586
584
586
592
585
588
592
589
594
597
596
594
590
592
595
589
580
574
567
552
545
548
545
542
546
546
555
560
566
568
562
556
555
549
546
551
543
526
512
511
503
506
512
509
503
497
493
484
484
479
481
486
481
478
467
459
459
465
465
467
466
442
420
420
437
464
487
486
476
466
456
445
436
423
404
385
376
378
386
397
392
378
370
357
364
377
378
384
384
375
369
362
348
342
354
362
370
351
352
381
403
409
408
402
393
381
375
372
380
389
392
384
376
372
372
388
397
404
397
378
362
358
354
356
365
377
396
407
408
409
409
393
375
369
373
378
380
379
385
398
403
394
389
394
399
399
393
392
397
400
408
419
438
443
440
434
427
427
427
409
392
393
402
408
404
399
401
410
419
422
427
432
441
440
445
446
436
433
418
403
405
419
424
421
413
412
424
448
473
488
495
496
494
485
478
481
480
485
490
489
480
460
433
406
398
400
402
413
438
466
485
490
486
475
461
466
468
464
460
457
460
467
471
464
465
469
460
454
462
470
473
463
452
446
453
462
475
492
507
507
498
491
493
509
507
488
478
481
485
489
484
483
481
487
478
467
466
478
489
483
472
464
448
451
469
487
502
495
497
496
488
477
473
483
489
489
492
491
490
482
473
466
457
448
450
448
454
460
454
461
470
478
477
484
493
498
493
490
489
479
480
487
493
493
513
502
484
478
479
485
497
511
519
521
504
488
480
477
469
463
465
483
488
476
462
463
465
459
464
470
468
486
491
489
484
482
490
493
480
478
492
498
492
485
480
464
465
488
506
511
501
484
464
452
462
488
512
516
516
514
509
510
507
513
516
523
517
501
492
487
482
478
477
475
467
469
475
486
493
487
473
470
463
453
448
447
446
459
459
464
475
494
510
505
499
496
493
488
492
494
496
501
505
509
508
488
471
464
470
470
468
471
476
473
493
506
517
518
519
520
518
505
501
498
499
494
475
458
452
453
444
435
433
444
467
488
494
489
493
497
496
502
511
523
528
523
508
486
476
477
487
506
518
520
515
514
512
502
493
495
504
506
498
487
478
460
446
459
477
503
530
544
541
526
519
516
515
515
503
479
484
492
489
496
507
512
519
530
532
536
543
537
529
525
539
550
551
553
561
581
589
585
569
543
522
509
493
493
496
496
500
498
483
481
489
501
514
519
522
522
505
492
474
455
454
462
478
488
494
488
482
480
479
481
484
483
481
476
476
472
472
470
476
476
467
459
461
459
461
476
490
484
482
479
479
483
491
500
489
478
470
469
471
470
485
473
461
469
475
481
475
458
448
443
442
437
435
434
436
437
429
432
444
455
459
467
463
450
447
450
456
453
450
437
444
461
477
493
504
499
491
500
510
517
516
510
483
480
478
472
457
448
459
461
463
480
474
468
477
487
498
493
490
493
492
494
492
486
489
476
480
492
503
526
539
538
528
507
497
520
568
612
649
680
695
715
734
753
773
802
833
870
893
898
898
901
908
915
906
899
900
894
877
849
807
752
678
598
537
467
389
295
206
141
106
101
94
80
71
65
69
80
95
120
135
148
170
195
222
243
264
295
308
328
355
378
399
413
424
438
448
464
475
491
511
522
511
512
507
492
469
445
433
442
457
466
472
475
485
496
483
477
480
487
501
514
523
533
530
522
509
510
510
509
499
465
449
463
503
540
545
554
556
558
540
527
531
542
542
549
540
546
559
560
565
565
561
562
562
556
553
553
552
540
527
522
522
517
520
522
533
540
541
550
556
549
546
545
549
551
556
565
569
577
572
555
543
523
500
497
503
502
500
505
513
500
498
515
529
537
543
542
542
545
541
533
532
525
532
548
580
590
585
570
557
543
538
544
546
538
546
564
576
589
589
583
572
573
579
580
571
560
562
574
587
598
594
587
579
574
562
563
582
598
601
600
602
605
592
583
583
587
591
598
592
575
572
575
579
573
577
585
589
595
595
590
589
591
598
604
593
579
561
543
545
574
601
615
619
607
590
587
577
575
577
579
571
567
571
566
555
541
557
582
606
599
583
577
573
579
580
581
580
563
554
551
549
545
536
537
537
535
536
523
511
508
509
511
524
523
532
535
529
529
516
501
494
487
485
489
498
488
462
452
453
457
453
443
434
432
428
417
403
401
392
383
372
371
390
411
403
403
415
430
434
432
433
420
402
388
385
392
394
392
385
379
378
381
378
365
359
356
358
342
330
319
323
325
338
371
395
392
383
388
399
407
411
415
415
407
400
390
380
371
360
345
346
360
372
380
387
383
388
395
392
399
405
412
411
398
393
385
375
382
395
409
416
407
389
399
411
411
409
408
423
435
425
430
427
422
416
415
427
422
415
414
420
427
439
439
432
422
412
397
404
418
429
441
436
428
429
430
434
438
460
460
458
452
449
448
438
448
467
471
474
481
475
462
465
472
491
490
474
473
476
461
455
456
460
471
471
461
450
443
438
451
456
458
457
455
464
469
460
457
462
465
464
470
465
462
471
475
469
462
440
435
450
469
467
462
462
466
475
490
484
471
477
488
487
482
477
481
481
469
452
445
459
474
480
471
457
456
463
454
438
425
432
447
483
502
493
487
481
467
461
462
467
456
455
462
476
487
494
485
478
475
476
485
486
488
493
480
457
443
437
441
441
435
434
446
467
482
487
489
486
486
494
498
504
488
474
469
469
469
469
474
475
479
474
461
454
457
467
465
461
462
454
439
433
434
441
460
472
482
481
483
479
476
479
480
473
461
454
446
443
457
469
479
492
494
492
489
481
470
476
486
484
489
485
476
485
490
482
488
487
480
473
466
464
464
458
453
456
458
452
471
498
516
510
498
496
496
486
483
485
495
497
493
489
494
492
483
480
484
482
478
478
474
466
464
453
449
446
448
458
463
468
471
484
491
490
496
478
469
465
459
454
458
467
480
495
492
486
495
501
492
478
477
496
500
507
522
537
528
503
480
472
496
517
529
539
550
558
548
540
549
548
542
530
522
514
513
504
496
494
505
522
535
536
538
539
536
533
535
529
527
526
522
513
500
502
502
509
513
521
513
498
486
485
470
442
441
448
452
449
449
453
451
442
427
427
431
433
435
446
448
443
449
468
479
485
498
504
504
499
492
483
464
452
451
466
470
468
461
455
451
441
449
468
475
473
477
472
468
471
468
470
478
485
486
464
449
441
441
442
440
431
425
428
431
442
443
442
457
454
446
450
451
450
461
471
450
439
449
473
491
496
484
471
474
464
456
456
461
464
465
469
469
466
471
475
483
487
480
458
442
435
438
449
454
442
427
428
460
485
495
501
501
506
526
544
564
565
579
599
615
629
652
677
696
726
761
792
815
838
861
879
889
882
873
870
878
872
871
871
859
856
841
799
749
680
590
496
404
306
209
126
62
32
17
17
19
25
26
27
42
67
100
113
138
178
231
261
280
299
306
323
349
368
387
400
407
407
402
409
418
428
432
438
446
455
462
459
461
482
498
501
518
529
520
508
505
506
513
519
526
535
546
547
537
527
528
530
531
536
532
521
519
516
513
512
511
515
512
511
508
504
511
507
492
495
497
499
502
505
507
519
538
546
545
541
535
517
507
510
527
548
565
561
546
538
534
550
565
570
565
553
552
552
556
562
561
570
587
587
586
572
559
560
554
551
547
534
511
503
515
536
543
551
561
562
546
537
531
533
530
526
531
542
545
545
545
542
540
531
541
555
564
562
550
536
533
535
532
533
530
531
544
566
576
577
580
580
575
561
553
557
564
566
575
593
601
602
602
599
592
585
585
586
584
580
583
590
601
599
583
567
572
578
591
604
613
614
617
617
611
610
611
609
602
600
590
581
583
568
563
589
603
586
580
579
579
574
561
543
555
569
582
588
590
593
583
579
584
577
575
571
562
551
552
556
557
553
545
545
551
546
536
526
526
533
541
547
544
530
526
519
524
532
542
529
515
510
521
522
506
504
500
508
512
511
509
503
490
477
465
457
459
458
451
438
434
437
438
436
443
453
449
428
408
407
408
409
404
413
421
420
411
404
401
397
389
388
401
407
409
410
395
370
353
350
349
352
356
347
349
371
390
396
375
354
346
356
363
366
355
347
344
346
359
380
398
406
405
402
399
393
387
387
384
379
392
409
419
408
382
377
385
385
377
369
372
375
386
406
415
417
415
413
410
410
409
411
412
409
408
422
445
439
418
409
413
431
439
434
427
428
427
423
425
423
421
427
431
437
433
433
430
430
428
425
421
427
433
437
443
452
464
480
469
449
436
430
440
451
457
460
458
462
467
465
461
471
479
483
485
480
465
440
422
416
428
443
463
474
467
465
461
462
469
473
475
482
484
476
470
482
503
521
529
521
514
509
501
505
503
492
479
464
462
446
432
421
429
438
449
456
465
469
476
489
496
491
484
487
490
487
492
487
486
486
474
470
471
473
468
467
466
474
470
455
449
465
471
453
431
421
434
470
505
508
495
474
468
469
475
482
486
488
494
490
485
491
499
504
496
503
504
502
510
512
505
497
488
486
477
470
454
443
443
448
450
454
463
469
475
479
477
475
490
503
496
485
486
487
490
486
481
471
460
454
455
457
475
486
495
499
502
499
496
489
485
481
484
480
483
494
486
482
481
473
465
466
472
475
470
467
483
518
538
534
523
507
506
514
492
474
475
477
463
440
442
465
475
469
465
476
490
493
498
503
498
493
488
494
505
513
514
508
500
494
498
503
492
476
466
475
487
499
507
510
498
489
487
483
480
483
483
480
481
486
485
479
484
485
492
489
484
465
450
456
455
467
492
507
516
527
536
539
533
527
512
501
498
501
508
508
503
497
493
488
489
495
496
498
494
486
488
497
508
516
521
508
512
525
533
531
515
508
510
523
543
556
557
566
570
571
577
576
571
570
573
570
569
555
535
535
533
520
505
496
498
500
508
503
502
497
495
491
481
477
473
475
474
480
480
480
479
479
485
477
470
471
475
469
456
457
458
466
481
512
531
520
503
494
484
478
475
474
477
472
472
472
468
474
478
476
476
471
456
441
447
465
473
489
496
488
481
468
456
430
434
445
448
452
453
450
446
445
446
456
457
460
463
463
466
477
474
471
479
488
489
474
464
459
460
466
467
458
455
446
451
470
488
484
478
493
503
509
501
495
483
469
464
473
481
477
464
460
463
480
496
502
504
499
487
471
464
466
482
490
505
512
516
519
524
533
552
567
575
584
605
635
652
678
714
750
789
821
840
866
889
908
899
882
876
886
889
892
913
912
895
866
834
791
730
644
566
481
399
337
277
216
170
141
131
122
110
103
111
111
107
121
140
156
173
199
231
268
299
323
338
350
354
352
365
382
398
408
420
420
425
434
442
436
437
445
467
481
485
486
489
496
505
506
502
502
509
509
514
508
504
508
517
518
517
524
529
522
515
512
513
513
520
523
513
507
518
526
525
523
517
510
481
482
507
534
552
550
543
536
541
542
535
541
551
549
547
529
513
517
517
494
501
519
529
533
524
516
519
535
532
529
529
527
537
535
528
523
528
538
539
534
539
538
530
521
513
513
520
525
525
532
553
568
566
559
551
552
559
565
566
566
560
551
539
540
545
554
563
567
564
554
544
532
537
541
547
545
539
530
531
545
566
575
581
576
577
557
555
566
560
549
545
546
553
550
553
559
567
581
587
587
586
583
578
579
568
562
564
564
571
581
594
602
613
618
619
609
595
585
569
550
551
569
590
599
591
579
573
582
594
596
585
569
562
575
592
604
596
599
599
597
594
600
605
602
592
586
570
564
550
543
545
566
572
569
570
565
544
536
540
550
560
564
565
556
545
540
538
538
539
544
541
523
517
517
520
523
531
517
502
492
485
476
466
464
471
482
495
495
480
451
431
434
447
450
447
445
444
444
452
443
432
428
432
435
432
426
417
400
390
397
400
396
389
383
390
398
398
386
368
362
388
414
424
427
423
409
392
383
374
371
383
393
389
390
393
390
388
392
395
389
386
386
385
385
375
376
376
379
369
356
362
379
394
400
399
393
395
393
394
380
354
358
370
389
403
404
392
377
362
356
369
378
399
424
427
435
432
430
427
407
411
420
417
422
428
420
425
427
426
418
409
414
428
438
434
425
417
425
436
435
425
421
419
419
427
432
435
436
439
430
421
424
425
414
402
409
430
469
488
494
491
484
475
465
459
450
449
457
468
485
490
485
476
471
470
469
482
480
470
464
464
456
443
442
445
444
455
471
477
476
481
493
498
500
507
511
524
520
519
519
516
503
488
481
470
454
447
440
436
444
452
466
467
467
465
452
434
430
434
430
427
430
456
490
508
504
477
467
470
481
494
512
523
528
529
522
499
479
466
468
478
484
492
489
478
461
453
457
472
476
482
489
495
496
486
480
480
488
489
486
489
493
491
504
505
498
490
470
459
462
466
475
492
499
500
504
499
493
486
487
488
487
493
496
487
474
471
482
482
481
478
478
482
490
493
484
479
484
481
483
479
489
496
483
472
457
454
455
463
481
495
505
506
500
489
478
481
489
500
509
505
497
482
478
467
461
458
463
476
483
483
472
467
469
483
487
480
483
488
485
486
493
499
511
515
504
485
480
486
487
489
500
506
510
508
505
503
500
496
490
485
483
485
487
486
497
494
492
500
505
506
504
486
480
475
474
477
478
484
486
481
486
495
493
488
480
478
481
479
482
489
489
484
468
472
483
486
481
480
490
485
475
465
469
482
495
506
507
490
481
471
470
487
505
502
490
479
473
479
492
500
499
491
490
492
509
526
531
542
544
532
522
511
501
493
489
491
506
517
519
514
520
520
521
510
484
466
464
467
461
464
480
497
507
517
513
515
507
490
477
478
492
501
506
514
518
523
525
524
533
544
550
548
549
554
553
555
548
547
552
559
562
563
552
536
521
517
520
523
529
533
527
518
513
510
509
507
508
517
506
498
500
504
506
509
508
501
501
503
504
503
484
463
447
446
455
461
465
469
482
474
465
473
483
473
457
449
441
443
457
463
470
472
475
469
461
464
455
449
456
475
489
501
507
503
492
482
480
473
457
449
456
465
461
453
442
445
467
472
458
452
456
448
440
436
453
469
487
470
455
454
458
470
470
471
479
496
501
497
501
497
482
472
471
466
450
452
451
437
426
425
439
446
461
481
496
505
510
513
514
513
500
494
505
508
502
498
498
490
476
476
475
474
468
473
481
496
494
480
489
516
530
552
583
604
627
656
697
742
779
808
828
858
890
904
902
898
899
905
911
920
920
932
941
933
910
868
820
747
660
577
491
416
347
280
219
166
119
81
59
45
32
26
40
58
83
125
184
229
263
281
293
303
321
339
358
368
373
379
390
390
389
394
405
417
429
440
449
459
457
456
464
472
472
471
479
480
473
471
480
491
503
504
507
504
497
493
491
482
480
488
506
522
532
532
545
553
552
542
539
532
532
520
515
513
511
494
487
481
473
460
478
511
528
544
545
545
557
567
565
557
544
532
534
537
540
532
521
527
542
543
545
539
526
525
529
550
560
561
552
547
543
525
527
533
536
538
532
530
523
520
516
518
522
522
523
529
538
548
556
558
549
533
522
528
543
556
571
566
555
545
548
542
545
558
562
562
556
547
546
554
558
559
562
568
559
559
556
543
544
557
562
563
577
569
554
538
541
549
562
568
576
581
583
585
589
582
563
556
558
567
573
576
567
554
539
546
572
610
625
619
616
622
612
597
591
591
584
580
579
578
578
575
580
584
580
576
575
567
560
560
561
577
589
596
591
592
607
621
622
624
618
616
608
603
595
583
559
526
501
503
523
541
548
557
557
539
527
525
535
543
547
545
540
537
531
510
490
477
481
504
527
535
534
531
524
522
522
520
525
528
532
515
496
471
455
455
458
471
469
465
452
429
423
427
427
424
423
420
422
428
423
422
416
410
406
397
398
410
418
416
427
429
414
404
403
395
390
391
401
407
391
371
368
369
368
376
381
382
387
400
384
368
365
380
405
414
412
411
412
408
391
378
391
409
421
417
405
386
371
354
335
325
323
331
355
373
385
399
412
413
398
386
390
404
403
397
390
382
382
392
404
415
423
417
406
414
424
418
421
425
424
425
429
431
431
441
449
445
444
447
444
429
431
442
445
446
448
448
451
449
449
445
445
456
447
425
419
417
420
425
445
450
449
446
447
457
466
473
475
477
474
474
460
445
434
434
437
441
440
441
442
438
426
417
431
444
456
463
473
486
480
471
473
481
495
500
495
485
479
479
481
496
494
476
462
437
418
420
440
460
483
502
508
511
504
499
491
486
494
505
507
516
520
509
484
482
480
478
473
482
486
471
459
452
447
445
457
468
485
496
502
495
484
477
465
461
450
439
448
467
473
469
459
443
442
470
496
513
507
498
488
480
488
497
505
490
485
486
486
485
477
481
489
492
483
479
478
479
475
485
476
467
470
480
492
498
504
504
503
503
513
518
511
498
495
501
503
489
460
434
428
434
447
465
483
484
486
495
499
494
496
488
480
477
484
488
492
492
485
495
500
492
488
491
491
476
465
474
492
479
465
465
466
461
466
473
471
470
473
473
473
472
470
453
440
438
445
463
478
480
489
499
513
516
516
515
524
523
518
513
513
507
496
487
476
472
476
473
464
462
467
472
480
488
497
499
503
511
515
509
510
512
513
506
500
477
445
418
412
432
442
442
438
443
459
475
490
501
507
505
503
503
504
495
482
473
474
479
489
492
492
490
488
489
493
498
499
501
508
506
485
476
478
480
466
469
476
482
491
486
470
462
461
472
480
493
506
515
500
489
486
494
501
502
497
496
504
495
492
499
507
503
496
489
476
472
482
499
499
495
485
467
455
451
446
444
448
448
451
466
489
504
509
508
506
515
521
518
508
504
488
482
490
495
497
487
485
494
505
520
528
525
521
525
528
532
527
511
500
489
495
500
509
520
525
532
536
536
531
530
535
547
561
562
550
548
553
556
536
525
532
540
545
546
552
558
553
531
515
506
500
499
508
510
486
470
466
479
490
492
485
482
479
463
446
440
446
463
477
490
490
473
473
479
482
467
463
462
470
468
477
489
493
499
490
473
462
459
455
450
443
444
453
464
467
470
476
476
480
471
460
458
467
480
496
496
485
489
480
467
465
472
483
480
487
501
500
479
464
443
431
433
441
448
440
431
419
417
423
434
447
463
463
453
449
452
452
459
455
455
459
459
475
487
499
503
500
482
470
475
475
474
479
475
469
477
474
479
493
500
504
497
491
478
466
460
450
440
445
457
479
495
497
500
514
528
540
546
551
557
568
595
639
685
720
747
778
809
845
871
893
891
876
868
870
885
900
899
891
884
897
913
902
871
838
770
676
600
532
453
366
280
201
136
104
95
84
41
17
18
38
66
101
114
118
144
177
200
219
238
264
295
329
350
367
379
388
393
400
417
432
449
441
432
425
441
472
490
501
506
497
498
509
513
511
502
493
474
453
447
447
469
495
496
507
519
521
523
530
534
533
540
548
533
531
538
543
539
534
535
532
521
517
517
519
511
507
508
507
513
512
506
501
497
502
505
510
504
508
521
528
525
529
540
555
573
574
555
547
549
549
552
555
553
554
549
543
530
515
522
538
533
524
529
523
520
533
546
563
566
564
553
546
545
532
516
507
509
517
512
509
525
543
547
549
561
575
587
582
574
563
564
560
546
540
543
543
540
537
535
537
543
540
539
534
541
545
543
544
556
566
560
561
565
575
588
589
576
555
548
555
574
592
592
588
571
558
558
561
564
555
545
542
555
579
608
626
636
642
638
635
625
608
588
575
572
573
578
581
574
563
571
572
584
582
572
576
586
583
579
581
581
584
586
593
602
598
589
583
577
578
585
575
566
559
546
534
532
536
536
520
497
490
483
492
519
548
565
566
559
546
529
528
541
548
548
536
522
521
518
515
503
490
467
458
458
460
461
468
467
460
468
473
484
484
480
475
476
475
463
451
451
453
459
458
448
436
432
434
429
420
397
387
391
395
396
400
407
405
408
405
409
415
410
403
398
391
378
385
391
393
394
395
401
388
365
358
353
367
381
394
394
391
385
390
390
383
380
379
375
382
392
396
400
391
377
374
380
398
417
419
414
403
391
374
363
385
404
423
445
440
436
434
421
399
388
389
386
397
406
412
406
401
388
383
388
397
399
400
412
426
430
429
435
438
454
452
456
464
478
479
462
450
441
434
428
429
437
432
422
404
389
396
402
410
435
462
477
481
471
459
446
448
467
478
490
487
477
466
473
482
493
491
483
476
476
475
466
451
447
445
444
440
454
475
494
500
497
489
482
469
461
462
468
472
463
465
462
462
455
450
449
457
463
456
455
448
441
446
449
457
460
464
457
453
463
478
481
481
477
477
490
498
504
503
494
477
462
455
456
459
462
456
460
452
451
475
491
489
484
473
469
468
467
471
477
484
466
451
444
450
458
466
470
480
489
495
489
485
487
490
494
486
484
478
475
477
476
466
458
460
452
440
432
440
470
493
507
511
503
482
465
455
460
467
466
463
470
471
466
455
441
445
466
473
482
476
478
481
480
482
482
482
477
468
454
451
452
462
467
472
475
482
470
461
463
485
500
494
491
486
483
501
519
521
506
500
493
484
478
471
471
475
474
478
488
492
495
491
485
481
476
475
485
493
500
512
520
511
499
489
484
475
464
460
453
443
433
427
438
457
485
491
489
491
477
479
491
493
487
482
484
484
492
489
483
479
474
473
474
481
484
485
476
462
463
469
474
468
468
485
512
513
504
500
502
502
495
497
503
503
509
508
504
500
490
487
483
474
469
473
487
513
519
511
502
498
498
505
506
503
500
493
482
469
465
478
501
507
508
509
509
504
495
489
481
487
483
472
471
468
463
457
459
468
489
508
514
515
510
502
507
513
514
508
502
484
470
466
479
487
496
492
471
454
453
467
474
479
485
495
495
480
468
488
525
547
566
574
570
562
558
561
569
574
555
542
552
562
564
561
557
559
558
559
554
533
518
501
492
487
472
470
475
474
470
480
489
499
509
512
519
507
490
487
485
476
466
454
448
451
460
451
445
443
448
439
424
417
426
449
478
494
494
484
473
472
474
471
470
479
489
481
469
473
479
459
449
449
455
461
458
455
457
462
466
469
468
465
472
480
469
450
451
456
468
475
485
491
477
465
452
441
448
463
462
452
449
443
442
443
451
466
475
466
463
471
465
454
454
466
479
494
496
492
488
489
492
487
474
458
460
468
469
470
469
475
484
489
484
480
467
442
443
463
484
489
483
476
473
475
473
474
476
483
495
513
536
540
549
568
600
630
657
686
715
740
767
804
850
887
913
912
907
915
923
925
923
910
901
900
894
873
834
779
699
604
515
426
331
237
160
94
47
33
36
39
39
45
57
58
59
76
102
125
152
185
222
259
298
323
332
341
358
377
386
390
402
411
408
408
419
428
439
435
425
429
447
473
483
484
490
495
494
490
499
494
486
501
520
533
539
542
551
547
537
534
526
525
532
541
546
542
527
512
515
513
517
515
524
526
515
497
490
505
534
562
569
561
559
560
550
544
555
556
553
543
533
530
519
524
532
540
549
552
542
535
524
522
528
530
533
527
515
515
514
517
514
522
544
549
537
519
509
513
518
534
541
547
544
538
536
546
556
566
568
560
559
554
553
552
557
558
546
532
527
531
527
534
554
559
557
549
531
535
555
566
576
588
582
566
551
551
562
563
557
549
558
573
571
553
553
551
542
532
534
544
552
558
551
547
556
571
577
588
601
601
597
594
590
579
573
567
567
556
556
562
579
592
586
578
558
549
552
558
549
552
562
575
587
594
602
599
598
593
591
590
579
564
554
559
580
594
598
597
599
600
599
577
558
553
557
532
512
509
520
534
537
532
526
523
531
546
552
552
544
530
521
525
531
527
514
511
518
522
530
544
539
531
528
535
545
539
498
466
460
462
466
472
477
487
480
476
482
476
471
467
463
467
468
469
462
437
411
396
396
401
406
405
408
408
396
386
384
392
400
407
418
428
425
415
401
398
396
402
397
384
375
372
377
381
379
374
374
377
384
390
388
376
375
386
389
396
396
399
399
395
398
396
390
382
373
373
381
375
360
357
369
393
410
409
404
401
406
401
385
378
387
395
393
396
403
402
407
405
395
398
404
412
418
415
413
412
422
432
426
417
412
408
415
424
426
430
430
421
420
417
418
421
434
443
451
456
464
471
475
487
479
470
452
440
446
448
443
452
477
480
468
450
436
423
425
436
450
460
462
463
472
472
461
452
459
458
468
480
486
478
461
437
423
426
448
454
451
454
455
461
460
463
480
493
498
480
461
459
467
471
479
493
493
496
494
474
456
451
456
464
472
468
462
453
450
458
469
486
475
470
478
477
474
486
492
495
492
485
475
467
473
485
484
476
459
450
459
473
490
495
494
492
488
486
482
483
483
481
489
505
518
509
501
473
444
438
448
453
447
443
448
455
458
465
467
458
452
448
453
463
471
480
484
484
498
492
479
478
485
493
487
484
485
476
452
442
438
441
451
456
455
477
488
487
495
502
499
487
489
488
486
494
503
508
503
507
501
475
470
476
461
456
462
467
465
467
478
489
491
489
488
490
495
495
498
498
493
495
502
512
508
504
502
500
490
480
475
471
465
458
454
451
451
460
473
472
470
475
470
472
479
483
489
499
494
488
484
483
486
488
495
507
504
490
470
463
480
495
507
500
479
479
487
496
505
515
512
499
477
463
466
489
506
504
494
480
483
499
512
507
506
500
496
499
503
506
510
512
519
515
498
482
485
495
489
474
465
460
465
475
488
497
489
485
489
498
507
506
507
509
512
508
494
487
487
488
495
498
501
492
476
463
462
457
462
463
476
489
508
514
506
498
499
498
498
492
479
465
447
449
469
473
482
507
521
520
509
503
493
495
511
515
519
515
513
512
500
500
502
495
484
484
499
521
543
546
535
529
510
492
483
475
479
481
471
478
493
505
497
496
495
502
501
503
506
522
532
532
525
524
533
542
548
545
547
549
527
511
528
537
552
573
574
563
557
551
542
539
527
519
508
495
494
489
488
495
491
503
508
518
519
522
518
512
508
495
488
479
472
477
486
483
475
470
464
466
470
470
470
475
475
468
465
475
482
475
463
459
461
456
456
451
456
472
490
484
468
470
486
488
485
494
507
509
500
494
479
458
446
449
455
464
462
468
465
449
444
452
459
463
464
465
469
470
469
466
462
464
461
472
487
487
488
483
469
454
444
440
450
441
439
445
453
457
445
435
441
452
465
481
489
485
488
489
483
487
495
500
508
510
507
494
479
476
478
473
469
472
471
469
476
484
495
500
499
500
493
498
515
529
560
589
595
611
641
666
688
699
722
760
795
809
821
848
871
896
912
918
909
894
888
885
896
907
907
874
821
775
701
607
525
436
353
280
210
155
123
100
91
81
77
66
85
103
119
137
152
174
201
219
246
259
270
289
316
339
356
367
376
388
401
415
416
414
408
410
430
449
469
473
483
503
513
515
518
512
510
513
524
524
527
530
512
500
497
498
506
519
527
522
507
489
481
474
470
471
474
496
525
537
538
536
539
547
550
546
546
542
536
529
529
526
530
530
531
529
522
517
511
513
515
523
529
521
526
530
530
530
527
522
518
520
523
520
517
522
530
538
532
530
536
533
535
544
539
545
541
552
552
542
538
536
532
538
535
534
549
563
570
567
560
563
557
547
544
544
544
537
539
540
544
556
562
555
548
551
560
557
558
569
581
587
564
550
557
549
545
548
544
531
517
517
532
549
558
560
550
544
546
552
552
550
551
546
544
542
544
558
573
585
591
593
580
568
564
577
578
580
574
565
563
569
581
595
586
570
573
584
585
581
577
573
581
594
616
619
606
593
578
572
571
563
556
567
580
597
589
580
578
579
585
579
561
550
548
555
566
570
563
557
559
561
560
559
532
504
504
536
556
561
560
557
555
557
570
561
528
502
495
488
480
480
476
477
475
476
476
466
472
483
489
489
473
466
466
468
471
468
453
443
452
457
459
456
445
440
431
418
404
396
389
376
373
382
416
443
450
441
432
433
423
413
405
395
402
411
408
400
394
387
385
390
401
415
422
415
406
404
402
393
379
376
375
379
381
373
370
378
383
379
381
388
385
381
389
400
404
401
394
391
390
385
390
391
378
383
403
423
429
419
408
402
405
413
425
422
415
402
392
389
396
390
393
404
398
385
378
389
411
416
415
422
420
424
419
418
418
425
424
415
415
422
431
428
429
436
443
440
429
399
396
413
435
452
460
462
468
472
480
490
491
488
469
445
434
434
438
439
449
468
478
478
481
475
466
460
463
467
475
477
472
464
452
446
448
450
456
462
478
486
484
479
478
473
470
466
464
465
469
478
495
496
489
486
472
451
433
436
448
463
476
474
445
426
425
438
445
446
452
470
480
478
476
479
481
486
492
490
493
499
506
510
506
516
516
506
509
508
498
493
491
494
492
491
482
471
469
473
469
466
467
476
474
465
460
453
458
465
467
473
471
460
447
436
434
448
462
494
524
538
542
537
523
522
513
509
502
505
495
475
466
458
452
447
451
454
458
458
450
449
461
460
448
449
456
471
485
484
476
479
485
500
512
502
496
478
470
475
482
495
499
493
486
496
489
474
475
484
490
483
473
472
478
483
481
480
477
476
484
492
497
495
489
482
478
482
490
494
500
498
493
498
492
483
490
502
505
500
500
502
495
488
484
484
485
488
496
495
487
487
490
491
492
491
484
471
467
472
473
467
473
473
476
483
488
476
477
481
474
460
462
463
466
471
475
484
492
496
495
487
480
478
480
475
472
478
483
491
494
499
503
500
497
486
475
470
449
435
440
446
438
428
444
459
486
496
496
473
454
465
490
514
522
521
523
523
522
525
523
516
512
513
510
498
483
474
480
486
486
468
457
458
462
468
474
495
513
516
508
502
499
490
485
490
486
480
480
486
489
476
478
479
473
477
484
485
488
496
501
496
495
487
485
497
510
516
522
513
506
497
486
474
464
467
483
510
524
530
512
489
468
474
489
503
502
496
497
501
495
494
494
501
493
487
486
477
474
478
479
488
501
504
503
500
495
492
491
498
508
518
522
528
538
555
578
578
559
540
531
533
534
532
539
539
542
537
536
540
535
531
524
516
513
521
520
503
502
516
529
537
542
543
546
530
520
516
513
508
490
471
462
462
470
489
496
493
484
492
496
465
446
437
438
434
440
449
451
454
460
460
452
450
454
453
459
464
469
474
473
471
477
475
473
471
474
470
465
481
498
513
520
505
484
475
478
478
462
449
441
440
439
449
446
439
436
437
444
458
461
465
467
475
486
486
473
461
455
460
465
468
463
456
454
453
454
463
468
469
462
457
464
477
480
476
474
480
492
501
496
497
490
465
456
457
461
461
460
453
452
460
461
456
454
451
446
443
446
460
472
486
495
509
531
552
574
588
606
635
672
692
699
720
746
770
786
812
836
870
900
921
932
926
920
927
920
913
922
908
883
861
834
777
684
598
511
419
346
291
234
161
105
74
54
40
30
39
64
91
108
119
140
170
193
215
247
282
310
330
335
346
365
387
408
419
423
419
417
411
416
417
436
443
451
462
446
434
440
452
464
464
466
473
477
483
492
487
480
491
501
506
506
513
525
535
538
529
517
517
526
537
533
531
535
546
550
547
523
506
502
513
520
523
517
512
522
527
525
518
511
509
511
513
527
529
518
507
506
510
535
548
553
552
552
545
540
547
548
552
548
542
527
526
524
507
498
493
498
501
514
528
535
545
557
553
531
513
515
527
553
557
544
548
550
551
558
565
569
569
556
556
554
550
555
565
560
547
533
527
530
537
542
543
546
547
538
540
550
559
551
533
540
551
560
561
559
552
535
520
514
536
558
579
594
597
598
604
598
590
571
540
538
553
571
588
590
595
595
587
586
577
573
568
569
573
578
575
578
589
593
597
597
588
583
589
600
611
612
605
596
589
586
592
593
590
579
570
566
561
573
590
595
570
548
540
545
559
563
558
548
547
552
550
537
522
522
530
546
555
552
555
555
546
541
524
510
495
494
496
495
503
512
524
538
544
530
514
511
514
515
513
515
515
515
513
501
484
468
453
457
468
479
492
478
472
459
460
472
466
452
447
444
441
434
434
427
413
397
391
387
392
398
394
384
377
373
366
364
373
383
395
393
404
424
432
415
390
379
386
400
408
400
394
394
398
401
404
400
393
390
393
399
402
399
379
361
352
348
340
330
330
332
331
348
377
397
409
398
398
405
401
396
399
402
416
431
441
439
436
425
418
407
398
397
393
394
391
390
395
402
410
414
406
398
405
407
403
410
412
422
435
451
470
476
474
455
445
444
447
443
439
437
424
417
417
420
429
440
450
455
449
442
441
438
441
447
460
461
459
457
454
449
444
446
441
436
438
438
440
442
447
446
452
453
451
450
454
466
482
492
500
503
503
503
501
494
493
493
480
469
470
473
471
470
462
444
433
430
433
436
447
463
472
474
473
468
466
473
477
466
459
463
483
497
492
483
487
496
512
529
523
509
496
498
495
487
472
471
472
473
438
424
435
459
489
487
482
481
471
454
442
449
453
463
485
503
510
508
510
509
515
518
517
497
473
461
451
447
449
468
483
477
459
447
447
465
477
479
478
472
475
477
482
490
486
480
477
475
478
479
484
493
486
480
473
473
480
474
473
471
477
476
460
455
461
492
518
528
527
509
489
486
494
498
483
462
455
465
466
441
449
460
487
499
508
509
503
492
485
486
482
484
495
499
501
493
487
483
475
459
455
460
461
463
471
484
508
507
491
493
497
488
481
479
478
460
440
446
458
466
464
464
468
469
463
466
467
468
481
479
478
481
488
493
488
488
479
475
470
468
461
458
460
452
440
458
526
562
565
564
562
551
531
510
489
470
463
469
485
486
477
480
487
493
496
492
490
483
471
470
472
460
458
471
489
501
500
483
472
471
470
472
474
476
471
467
455
461
471
479
497
500
499
507
507
493
479
475
477
485
488
479
479
483
497
519
525
518
513
502
490
486
477
483
495
495
499
503
508
494
493
500
504
500
485
463
443
438
455
470
469
458
461
470
489
514
519
520
522
522
522
514
504
498
497
496
494
494
482
480
482
477
471
472
474
478
482
495
494
492
496
500
504
508
511
509
506
516
533
543
542
545
547
538
538
536
538
538
543
543
540
548
549
543
544
541
534
527
512
506
514
522
540
542
539
529
531
529
515
517
515
511
506
490
484
489
496
492
488
484
488
479
466
463
457
453
458
468
475
465
454
448
436
417
425
439
452
464
479
489
492
480
452
453
469
470
470
471
470
470
474
478
491
486
469
468
461
455
459
447
443
445
439
440
451
459
459
455
447
442
444
454
451
446
442
437
442
444
451
450
441
437
438
455
466
474
480
480
471
466
477
477
472
474
485
489
502
514
513
505
499
484
465
455
450
450
448
442
441
446
459
472
475
480
487
494
493
492
492
477
458
455
452
467
485
491
497
498
500
511
540
569
584
591
605
629
662
699
726
755
799
829
853
886
899
908
909
908
910
909
896
887
885
885
867
821
781
754
722
655
564
469
373
281
195
134
96
79
70
60
43
46
62
81
100
115
133
157
187
215
226
237
251
281
309
333
362
373
386
401
408
412
411
405
402
417
430
449
461
448
455
454
467
485
501
506
504
497
495
505
512
518
523
521
513
500
495
509
522
515
504
488
485
486
482
489
512
532
538
545
547
542
546
545
540
538
532
535
549
561
571
570
575
567
563
557
549
542
548
551
546
531
509
497
489
491
495
508
521
528
527
519
522
525
513
504
513
530
568
584
590
580
574
562
552
540
532
533
528
524
524
527
533
536
531
532
526
530
544
542
539
528
524
530
540
550
550
547
543
532
512
485
478
502
548
584
592
591
587
588
585
573
571
583
605
620
633
631
627
605
584
568
563
556
546
537
528
522
522
526
528
530
538
553
568
585
601
611
604
581
577
593
606
613
607
606
590
575
579
591
580
567
563
563
570
570
579
577
576
575
577
580
589
590
586
584
574
573
580
580
586
591
586
588
578
572
566
575
588
590
569
560
564
568
566
559
575
591
591
582
590
593
607
608
588
565
544
524
519
510
507
506
506
513
515
523
520
508
502
474
460
450
465
494
501
500
483
475
473
471
485
501
510
501
495
491
482
485
484
481
479
474
464
459
437
421
415
438
465
457
441
422
418
420
415
412
401
400
403
413
416
426
412
385
382
392
406
401
400
401
407
397
378
375
378
394
407
415
416
421
420
410
398
389
387
375
358
350
336
329
334
335
341
349
342
344
352
362
366
371
378
382
391
396
390
378
370
373
386
410
435
446
444
436
424
419
426
424
411
417
417
402
396
395
402
414
411
402
407
408
403
411
424
426
408
406
421
445
462
462
444
449
449
444
444
450
472
481
468
456
453
447
437
439
437
440
428
426
420
419
431
428
422
431
449
458
465
462
457
454
459
477
478
470
468
464
458
447
429
420
423
432
444
448
452
444
447
459
461
470
488
489
493
493
485
474
481
487
483
482
485
483
477
475
469
462
468
477
497
511
509
498
497
485
469
470
475
478
474
463
441
426
421
429
437
460
479
490
492
495
491
483
482
491
498
483
466
450
453
446
440
430
415
415
424
456
487
500
493
475
458
450
459
487
524
544
538
528
495
472
474
473
465
455
454
468
469
451
434
434
448
458
458
455
454
467
465
461
466
467
471
477
478
473
474
489
487
491
484
486
498
506
492
478
492
519
507
493
492
497
493
486
489
489
479
477
474
464
452
453
458
470
483
491
500
504
479
456
440
432
436
463
481
487
487
492
485
476
483
495
485
473
468
453
458
462
458
452
449
458
472
477
485
500
508
505
501
493
479
482
481
492
503
510
512
509
507
499
481
474
476
480
487
499
500
495
504
513
516
517
507
496
499
509
516
512
503
490
468
456
467
488
503
501
499
506
498
491
489
480
472
467
462
480
499
510
506
509
524
520
525
514
492
472
466
472
479
481
487
473
467
468
482
493
498
498
497
496
497
496
493
488
500
524
538
537
548
524
465
442
451
469
470
462
452
463
484
485
486
492
505
503
503
517
539
542
541
536
518
509
514
523
535
555
572
582
576
567
554
523
506
500
502
506
523
524
526
524
528
527
521
523
540
555
545
529
517
504
494
492
504
520
532
528
515
499
495
493
475
478
486
487
483
489
489
486
478
472
462
452
448
451
453
467
482
483
478
477
470
464
460
455
457
450
445
453
445
443
448
453
457
466
470
467
461
451
453
465
460
464
464
472
473
464
465
473
470
462
449
448
466
472
467
466
463
441
437
432
435
450
471
492
501
494
483
480
477
472
479
480
481
485
473
461
468
471
475
484
479
466
462
459
453
456
461
464
470
479
483
485
490
492
482
471
460
454
445
434
448
481
507
532
546
555
559
553
538
540
541
543
532
546
552
560
590
619
658
706
749
772
792
814
830
859
883
890
899
898
913
930
912
897
885
869
854
825
768
691
607
520
420
313
219
137
65
32
19
21
22
42
55
61
86
116
132
147
168
206
240
268
286
303
323
343
359
377
382
388
395
383
382
384
404
416
432
460
476
488
489
475
454
462
490
514
531
545
539
523
514
514
517
511
505
504
503
514
520
524
522
520
524
529
531
524
516
511
509
518
523
526
526
526
526
518
514
517
531
537
548
556
563
563
557
546
537
541
533
514
525
547
556
559
564
567
563
556
543
539
547
558
557
547
540
548
557
565
577
579
581
576
572
562
539
521
516
528
542
553
555
551
536
526
519
518
537
558
555
558
570
585
590
580
569
567
563
558
564
561
561
569
575
567
565
569
577
584
572
562
559
564
558
549
557
564
558
554
550
535
523
512
512
527
536
543
564
588
618
625
611
605
608
603
602
606
608
603
587
566
546
541
545
545
546
548
554
556
561
568
565
561
571
598
596
571
569
570
580
594
603
610
613
615
609
608
609
614
614
608
600
585
581
591
585
576
573
574
589
594
587
590
578
567
570
575
578
584
589
600
605
592
572
574
573
562
561
557
546
531
523
516
509
515
521
538
538
523
514
510
508
512
515
520
520
504
484
470
461
443
436
442
466
495
499
483
465
459
466
473
472
465
459
457
459
460
460
452
437
424
423
420
425
427
428
432
427
415
405
400
398
397
403
407
399
387
384
388
398
399
398
388
383
396
397
383
366
352
359
379
410
429
430
428
414
408
396
385
381
392
387
386
387
383
365
365
368
370
383
382
365
356
367
385
397
394
404
420
430
431
423
411
399
391
391
392
397
402
409
418
419
421
416
412
414
418
412
406
396
392
410
420
423
414
409
416
439
449
442
440
444
450
457
468
479
481
477
461
453
451
456
453
446
450
448
450
464
470
468
466
461
442
444
458
479
468
434
411
423
447
477
493
487
481
477
478
481
478
477
491
501
469
442
439
453
470
478
492
475
453
452
450
449
442
447
458
465
470
483
501
509
491
476
472
471
470
460
452
460
463
469
467
447
434
443
452
463
467
474
489
496
483
476
480
470
461
464
473
484
493
487
495
481
454
443
443
452
461
486
506
515
520
511
506
506
493
479
482
487
484
492
491
487
482
475
473
474
468
466
444
429
427
433
444
457
462
468
468
469
472
474
476
480
479
472
469
471
478
490
484
486
487
466
451
460
466
463
465
468
465
468
478
478
483
480
479
479
480
481
477
475
470
463
472
475
469
474
487
491
488
484
472
468
482
499
512
509
490
475
469
464
457
448
452
467
477
489
497
497
489
475
459
462
475
484
492
494
495
503
513
503
479
457
454
472
511
515
505
494
490
494
499
493
497
504
509
499
490
486
487
492
490
488
488
486
467
455
460
472
493
507
515
515
511
509
509
509
507
493
482
488
492
496
494
496
497
492
499
507
496
486
480
468
472
484
480
488
518
556
580
580
584
590
590
584
571
572
578
573
568
566
561
558
561
550
530
510
504
512
520
515
504
492
484
487
486
492
482
467
467
486
501
508
509
499
485
487
489
497
512
518
520
516
505
477
452
444
442
448
459
453
461
476
486
480
467
459
464
469
467
452
454
467
472
462
463
469
460
455
456
469
487
493
490
487
470
467
468
469
471
472
479
478
484
481
486
482
480
475
473
474
485
490
485
475
443
420
406
400
405
416
432
449
466
474
470
468
462
461
463
465
471
470
471
476
487
492
491
483
482
485
479
471
466
460
458
467
481
492
492
497
494
480
467
452
441
450
471
497
505
484
478
499
516
517
528
554
578
599
624
639
666
697
710
728
745
770
801
824
851
875
890
903
904
896
896
904
914
912
906
898
877
849
804
744
654
556
454
340
246
192
144
101
69
68
64
52
46
56
81
110
132
145
154
175
208
246
275
302
321
330
336
343
343
351
361
380
390
397
417
431
435
448
470
490
505
514
514
508
510
513
518
521
516
520
526
527
532
536
541
549
532
521
517
512
500
497
505
522
538
528
520
517
512
504
485
485
495
516
526
530
517
520
536
551
558
545
530
526
515
511
519
538
549
545
541
542
531
516
516
523
538
552
551
541
540
534
532
535
532
544
556
555
540
535
531
532
539
542
538
526
531
546
560
564
565
564
550
548
555
575
586
591
582
573
560
549
539
528
540
540
546
555
553
543
540
534
535
542
568
587
594
595
591
580
562
545
546
525
510
509
520
541
557
557
562
561
552
537
529
533
538
555
583
592
588
577
578
580
583
586
582
579
574
571
572
567
579
602
622
634
625
603
580
568
575
596
599
591
585
570
574
570
575
592
599
609
595
583
581
587
594
599
601
597
592
591
602
605
597
583
571
563
568
579
592
593
577
559
551
563
579
592
593
579
565
549
555
551
536
536
532
535
536
522
515
525
542
546
542
544
547
550
550
542
523
516
514
509
509
504
491
480
477
477
477
468
463
472
475
463
447
438
429
431
435
446
448
441
435
434
437
444
443
429
420
420
426
431
422
412
404
392
391
401
410
408
414
414
399
388
384
383
379
387
398
396
391
387
399
406
413
404
390
385
386
389
395
399
395
391
395
392
385
368
351
351
356
371
382
364
344
356
373
374
366
375
384
367
352
355
368
391
403
415
410
400
405
413
414
410
388
372
374
386
399
415
435
433
417
414
427
436
427
412
410
412
427
446
441
445
447
439
439
449
454
453
448
432
421
419
423
426
428
433
438
426
404
397
410
423
448
456
453
435
425
420
433
456
464
461
463
473
473
473
472
462
453
447
437
428
437
455
471
480
482
476
477
474
471
468
470
468
469
474
485
480
472
474
475
479
472
474
474
489
499
505
509
503
495
482
472
472
475
475
462
455
460
466
463
460
457
464
468
470
468
467
472
486
491
478
466
468
481
489
491
499
496
489
475
460
461
462
455
459
473
474
466
456
453
452
461
483
502
498
498
503
520
517
501
500
511
529
530
519
503
501
489
483
485
475
471
472
466
445
422
420
408
408
423
446
468
485
485
491
488
483
479
486
504
516
520
517
513
497
487
486
487
490
488
479
478
471
461
457
461
463
465
465
459
449
438
433
445
462
477
489
488
488
494
502
525
533
522
503
494
493
499
504
496
480
470
468
470
475
482
485
485
492
494
488
483
483
482
473
474
481
484
474
463
458
465
485
498
498
493
493
485
467
451
444
452
459
475
483
485
479
475
475
482
495
511
529
534
514
490
488
497
500
480
461
465
475
481
483
490
497
504
516
522
507
480
466
475
493
506
504
510
516
510
506
507
503
505
506
518
521
516
491
476
479
487
494
516
529
521
513
511
520
531
537
539
534
535
539
536
534
541
534
533
538
525
517
520
521
519
527
538
542
542
544
541
552
558
541
525
515
493
486
484
479
478
477
471
476
478
480
485
486
469
465
465
476
499
515
520
512
498
475
464
453
452
457
461
466
460
462
461
464
463
470
474
483
488
489
485
487
490
476
469
469
463
457
463
460
454
450
448
444
445
446
447
456
464
453
454
464
469
461
454
452
450
450
460
463
464
468
471
482
487
478
467
458
455
457
457
453
441
435
429
434
443
475
498
505
491
471
466
477
484
477
477
489
506
489
468
474
489
488
481
472
463
469
486
488
480
466
457
457
455
453
454
457
465
466
467
475
484
494
509
521
540
563
579
588
611
636
657
687
714
751
800
837
862
881
882
884
894
909
912
915
916
906
912
921
925
910
870
818
744
652
563
461
366
292
234
186
146
129
111
96
85
85
104
115
116
116
133
153
167
193
217
252
280
290
298
318
340
358
370
374
371
381
396
412
427
437
443
448
459
470
468
458
449
435
439
458
479
481
484
495
502
506
502
503
508
511
505
499
489
491
496
500
503
503
511
528
547
549
549
544
540
546
547
548
540
544
547
537
530
523
521
520
508
498
496
506
514
502
495
499
516
525
537
542
540
541
545
551
537
514
508
527
533
527
529
525
530
539
548
554
547
533
533
543
545
540
539
550
565
561
560
549
542
539
539
531
529
522
517
519
520
509
498
501
515
537
562
570
580
585
584
567
553
541
539
538
544
553
559
566
568
565
558
553
558
558
555
567
566
564
556
555
560
581
581
576
565
562
551
539
537
538
547
574
595
607
603
602
594
599
593
587
577
559
563
572
574
564
565
580
593
604
598
590
585
581
578
576
589
602
613
614
612
602
599
609
617
604
601
599
597
596
591
582
571
569
572
575
578
583
581
581
575
569
562
566
572
578
584
588
588
584
586
587
573
560
562
570
586
596
580
566
558
536
529
530
530
524
509
500
490
485
488
488
490
489
495
502
504
483
459
444
442
449
444
429
428
429
442
456
448
444
444
453
459
453
447
442
441
448
443
436
431
417
406
397
392
398
402
401
404
405
395
388
397
398
400
397
396
391
383
379
380
386
384
389
394
394
389
385
385
379
376
375
377
381
379
371
359
355
357
357
358
343
335
346
370
396
397
394
386
374
372
384
398
419
424
403
385
387
393
396
401
401
401
394
378
361
355
366
368
373
389
403
413
415
417
404
400
389
385
383
387
395
414
449
452
454
465
464
443
424
420
427
429
428
428
424
433
446
444
433
436
441
442
436
425
420
429
432
418
421
425
426
421
412
413
423
434
440
443
454
458
468
474
471
467
460
454
455
461
464
466
472
483
487
498
508
507
504
499
514
526
521
494
469
459
461
451
439
431
434
435
434
434
436
443
443
440
432
441
457
465
465
453
447
452
464
484
506
502
500
501
496
496
494
493
493
493
490
480
478
477
482
487
486
481
469
472
484
495
500
500
495
497
501
502
512
510
492
469
458
456
461
460
461
471
481
479
470
469
484
488
489
497
500
502
506
507
508
512
519
494
463
458
456
462
462
458
446
445
455
446
431
413
424
451
483
493
483
475
473
470
478
487
495
490
488
470
468
485
483
483
486
492
496
485
480
486
487
491
493
499
504
512
509
498
499
490
477
475
476
472
473
470
463
472
475
482
483
478
479
487
493
498
496
488
473
474
479
487
490
495
499
507
503
490
474
450
451
466
461
449
446
470
497
504
488
476
480
484
475
471
471
470
465
462
471
484
493
490
485
486
489
480
483
492
490
489
490
483
482
495
507
512
514
507
505
516
512
509
503
483
470
480
486
467
455
458
468
484
482
466
455
457
462
477
468
473
490
511
522
521
515
510
505
499
491
491
512
535
546
551
545
544
548
550
550
555
568
579
569
565
562
553
544
535
519
509
520
535
548
544
531
528
524
526
523
520
515
497
498
500
489
472
467
479
487
478
472
464
471
475
468
459
452
466
468
466
453
443
438
441
427
414
399
400
422
461
487
493
483
482
477
480
482
476
477
473
476
476
476
479
491
495
485
470
461
445
437
434
443
450
467
480
488
483
465
437
433
443
465
490
499
496
480
469
469
467
465
470
482
482
478
474
457
454
450
451
465
475
483
490
486
479
467
450
442
440
443
454
466
458
451
452
454
457
459
454
453
458
477
495
499
495
485
486
489
488
480
473
470
468
474
478
474
474
481
493
511
520
532
551
568
583
601
632
687
737
771
810
827
850
881
906
915
924
918
917
915
920
926
934
932
936
941
928
895
846
774
674
582
502
427
350
270
194
127
91
90
92
75
70
65
71
79
81
87
112
145
184
212
217
210
214
238
298
354
383
387
388
395
391
401
420
445
463
462
465
469
469
483
498
494
486
483
478
475
484
496
495
487
471
465
474
506
532
536
528
517
515
520
519
520
530
552
542
529
519
519
526
527
518
515
518
525
530
534
529
520
510
500
498
501
494
480
484
492
479
480
487
497
513
512
489
489
518
549
545
540
540
535
536
545
562
571
556
541
539
539
554
558
567
565
570
581
575
561
551
545
539
530
525
534
534
542
550
565
576
565
552
549
548
552
560
566
572
567
574
570
559
559
551
550
542
535
539
551
560
563
550
530
528
539
546
540
531
528
534
545
551
566
574
573
562
563
571
583
584
563
554
567
573
575
574
581
584
577
557
533
535
575
606
632
642
636
613
589
571
567
572
578
587
595
601
610
614
616
615
622
630
626
613
608
608
610
614
614
613
594
577
577
577
591
603
600
580
565
569
571
565
569
576
576
566
555
561
569
577
573
564
573
576
562
552
555
561
562
565
560
566
557
541
546
552
524
502
492
478
465
461
476
517
542
546
517
506
509
521
525
520
517
509
496
491
480
461
452
443
455
456
447
444
451
445
431
421
411
399
403
412
418
416
418
414
412
412
411
408
397
381
366
362
379
384
387
393
394
402
413
403
400
390
380
379
385
394
391
382
374
369
354
348
357
385
412
418
404
383
374
364
352
349
355
354
356
351
353
362
371
375
370
372
383
394
400
404
398
398
403
398
402
394
372
372
378
385
391
398
417
452
439
425
419
412
401
402
413
412
411
402
398
399
400
401
401
401
404
407
405
410
424
448
458
465
464
460
464
465
465
459
441
411
406
408
417
421
402
395
413
441
446
451
459
472
478
479
477
476
481
478
461
457
454
453
458
449
431
420
426
440
449
453
454
448
437
439
443
453
464
470
468
456
455
463
473
477
482
487
483
478
484
492
492
482
473
463
448
435
425
441
468
484
498
505
507
480
458
458
459
461
469
464
467
469
469
461
452
444
455
466
483
500
502
504
491
482
474
476
476
476
464
452
446
435
432
431
437
450
468
479
474
469
477
493
513
519
501
485
467
455
452
454
462
473
479
476
472
466
478
480
473
460
457
462
463
465
473
494
505
499
488
482
494
497
504
516
517
496
481
465
437
422
405
398
416
430
450
458
461
466
479
485
489
488
484
481
487
492
478
475
479
484
478
470
468
478
500
512
521
522
519
506
503
504
496
487
479
472
461
450
433
425
412
428
461
502
528
525
504
491
492
494
491
481
480
483
492
494
484
473
470
479
484
494
493
486
467
461
477
499
523
529
518
516
512
510
501
521
536
523
506
493
488
481
476
484
475
462
457
457
481
502
510
500
486
480
477
468
447
437
443
464
493
509
521
514
503
500
500
507
519
544
559
554
547
546
538
543
562
581
585
575
559
552
554
560
562
550
534
526
517
524
530
528
531
527
522
527
533
527
522
513
515
514
502
494
487
483
477
457
450
446
450
453
459
461
463
460
458
456
458
449
445
434
426
432
426
422
427
458
488
509
516
495
470
460
479
503
506
498
494
491
479
471
461
453
455
470
469
459
459
465
477
482
474
475
481
478
486
493
482
464
452
446
455
463
458
445
435
434
428
432
443
467
481
492
488
482
468
461
451
443
441
441
452
467
477
485
494
495
489
490
482
477
463
455
442
432
429
433
455
474
479
478
483
472
448
433
441
451
467
484
491
491
490
485
486
490
512
535
543
545
551
555
567
587
617
655
686
723
748
756
776
798
818
839
859
875
888
899
896
901
914
912
904
892
886
869
843
792
721
639
560
479
392
289
209
135
77
49
43
34
24
31
45
58
56
61
86
118
145
154
182
235
286
300
306
322
340
360
382
402
403
397
404
424
443
443
435
443
449
454
469
488
496
487
478
488
502
514
513
507
511
519
516
521
537
536
527
524
514
503
492
489
505
528
538
544
548
538
525
512
511
517
523
529
525
532
540
547
549
537
530
529
528
533
538
535
536
543
557
558
561
559
548
535
530
524
511
505
503
512
515
508
510
534
546
551
554
558
565
563
561
557
555
571
575
561
548
542
518
509
508
506
515
516
523
547
569
570
556
558
576
588
577
552
534
524
526
538
554
561
567
571
567
567
574
578
575
567
564
562
566
571
577
579
584
580
567
558
544
535
530
525
527
516
498
491
482
493
520
570
605
612
616
630
634
634
636
621
590
571
562
562
559
564
577
581
568
560
574
593
600
607
620
629
616
607
619
617
596
588
595
604
615
607
593
590
591
584
576
564
557
577
594
604
619
617
603
586
576
572
573
566
563
546
534
536
538
541
534
541
558
570
568
564
560
566
587
581
569
562
553
541
549
551
541
530
516
522
522
517
498
478
491
510
516
523
532
513
488
458
452
458
474
476
479
475
465
451
442
437
436
438
440
449
441
421
405
400
410
416
418
422
425
428
424
407
391
374
370
361
357
373
395
397
383
367
370
380
379
373
377
372
366
362
364
373
384
395
397
386
380
380
382
390
398
398
399
404
406
401
404
413
404
391
390
389
394
384
381
365
357
357
365
374
377
372
366
361
367
374
379
379
373
374
372
377
382
387
391
389
394
394
396
396
394
396
404
410
414
416
414
419
425
418
387
380
400
414
423
433
423
411
405
399
403
424
448
459
466
485
495
488
476
463
446
432
429
433
451
465
467
459
459
469
470
473
469
473
477
482
476
468
462
462
455
449
442
447
458
463
452
441
439
453
480
501
507
501
483
472
467
475
485
497
492
483
470
457
449
447
446
441
440
445
449
438
439
465
479
495
495
478
463
452
463
470
487
505
507
496
460
425
417
425
440
450
449
450
442
444
463
477
475
459
448
455
468
476
475
472
464
461
474
485
505
510
491
488
493
489
476
463
463
478
492
502
503
498
485
465
454
451
434
403
396
404
416
428
436
449
446
448
464
479
484
492
505
519
526
525
520
505
482
455
440
436
438
446
453
461
466
464
469
463
469
458
443
450
451
450
451
463
463
457
453
448
455
478
484
483
480
479
474
465
456
452
458
465
474
475
474
467
465
471
477
486
491
495
491
510
515
518
512
509
509
514
516
507
491
476
472
473
473
477
488
500
505
488
464
457
459
476
494
501
497
498
496
502
496
488
467
458
466
467
463
469
481
484
500
511
513
514
519
527
539
543
533
510
498
491
501
532
543
544
545
554
551
528
521
507
513
537
559
550
548
550
548
532
517
512
515
521
542
568
575
569
561
545
527
514
499
494
493
499
486
470
456
440
425
417
417
416
424
438
449
454
455
458
466
476
488
491
481
477
477
479
480
478
476
490
499
483
472
462
447
429
415
407
403
403
423
456
488
496
487
479
470
459
460
458
459
454
453
459
462
471
472
477
486
491
491
492
506
501
483
476
476
482
475
464
443
414
402
418
439
448
451
452
454
459
460
455
454
453
452
450
456
473
475
476
477
488
491
484
481
481
477
481
496
498
485
457
435
432
439
446
456
463
474
485
499
518
522
519
522
536
553
576
597
610
623
651
684
696
721
750
796
838
867
892
910
916
920
910
899
894
896
908
913
916
900
852
789
709
621
539
444
361
308
250
191
144
113
92
58
30
36
51
69
87
101
123
137
152
173
190
211
233
255
286
328
364
393
396
407
419
418
423
426
444
464
479
478
487
486
474
480
477
464
461
465
464
486
507
513
506
494
493
502
521
529
516
514
519
516
512
516
520
516
521
519
519
511
508
517
528
538
551
550
538
516
509
515
532
533
532
525
515
506
503
510
512
503
500
513
526
534
548
555
553
545
530
502
495
503
513
513
529
541
550
550
563
569
571
574
565
547
536
531
535
541
544
551
555
552
559
572
576
573
563
556
542
530
523
528
536
544
561
574
574
563
553
549
543
537
534
523
518
530
549
570
593
602
587
566
551
545
537
523
513
514
529
536
538
539
547
559
567
571
562
562
559
562
571
583
582
578
561
557
582
612
635
647
635
617
617
611
592
582
586
588
572
569
576
580
586
592
599
596
590
589
584
591
597
598
588
587
596
596
588
586
592
598
605
606
607
610
613
607
592
579
575
575
581
591
591
594
579
563
560
554
553
551
540
540
550
568
580
599
600
582
568
544
511
498
498
517
523
520
528
547
556
548
530
523
512
514
494
486
483
482
477
478
475
479
479
467
463
450
430
423
433
442
446
451
441
447
443
442
430
422
428
439
447
448
439
436
429
423
415
403
389
384
377
374
368
356
358
376
391
392
378
368
382
397
389
376
363
354
351
348
347
331
333
380
416
431
427
420
416
412
392
364
353
352
360
360
354
343
343
351
367
376
367
368
369
376
394
387
388
382
390
381
370
380
404
420
418
419
417
421
421
415
413
411
412
416
412
398
395
408
417
415
419
422
429
435
428
428
427
430
444
440
432
423
407
392
385
400
408
418
423
429
445
438
410
391
385
392
406
424
430
435
447
448
451
465
455
437
437
442
432
434
431
426
440
458
471
486
491
466
448
425
413
422
435
458
482
501
510
509
502
495
486
478
484
490
484
469
458
454
452
442
433
431
443
453
458
473
481
482
495
502
492
478
477
489
500
492
489
500
518
519
500
474
467
474
472
461
468
480
489
480
467
461
455
449
448
454
454
439
446
458
465
476
470
452
444
449
471
485
481
481
497
505
499
489
489
502
503
501
500
482
470
478
492
500
507
502
491
478
473
475
472
470
473
477
479
477
466
451
446
477
511
505
486
475
476
493
509
504
475
448
460
476
484
479
487
501
504
498
500
496
489
483
481
476
462
463
467
479
475
468
467
471
480
485
474
471
481
491
497
483
475
480
484
490
492
487
477
479
486
498
493
485
488
496
499
500
492
482
494
501
482
480
473
475
473
449
435
442
474
496
491
478
472
488
512
507
494
500
509
514
522
513
507
493
475
489
508
519
516
508
498
490
488
483
480
476
472
461
457
467
474
478
478
474
465
460
480
507
535
545
534
523
521
522
523
515
508
496
495
495
490
480
477
478
478
481
480
480
478
487
493
504
515
514
516
523
521
496
480
489
504
506
514
515
533
538
532
527
517
532
559
564
551
550
553
558
555
539
543
561
564
557
547
540
537
530
530
537
543
540
531
509
492
484
486
499
505
505
499
495
490
484
482
484
486
482
478
468
445
436
447
456
457
456
458
456
452
452
454
455
447
438
436
431
430
438
436
432
439
458
483
488
485
486
485
473
460
460
468
473
474
466
445
431
434
451
462
473
483
491
502
513
509
517
508
497
490
488
488
494
492
486
480
472
461
452
433
412
416
432
445
454
451
452
460
460
454
462
457
451
448
452
452
459
462
478
493
517
529
517
508
503
505
506
513
505
499
478
448
433
428
434
448
434
413
419
428
457
484
506
516
529
540
553
569
579
591
624
652
674
700
720
734
764
803
845
886
911
926
927
940
946
939
938
939
949
953
944
916
868
814
734
642
552
472
398
326
246
177
122
91
67
60
49
51
71
97
124
139
144
167
199
237
282
318
336
342
353
368
382
388
407
424
440
454
453
437
421
415
420
441
455
462
455
439
429
430
438
447
450
453
470
479
474
464
464
482
499
501
504
513
522
537
534
523
520
530
545
558
551
532
508
483
472
470
493
523
529
508
493
487
494
506
524
536
541
545
533
520
520
528
550
559
542
534
507
490
488
536
577
569
548
530
521
507
512
508
510
519
523
532
531
531
537
547
554
555
553
551
551
550
545
543
542
539
542
549
540
543
539
535
536
533
539
550
547
534
521
511
510
522
534
540
549
568
569
541
538
549
548
540
555
573
579
569
558
545
540
539
548
564
569
583
599
604
601
599
598
593
575
549
533
523
518
522
517
526
528
528
529
541
557
563
559
546
550
571
586
599
616
622
616
611
600
586
590
607
610
625
635
636
630
623
630
635
635
620
612
609
606
608
615
610
597
589
603
603
589
584
595
601
590
580
582
598
606
607
597
568
557
562
573
577
571
571
571
568
555
548
541
537
537
539
534
528
522
524
529
526
514
504
497
481
473
468
479
497
497
488
478
466
457
447
456
475
497
510
502
498
494
494
495
491
476
462
461
468
475
460
437
432
433
440
442
435
423
415
414
409
407
411
404
397
389
377
367
352
340
339
351
366
382
398
404
422
443
439
410
390
388
385
386
382
366
350
340
342
350
350
349
354
361
357
353
355
350
342
341
353
375
395
383
370
358
348
364
377
379
384
386
395
400
404
408
409
409
407
399
394
399
404
410
414
412
413
399
396
401
406
399
389
389
387
390
393
378
370
376
391
398
417
434
444
451
439
419
413
407
405
411
417
423
428
440
448
454
461
465
461
453
445
446
452
456
450
444
435
428
419
416
416
411
405
396
400
412
426
447
459
455
452
454
453
444
454
465
474
469
467
485
481
465
466
478
486
495
511
512
494
476
457
443
435
443
454
460
443
436
440
455
467
463
456
449
449
466
481
486
494
492
481
474
470
480
495
496
492
489
488
477
471
466
453
445
450
469
480
477
465
463
460
475
491
489
491
500
502
496
484
484
481
455
443
445
446
452
457
454
459
470
476
483
488
506
510
506
508
506
485
470
464
463
470
474
475
476
486
509
529
537
528
515
512
515
516
497
486
488
467
461
454
446
449
456
456
457
460
461
466
471
476
483
491
489
491
503
499
478
465
467
483
497
495
479
467
464
465
468
472
477
479
481
477
481
483
482
477
462
458
460
473
489
490
477
454
450
453
447
457
475
489
497
497
499
501
506
497
483
486
500
504
506
501
497
488
491
492
495
499
492
492
494
493
483
477
470
463
467
469
480
489
485
480
485
497
502
503
508
513
510
504
494
489
492
492
493
481
459
451
454
463
475
482
482
470
467
471
466
475
488
487
475
483
489
494
485
487
503
509
508
494
490
481
450
424
415
416
439
472
489
477
461
462
463
472
477
483
495
499
518
533
531
523
523
528
513
501
502
502
502
507
525
536
528
519
508
499
508
517
516
525
533
541
555
545
527
498
483
498
519
530
532
549
569
576
568
549
524
512
523
530
510
503
509
520
535
536
531
527
533
527
518
511
502
504
504
513
510
504
498
487
470
447
443
434
430
424
428
443
470
511
522
505
490
479
475
494
504
499
490
479
469
464
457
464
472
467
453
442
442
457
452
455
471
473
456
448
444
441
440
438
427
420
425
449
474
483
482
470
459
454
445
447
456
473
490
483
486
476
466
467
473
485
496
500
493
479
463
462
461
451
451
454
449
428
425
437
445
446
451
453
457
467
482
500
508
510
510
508
499
485
476
467
463
457
458
459
464
472
473
475
476
459
438
443
453
464
465
459
451
451
451
439
450
464
483
496
524
545
569
597
619
660
697
724
753
771
795
836
874
917
944
953
959
954
934
932
934
934
936
929
919
895
854
800
729
644
576
512
430
354
276
194
136
112
101
90
77
72
84
106
131
142
152
166
177
198
218
229
247
271
291
292
302
320
352
392
407
404
401
405
405
408
423
447
460
473
469
464
467
474
490
504
514
499
496
494
501
511
517
528
533
525
514
502
486
475
473
492
518
530
528
512
522
550
566
559
549
558
556
550
542
533
518
523
536
543
540
523
498
467
454
477
497
522
525
522
516
515
519
517
522
534
548
555
549
546
540
536
534
527
521
516
518
519
506
504
499
504
525
540
543
549
553
552
549
550
563
561
543
533
533
537
547
549
540
535
538
554
555
552
541
541
541
545
552
539
529
527
519
518
527
573
619
634
641
639
629
610
585
567
556
553
564
569
566
556
542
532
523
508
485
499
510
532
547
533
531
546
570
583
591
592
599
597
597
603
593
583
584
586
588
592
591
591
593
590
593
578
560
540
535
544
567
589
595
586
570
564
579
597
616
626
628
615
605
608
620
633
632
623
620
614
611
611
609
618
610
591
575
565
564
585
599
608
597
597
599
587
576
570
558
550
543
537
530
526
528
540
547
538
535
533
514
488
477
489
499
512
513
508
496
491
476
464
467
483
495
500
494
488
477
462
444
437
435
427
429
427
441
450
447
441
446
446
448
441
428
428
431
450
461
444
425
406
397
383
372
380
390
395
395
388
388
387
370
362
372
385
392
395
398
392
397
415
426
435
420
398
385
377
370
354
334
319
335
354
364
372
372
371
373
364
364
365
354
356
362
367
365
362
371
384
387
377
370
372
389
401
401
396
400
424
448
456
436
402
389
396
403
413
406
400
394
396
390
395
412
430
439
439
421
415
433
446
440
437
442
443
447
426
412
413
420
425
432
442
436
428
416
408
408
407
428
434
429
430
444
459
453
454
475
482
478
467
458
460
463
470
474
465
451
441
444
447
444
453
461
459
454
439
437
436
436
443
457
460
456
453
446
441
452
453
456
468
481
499
515
522
514
514
513
515
504
495
496
486
466
452
445
458
458
456
463
453
434
419
428
442
449
459
456
449
447
456
470
487
494
496
494
499
499
488
480
475
476
479
482
486
486
492
493
496
499
507
511
519
504
474
464
463
455
433
410
408
415
429
449
472
500
502
480
449
440
451
473
495
502
495
491
490
488
499
506
500
494
488
484
474
461
450
453
454
452
464
500
527
518
501
481
465
458
447
437
444
454
462
465
463
467
465
466
473
479
465
462
461
460
464
476
488
501
500
491
497
499
497
514
513
497
495
493
498
505
506
499
491
486
487
489
492
501
498
490
471
458
466
465
458
467
479
484
491
490
502
500
498
492
481
484
490
491
493
494
495
493
503
517
514
505
489
483
480
485
494
500
494
483
477
485
488
493
489
474
477
478
475
473
480
484
481
481
484
483
478
476
477
498
501
500
490
480
485
496
499
498
486
482
479
487
505
523
529
524
511
500
501
507
517
521
524
508
488
477
480
493
491
479
468
469
486
477
481
491
494
497
494
501
501
511
517
512
496
494
513
528
537
539
534
534
541
542
534
516
510
507
510
515
527
529
519
517
521
521
518
522
528
533
545
555
565
564
553
541
536
531
529
528
536
538
515
498
492
491
501
502
509
507
493
484
483
488
476
460
450
455
475
490
484
482
485
477
470
465
472
478
478
479
482
483
471
461
463
458
460
457
466
482
487
480
483
475
477
482
486
488
490
488
479
471
469
473
482
488
486
471
454
457
471
463
452
437
424
417
412
423
443
461
468
461
419
404
428
461
475
469
463
461
460
471
476
467
464
470
477
473
476
480
498
513
515
510
511
502
507
506
487
464
449
443
442
447
457
463
465
459
450
455
459
454
459
462
462
463
470
465
451
451
465
477
477
477
484
492
504
515
527
538
545
557
577
597
620
648
674
691
723
757
784
816
852
882
907
919
921
914
908
917
909
893
882
878
870
847
805
742
672
602
509
421
330
234
149
83
58
56
58
58
58
74
95
122
137
144
144
128
133
170
214
250
294
315
319
325
342
356
371
394
411
418
424
422
426
437
447
456
459
463
459
465
479
491
495
490
485
472
483
496
512
528
530
520
509
510
526
538
545
539
531
529
535
536
539
540
542
524
515
517
518
526
539
544
534
516
514
527
527
537
547
545
537
530
527
522
512
508
512
527
540
551
550
534
528
531
530
524
525
527
522
510
522
542
572
583
566
565
542
527
531
537
552
564
565
559
556
549
538
545
540
547
549
538
530
527
524
540
556
562
560
543
531
530
533
530
515
515
537
559
580
582
577
560
547
541
531
532
534
533
541
552
564
572
577
573
566
560
564
566
566
554
548
545
554
557
558
552
554
556
565
572
579
589
581
555
536
545
569
593
599
607
605
591
583
571
564
570
573
583
584
584
575
576
581
587
599
616
619
615
606
589
561
547
562
577
595
611
622
625
620
619
601
585
571
565
563
563
563
563
571
571
569
570
579
586
584
583
579
562
557
556
552
548
543
539
539
535
527
513
496
467
467
490
506
520
542
569
579
565
545
543
544
540
540
534
519
502
483
469
470
466
461
458
450
449
449
451
445
437
436
440
443
434
423
414
411
416
429
413
406
407
401
399
390
395
405
414
410
407
406
407
404
390
385
388
380
380
394
398
392
396
397
396
388
389
394
391
382
383
380
383
376
357
338
330
323
329
348
361
368
359
361
362
367
373
373
379
381
382
374
370
385
395
389
388
380
376
369
372
378
382
392
409
409
405
403
397
392
387
380
391
410
417
412
407
403
404
423
446
455
445
421
410
410
425
438
429
418
419
439
454
460
473
473
464
454
443
430
429
419
404
404
413
426
430
425
435
463
467
475
465
451
448
457
462
467
456
454
449
443
432
439
455
470
480
480
478
471
471
479
474
472
467
473
482
486
489
483
483
490
476
466
456
453
452
462
469
465
462
460
470
483
479
470
473
473
472
470
460
463
467
472
486
497
489
472
467
470
471
469
469
466
460
462
471
477
480
474
461
453
440
431
434
446
470
502
507
495
485
491
498
500
494
485
486
498
494
490
479
467
463
461
458
456
464
478
480
477
464
461
454
457
451
467
481
487
491
495
497
497
506
506
496
485
482
478
464
454
454
453
451
455
459
459
454
458
455
460
476
489
490
479
471
466
466
456
460
472
474
474
474
466
460
463
461
464
479
487
481
478
488
491
480
469
463
468
473
470
475
465
453
447
455
463
460
464
474
477
477
481
482
488
498
497
488
481
484
498
507
509
514
523
530
532
523
513
493
483
477
476
477
477
474
476
482
487
494
489
486
483
485
498
516
515
507
497
485
478
481
483
482
474
472
478
475
473
460
468
472
462
456
460
469
492
516
517
508
496
490
490
498
505
503
506
502
497
486
493
494
487
482
481
492
491
494
503
507
523
536
546
529
519
516
515
512
509
506
503
501
487
466
459
456
458
459
473
492
510
512
513
509
503
514
528
531
532
539
548
558
568
565
559
554
543
542
542
542
550
561
561
560
552
551
547
540
526
518
514
511
512
516
524
531
529
525
515
509
498
486
486
488
473
459
461
465
474
478
489
500
492
487
505
525
529
518
508
496
485
477
482
469
458
457
464
476
472
459
450
445
446
450
462
464
459
458
460
447
438
440
435
441
446
462
472
468
479
489
483
473
467
467
461
461
457
457
468
473
470
467
451
441
443
452
460
463
464
466
462
458
449
457
461
471
480
480
470
473
487
502
507
495
492
493
482
475
470
470
473
483
493
490
485
477
467
464
479
509
512
493
477
473
475
467
469
468
458
440
429
425
436
454
450
454
488
515
531
541
548
557
566
581
601
623
657
685
715
729
748
777
812
843
875
897
903
897
886
889
889
887
883
881
888
893
870
832
778
707
649
596
529
458
385
316
226
151
112
98
100
99
99
112
126
135
149
164
179
193
227
264
282
292
312
332
347
361
373
381
383
390
395
409
436
461
458
456
465
470
480
482
494
495
479
469
469
475
492
508
518
523
515
508
494
495
503
503
498
480
466
483
497
507
500
500
506
512
514
500
488
478
463
463
475
491
506
514
536
553
553
549
547
538
537
539
541
537
535
537
537
542
540
541
537
529
517
500
490
491
507
530
554
566
557
558
552
545
544
549
560
557
555
551
553
556
558
568
567
561
552
540
529
530
537
547
552
555
554
548
538
536
546
559
576
579
555
536
517
508
511
522
528
522
528
535
533
528
510
491
483
500
549
574
567
564
558
558
561
574
568
554
567
574
576
578
582
575
560
551
547
535
523
510
524
543
567
583
588
605
619
615
614
622
625
624
620
620
623
619
610
598
590
597
598
594
589
593
589
583
580
574
572
569
571
575
572
563
555
549
554
558
570
588
594
590
592
604
611
614
607
601
599
589
586
584
573
562
573
584
581
578
569
558
551
555
545
552
558
553
552
556
547
544
521
504
493
491
496
507
511
517
519
516
501
485
480
486
485
484
498
501
503
491
481
480
483
482
474
476
478
475
466
464
448
434
428
424
421
416
405
383
374
380
387
388
393
399
408
411
413
418
421
401
384
368
364
361
365
374
397
412
414
405
395
398
403
408
410
404
395
382
366
350
344
340
340
342
361
392
410
398
387
386
383
378
385
393
395
393
391
389
381
376
360
355
359
370
386
385
382
383
384
383
386
388
395
394
392
391
396
405
407
401
381
376
387
398
404
402
391
380
375
374
372
377
388
403
403
407
413
418
422
430
443
455
463
455
434
424
422
427
430
427
415
415
423
438
441
436
433
428
426
424
425
431
440
435
423
421
426
437
441
445
424
420
427
439
468
484
480
475
486
511
532
524
492
473
473
473
459
449
439
433
434
440
445
452
467
475
467
460
460
456
456
467
475
456
440
429
439
470
503
517
514
506
494
476
457
453
460
468
470
467
464
464
458
459
469
484
501
510
503
486
484
470
453
452
457
474
474
473
468
476
488
488
474
470
477
486
498
503
502
500
492
483
488
486
485
481
489
507
506
489
489
492
485
466
453
455
469
484
489
486
479
471
474
479
478
469
472
461
463
485
498
500
493
493
498
503
502
501
498
487
487
491
488
479
475
478
475
468
475
480
476
474
474
470
458
455
459
456
451
453
469
477
493
507
518
529
520
513
515
517
514
511
507
482
460
453
457
449
448
461
472
473
466
459
458
448
445
461
479
489
490
492
488
476
479
485
486
493
496
497
479
466
460
472
494
500
510
507
498
502
504
504
509
503
486
471
473
485
489
496
486
475
464
452
453
456
476
484
482
483
482
477
474
483
483
468
461
467
479
483
482
487
494
498
492
474
478
490
500
502
501
496
493
492
490
478
465
457
459
459
458
460
467
471
474
470
472
491
513
529
528
520
502
491
492
483
474
461
454
454
465
484
500
504
488
473
475
488
501
501
493
488
490
489
497
502
489
463
456
478
516
544
550
535
521
504
492
484
483
481
492
502
510
512
514
521
518
510
506
512
519
522
518
515
519
525
535
532
533
539
538
527
510
506
500
500
516
538
553
560
542
529
537
541
537
522
512
510
517
515
504
498
500
509
521
524
526
529
527
518
509
507
501
491
478
460
462
460
451
447
448
452
446
439
453
483
488
485
482
487
490
488
485
489
489
483
475
479
470
458
458
469
474
479
469
464
464
461
463
471
479
475
464
461
470
474
472
468
472
471
464
462
467
471
472
464
461
456
453
450
446
455
461
459
458
465
464
457
443
436
444
442
430
416
409
411
432
457
472
472
479
492
507
520
519
501
490
488
491
496
489
486
485
488
490
487
475
465
467
472
464
450
445
447
439
439
448
455
461
472
483
483
484
483
486
487
503
533
574
592
596
616
640
661
690
718
739
789
831
881
927
946
925
916
923
944
943
926
903
894
889
875
852
835
821
767
681
611
540
463
397
314
228
165
133
118
95
72
67
69
73
83
97
119
137
143
177
219
255
285
308
319
320
329
343
351
366
380
376
375
377
383
402
417
433
446
452
463
479
490
489
484
487
490
479
475
478
491
500
510
509
509
505
508
521
529
530
528
520
505
498
497
505
514
521
525
529
526
520
518
527
522
502
487
477
470
475
485
496
512
514
508
506
508
499
506
525
534
539
548
553
554
549
545
550
544
535
537
530
527
525
526
527
520
509
493
501
508
516
531
530
530
534
543
552
563
558
530
516
529
539
543
539
526
519
511
515
527
549
559
554
547
548
554
556
553
542
551
571
588
582
568
553
539
531
536
551
557
561
558
552
549
552
561
567
570
569
561
559
558
552
541
529
515
503
517
557
590
585
580
587
596
605
605
600
593
583
580
578
570
567
574
584
596
593
589
589
585
577
574
571
579
577
566
563
554
551
554
568
586
603
616
619
619
619
621
619
622
613
607
604
607
609
597
591
590
598
594
579
567
563
553
546
559
569
577
569
555
545
542
547
554
548
558
565
562
553
552
555
557
553
545
538
525
524
543
547
534
532
529
516
510
504
494
481
475
471
470
471
479
487
482
473
467
454
444
432
422
409
404
402
407
414
424
423
423
430
440
441
436
437
435
412
391
384
397
420
426
425
418
413
410
408
407
414
417
416
408
402
398
392
367
358
365
373
375
373
383
380
380
383
385
390
391
389
399
406
412
409
386
374
367
355
347
342
348
360
371
378
391
393
374
358
361
365
367
354
356
374
386
385
364
343
338
354
386
420
435
436
432
431
421
409
395
388
400
408
405
402
408
417
422
421
422
426
426
419
412
412
408
403
407
418
424
420
410
401
395
391
401
417
443
454
457
462
461
450
438
447
467
473
475
472
477
469
440
421
418
423
434
445
457
457
446
436
441
446
446
454
453
458
451
444
442
451
446
434
413
403
414
429
435
443
458
481
479
467
462
463
473
479
477
485
489
488
491
495
498
502
497
477
459
450
460
474
490
500
495
485
475
477
476
473
474
478
465
454
442
429
427
440
467
489
492
479
454
453
459
476
504
514
513
508
500
494
487
484
487
488
485
488
492
488
480
482
479
480
478
469
472
469
467
459
448
450
458
476
489
492
488
480
464
455
456
457
453
448
456
469
478
486
479
479
484
486
490
484
473
486
494
483
480
496
504
499
502
493
477
464
472
482
483
479
469
464
459
459
461
460
457
458
469
477
471
467
481
494
510
514
506
480
472
470
469
473
476
475
490
501
512
507
497
490
478
472
479
488
500
497
477
471
466
464
474
466
459
468
472
471
471
480
490
487
481
476
471
469
462
457
447
441
464
489
491
490
484
488
495
502
497
494
496
500
505
515
519
508
483
472
476
483
487
473
466
452
442
449
473
496
500
490
487
482
503
522
529
526
521
511
500
478
466
466
478
492
497
495
485
467
455
453
463
470
474
476
489
503
512
503
505
501
499
492
502
510
506
506
509
512
498
489
485
493
498
506
521
530
518
510
509
503
493
482
472
464
465
479
496
507
503
487
488
495
496
499
497
495
503
514
520
519
531
546
558
546
527
527
532
533
528
524
533
553
569
577
569
562
548
543
552
549
543
535
535
536
521
520
536
543
532
522
508
485
481
494
496
504
502
495
487
489
498
493
483
477
476
471
473
472
477
481
481
474
472
475
478
480
481
478
467
459
454
452
445
447
443
438
437
433
431
434
453
470
479
497
502
492
479
466
467
467
462
456
454
450
458
474
485
475
450
439
449
470
495
497
496
487
477
472
472
465
459
465
468
469
462
454
457
456
465
466
463
473
482
485
489
486
487
482
480
478
483
478
480
483
474
471
457
465
464
447
443
450
462
476
483
485
478
466
456
464
472
472
476
469
471
468
474
489
494
501
514
525
532
538
571
609
658
693
712
743
772
790
821
866
902
915
911
898
894
893
893
907
913
907
904
918
913
881
841
789
707
607
528
451
370
292
211
139
87
62
61
63
51
36
49
81
94
105
123
138
171
189
207
218
250
283
299
306
316
334
368
406
420
425
413
415
417
417
441
465
477
481
480
480
477
467
457
457
467
483
506
532
540
548
550
541
546
552
544
541
522
502
502
513
528
542
560
578
567
550
522
508
497
497
504
510
506
488
480
460
449
462
500
524
521
512
514
528
545
556
555
553
548
535
517
499
502
525
534
538
540
545
537
537
549
564
562
554
555
555
548
542
523
517
515
525
536
543
546
546
553
557
563
561
558
552
557
562
554
546
534
541
545
536
536
538
542
546
563
585
602
589
572
560
566
579
581
571
568
558
542
530
506
507
520
523
528
536
546
555
552
559
564
561
567
568
572
573
560
540
530
516
522
538
560
577
586
596
588
585
583
574
571
568
569
574
572
573
577
590
600
608
602
592
599
608
620
615
598
590
586
585
582
588
601
606
605
594
594
592
590
591
594
595
607
614
605
605
599
584
583
567
550
555
569
589
606
605
587
587
593
594
586
564
551
546
536
533
548
569
577
575
575
567
558
550
542
526
498
492
494
505
519
519
511
504
504
499
495
490
479
478
460
435
431
454
472
480
480
480
477
463
452
449
459
467
460
445
426
418
416
412
399
389
392
395
392
395
398
395
374
345
344
363
382
389
399
401
399
403
418
417
409
401
390
368
352
360
379
399
410
407
406
388
375
381
375
382
393
402
388
384
387
380
375
367
359
378
398
406
392
380
379
382
374
368
357
366
382
393
392
396
394
392
408
429
421
389
369
374
387
384
382
383
386
402
416
409
385
377
393
415
423
436
437
437
438
443
437
431
423
408
405
422
442
454
446
446
447
448
430
421
418
428
437
439
446
454
462
464
463
459
457
450
444
447
443
457
471
473
480
478
474
469
466
474
476
478
478
466
463
453
426
428
455
481
496
502
497
498
493
482
479
467
459
456
456
460
459
447
434
421
418
427
436
439
441
453
468
473
466
456
462
477
485
482
467
451
449
453
464
473
470
467
472
488
495
497
497
498
488
478
480
472
464
457
467
466
466
468
474
480
474
470
468
466
471
465
460
461
460
475
488
481
470
473
489
502
495
482
471
481
483
478
469
464
467
470
475
482
478
459
455
448
448
451
448
446
454
476
478
463
446
446
457
453
451
460
481
482
477
470
466
468
477
476
468
456
432
430
437
452
456
462
483
493
497
501
502
499
494
483
467
462
472
471
467
466
464
455
456
469
490
500
503
496
485
484
482
480
487
492
503
499
500
512
499
482
476
485
495
503
488
474
467
463
469
470
483
496
505
507
496
477
475
474
483
493
511
519
517
516
505
490
484
488
484
481
482
485
496
504
513
511
496
490
472
474
482
490
496
494
489
475
461
454
469
481
491
508
521
526
518
502
483
466
462
465
475
479
482
498
514
514
507
508
511
505
504
502
509
528
532
546
546
544
532
523
516
496
486
490
504
533
550
558
560
553
543
545
542
530
525
531
533
547
557
560
554
549
539
529
516
513
522
532
510
492
495
496
501
494
488
503
508
499
485
484
467
433
423
434
458
479
480
468
457
451
445
445
454
455
464
470
478
472
470
476
467
464
468
480
468
443
433
431
441
449
457
472
482
490
494
499
502
501
495
478
469
466
468
464
455
442
444
454
464
466
466
474
475
464
460
466
462
465
455
456
466
467
474
475
460
452
465
473
471
464
465
481
481
473
469
476
502
527
535
521
502
469
452
457
463
465
455
449
452
461
471
468
455
445
444
438
435
440
449
450
460
474
484
498
519
552
568
577
595
623
646
657
675
693
716
748
781
803
828
857
883
898
912
916
915
909
895
886
877
864
843
801
746
699
634
560
476
393
310
230
141
62
26
39
60
45
40
47
66
87
107
126
141
160
188
220
237
241
257
294
331
348
360
369
382
398
408
403
403
407
420
443
449
463
473
484
499
510
513
505
492
492
505
516
520
527
528
532
534
522
496
484
487
498
506
507
507
522
520
510
519
517
527
542
545
534
526
531
539
535
531
524
529
538
536
531
520
511
512
521
522
524
518
526
547
560
564
568
558
551
547
544
537
527
525
525
531
532
536
539
544
553
556
555
553
549
542
528
530
543
565
582
590
587
572
565
548
534
517
504
507
534
561
565
557
543
545
542
534
545
553
551
546
536
543
538
534
538
534
527
516
517
526
533
540
546
556
555
543
540
534
543
552
573
591
594
595
584
576
586
587
579
567
558
555
561
559
555
545
529
521
518
519
541
566
586
593
592
582
581
581
589
596
605
600
599
606
619
629
627
626
635
626
619
606
596
602
601
602
590
573
558
554
563
571
575
580
590
606
600
593
589
597
595
587
570
558
561
572
571
569
577
590
603
609
611
599
571
562
565
558
546
550
553
546
536
538
531
512
496
485
485
489
500
501
496
489
485
487
480
475
469
464
469
469
473
479
479
484
474
459
451
461
465
478
479
468
465
462
456
443
438
433
417
398
396
390
387
377
376
391
402
416
421
410
406
407
409
417
417
411
417
431
435
430
410
393
384
376
366
355
335
330
331
330
332
348
366
374
384
392
384
374
370
356
351
359
366
368
372
377
380
377
369
358
340
332
346
359
375
403
422
419
412
414
416
415
410
405
419
432
436
426
417
401
395
391
401
408
408
391
380
380
391
410
427
440
447
434
429
424
436
452
466
478
476
465
449
439
441
448
446
437
429
435
445
462
463
464
464
455
451
455
464
468
468
462
457
453
452
448
429
406
401
404
427
446
449
451
457
460
458
459
471
484
493
485
480
477
484
493
500
496
482
475
462
462
466
462
462
474
471
460
456
457
477
498
507
496
478
462
455
456
469
485
480
469
469
484
486
482
481
477
476
483
489
497
509
515
511
503
493
488
487
484
472
467
471
479
480
471
473
476
472
464
458
458
452
453
451
452
463
472
479
470
446
444
453
462
470
476
477
471
470
480
491
498
500
496
504
498
479
469
467
479
485
473
468
479
481
474
472
472
469
467
465
462
456
447
459
465
472
478
484
496
496
486
481
481
470
465
469
480
486
483
476
469
458
449
450
460
484
487
472
476
477
475
468
466
463
457
473
483
492
505
515
517
513
506
499
495
492
491
476
456
443
446
463
476
479
485
480
478
473
467
465
468
474
482
497
496
484
480
482
486
484
484
483
496
500
499
501
500
495
496
508
509
518
520
501
485
482
495
507
519
519
516
528
543
553
551
550
543
552
558
554
550
535
518
506
511
518
519
523
520
506
505
503
510
518
523
529
533
527
502
497
504
505
496
486
470
464
471
492
513
513
497
484
474
462
453
452
454
461
471
487
507
509
485
468
464
472
473
466
459
464
472
484
487
490
483
479
492
498
499
484
468
457
461
461
452
458
473
485
487
486
475
463
447
433
421
410
414
437
455
467
460
453
464
467
464
460
474
487
499
496
490
484
485
496
504
503
495
473
447
442
446
431
431
433
434
466
498
512
505
489
483
482
487
487
482
480
474
476
477
470
465
462
456
460
465
462
459
457
455
462
460
456
473
486
494
501
504
496
504
530
544
543
547
561
583
617
653
674
690
706
745
789
819
836
858
875
881
882
879
874
862
851
861
873
884
881
860
821
781
737
671
605
533
450
356
266
184
116
79
68
79
82
83
95
110
130
147
157
185
218
233
249
275
304
336
363
373
375
387
380
370
361
360
373
387
402
414
416
412
406
410
438
477
491
495
506
501
490
486
502
516
517
510
514
509
509
514
514
506
497
504
508
502
508
526
535
547
543
536
539
550
555
544
535
532
523
517
517
526
527
530
532
526
523
526
526
529
538
547
555
558
556
551
538
516
514
520
533
541
551
559
556
546
538
544
565
571
561
567
576
569
561
540
526
507
499
496
494
501
503
505
510
510
506
500
511
546
578
577
573
571
578
582
581
575
570
565
566
565
558
548
546
543
542
546
528
519
528
546
564
571
558
537
529
538
548
548
549
547
551
557
558
553
556
565
575
574
576
590
601
600
595
599
598
583
560
553
562
567
562
560
554
558
570
579
591
589
586
570
552
556
578
616
635
647
652
653
645
627
608
607
605
600
594
585
581
577
576
578
586
579
585
593
598
578
569
569
573
585
602
610
609
591
576
576
578
580
574
571
562
555
545
545
546
559
564
566
571
569
558
564
568
553
541
537
535
517
517
522
521
519
506
498
497
489
484
488
497
496
491
493
492
486
474
464
436
428
449
482
499
490
472
460
460
460
457
450
450
455
455
442
433
416
405
394
367
353
357
355
356
367
377
378
383
391
402
404
396
386
382
376
382
392
394
400
399
387
371
372
384
391
389
393
393
390
385
382
382
377
378
375
362
343
343
363
382
382
389
416
435
444
437
433
431
435
438
432
430
416
413
399
386
373
376
380
379
366
361
361
363
369
387
395
396
394
388
377
368
370
381
397
414
422
428
431
440
442
433
413
405
400
406
408
410
412
415
430
438
440
430
420
422
428
444
466
491
485
464
458
458
461
454
450
455
459
465
463
455
424
390
367
388
434
464
473
480
512
540
538
524
502
488
492
501
510
505
485
457
457
474
477
459
452
448
448
447
447
459
461
469
474
479
489
481
477
475
477
485
482
481
483
481
483
486
483
481
482
485
484
479
473
466
464
461
463
444
443
456
482
498
493
487
473
461
463
479
489
496
494
499
507
496
486
477
475
482
489
488
480
487
490
492
502
517
516
502
492
488
484
491
499
507
499
485
471
464
470
478
489
496
496
489
479
473
472
469
471
475
492
502
489
476
470
474
474
477
482
484
489
486
466
471
482
481
499
488
465
461
466
486
487
492
504
512
510
503
494
487
482
498
499
485
476
468
473
478
489
495
505
512
515
520
518
510
510
509
502
492
498
495
483
471
466
473
471
471
480
487
491
490
492
507
519
508
501
493
486
495
501
504
494
488
490
481
473
471
465
467
468
469
473
481
496
505
511
516
509
476
454
453
470
483
499
509
521
511
492
478
475
479
480
483
490
494
492
496
505
509
509
497
494
501
511
519
507
488
473
456
456
461
469
470
467
461
465
476
491
509
532
552
552
529
518
521
532
538
529
508
495
492
483
483
490
512
541
550
544
531
520
514
509
515
522
524
537
541
539
530
534
551
564
565
558
542
533
538
546
546
546
535
534
537
540
540
520
500
481
469
468
459
437
440
455
473
481
491
490
485
485
482
481
479
467
467
473
485
493
492
495
490
475
457
451
456
466
473
469
464
462
458
454
457
451
457
469
480
483
469
452
439
434
438
450
450
441
442
448
451
452
454
478
502
520
519
513
491
473
462
453
452
461
466
470
473
474
480
477
468
470
466
447
441
447
456
462
467
472
470
458
454
462
470
475
478
470
456
465
470
466
461
462
472
482
485
486
483
487
491
498
497
496
495
497
498
495
485
474
475
479
481
481
479
484
495
508
524
541
553
581
603
623
651
676
699
714
750
793
836
874
898
919
935
938
934
917
898
893
911
939
946
937
905
846
772
692
616
544
472
399
309
232
179
131
106
97
86
82
83
75
84
115
146
169
177
186
211
257
292
315
330
337
346
360
384
399
403
409
414
412
403
402
415
424
437
445
449
451
452
464
482
486
464
452
455
476
501
517
509
498
499
501
502
498
503
512
508
498
497
507
514
515
518
519
528
533
542
551
559
557
547
535
522
522
530
534
529
516
505
491
481
503
526
545
553
550
541
537
544
552
566
574
560
555
548
538
534
534
539
530
519
516
510
503
492
492
506
516
518
499
490
503
517
528
531
545
559
553
542
542
534
524
512
513
523
527
534
537
544
548
537
527
529
539
544
562
573
575
560
554
556
551
548
540
538
541
535
531
540
569
590
610
609
606
593
578
579
581
566
563
557
550
543
545
542
545
553
558
561
566
568
575
581
586
578
578
570
561
556
564
577
597
610
616
623
621
613
603
599
598
608
623
628
616
597
585
582
580
576
582
589
587
585
580
574
582
590
582
564
560
577
583
575
565
570
590
613
616
609
598
582
571
563
571
586
605
611
614
605
596
590
579
564
554
538
533
530
535
533
526
517
511
509
510
512
508
510
510
504
493
480
486
498
499
504
504
504
500
499
498
497
475
455
447
444
448
455
462
461
456
446
439
433
435
443
443
434
421
396
372
367
386
401
409
396
396
397
398
396
385
387
406
413
409
408
408
409
400
398
396
388
385
384
384
376
374
379
383
382
375
380
389
389
388
385
373
361
360
356
349
346
357
369
379
381
377
367
368
383
384
391
400
404
395
380
368
366
385
402
412
418
422
422
409
398
403
404
395
394
396
391
384
387
392
400
398
394
399
401
394
396
409
418
416
410
386
381
386
407
435
450
445
437
440
447
444
439
440
436
431
443
456
445
439
439
428
416
425
431
444
454
455
454
447
446
447
445
442
440
439
443
457
465
457
437
424
432
452
462
455
444
449
465
471
473
475
476
481
486
479
476
479
481
480
470
459
450
431
420
413
428
457
502
529
530
515
494
481
493
511
514
515
507
498
483
482
488
480
473
468
459
467
466
470
471
468
451
441
455
464
474
471
463
463
467
483
498
508
499
481
473
472
487
493
482
472
470
459
456
468
490
506
510
496
479
476
492
508
522
519
506
486
470
458
469
487
485
473
473
471
461
457
461
472
498
519
523
515
508
507
511
516
518
521
522
521
514
507
497
482
463
449
443
463
482
477
478
486
492
488
479
470
472
482
486
487
493
493
481
468
472
479
482
485
496
509
501
482
466
454
440
434
439
454
472
476
484
499
496
493
486
488
504
507
510
519
518
517
508
502
498
486
477
467
478
491
500
504
501
488
478
467
469
483
497
493
484
481
475
472
475
477
486
484
485
488
482
471
466
465
476
492
499
492
487
485
482
481
482
490
504
507
495
480
477
486
491
498
505
500
496
488
481
483
482
485
474
466
459
472
477
488
491
496
485
457
458
478
519
529
530
536
530
522
501
490
483
481
483
486
482
477
477
468
462
458
467
470
470
475
475
474
476
485
500
496
487
492
510
531
535
524
520
504
492
486
483
486
485
482
480
487
497
493
486
483
485
480
477
470
466
477
500
511
509
498
481
465
468
484
504
515
520
523
527
529
533
526
523
527
540
565
567
558
543
534
527
524
532
547
550
538
518
513
529
547
548
544
550
552
543
539
532
526
511
513
500
487
488
490
494
507
507
505
503
502
501
489
477
474
462
457
461
478
493
512
520
504
497
504
495
467
441
432
434
444
454
463
472
466
464
469
483
486
470
450
434
435
437
441
446
446
445
453
464
461
451
450
460
461
459
462
465
469
480
476
467
465
477
478
467
466
484
505
513
518
508
487
479
472
468
470
462
456
449
446
457
471
474
469
465
464
474
474
453
446
457
471
503
530
527
516
513
513
502
482
458
445
435
431
428
426
422
419
429
443
453
448
455
457
457
456
454
460
468
471
472
489
509
513
512
522
540
566
587
598
613
637
652
668
686
722
745
770
790
805
826
859
889
909
912
919
930
931
933
928
932
922
902
874
849
801
716
626
553
478
411
334
260
192
145
122
118
101
89
84
