740
659
569
466
371
268
182
119
59
21
17
17
17
17
18
54
102
133
145
151
174
194
217
244
270
301
327
339
352
370
383
387
397
398
401
409
413
415
427
441
452
462
463
455
454
469
493
480
464
473
496
516
521
523
526
525
532
543
552
558
558
562
564
551
543
533
530
535
539
538
532
524
518
523
526
525
524
525
517
491
470
467
474
498
518
526
531
533
538
546
554
547
541
542
540
539
539
541
528
525
522
516
514
522
525
522
524
526
544
555
563
564
543
537
554
565
560
554
558
565
556
548
541
539
546
545
541
539
535
534
527
533
539
542
548
552
551
548
555
564
560
556
559
565
539
524
548
581
597
598
586
584
566
548
525
511
514
525
533
534
536
541
545
549
556
551
549
552
540
532
524
545
568
573
568
556
551
575
611
635
631
612
604
599
601
596
596
605
611
618
613
605
599
583
561
551
568
585
585
575
572
570
582
590
591
590
595
594
595
602
616
619
626
637
635
636
637
640
644
646
638
604
563
547
539
528
525
520
503
499
509
526
539
550
555
541
517
509
508
505
503
501
507
544
569
574
557
543
539
536
542
542
536
532
524
522
526
522
507
504
510
517
516
513
493
465
456
456
462
470
479
471
456
458
466
461
457
445
431
430
444
458
457
441
426
414
399
390
388
384
369
362
358
363
370
374
370
372
373
379
383
382
384
388
384
383
385
393
410
416
422
422
411
398
386
383
379
376
374
374
370
364
365
365
370
374
377
368
365
359
362
362
357
352
354
376
386
390
403
420
441
447
438
426
423
435
448
454
440
439
448
452
452
459
464
471
471
458
441
424
413
406
402
393
385
392
389
388
392
395
398
385
379
390
426
447
439
435
435
438
447
456
460
468
478
470
441
434
441
458
475
467
464
469
467
461
454
449
452
455
464
464
443
440
449
448
435
435
443
459
485
495
493
491
488
492
489
482
474
459
462
475
482
491
493
494
483
478
481
480
482
476
474
473
468
463
459
450
441
446
457
468
469
475
478
483
490
481
473
473
472
475
481
483
486
480
479
480
478
468
456
455
451
457
462
466
476
497
506
503
497
497
489
479
468
459
448
445
443
443
453
449
446
454
459
458
452
448
454
458
478
493
489
489
492
492
504
520
525
516
493
474
463
457
450
430
423
433
447
454
447
449
452
458
470
484
492
487
479
474
474
476
482
484
484
480
481
481
482
493
495
481
467
467
477
485
479
481
480
479
483
487
482
476
455
440
432
438
455
481
498
502
496
509
522
522
511
506
501
503
502
494
488
484
469
450
442
454
470
480
479
472
468
474
487
493
492
467
451
460
455
455
450
458
467
474
476
475
483
485
484
487
474
464
463
470
474
479
481
493
495
504
510
511
513
512
504
502
498
492
499
503
499
497
501
507
515
512
501
476
458
460
460
471
498
518
545
557
553
556
554
545
531
533
547
558
578
578
560
526
489
466
463
463
466
471
482
489
495
500
504
507
510
527
540
544
549
542
522
517
522
523
519
516
509
483
467
464
482
497
498
499
492
475
467
463
468
469
463
469
459
451
448
438
429
446
466
475
484
479
470
460
467
498
533
556
557
539
519
492
458
438
432
425
425
421
404
398
404
417
422
428
419
420
425
421
432
446
458
465
469
470
489
499
502
506
502
488
468
464
473
464
460
462
458
459
457
446
432
440
463
481
486
491
494
480
476
471
464
458
450
451
452
453
454
458
461
471
466
461
458
461
472
476
458
446
445
445
448
444
429
423
426
454
487
520
549
562
569
570
586
608
613
597
597
608
623
631
658
703
769
821
842
854
861
852
853
867
891
915
929
916
903
886
869
852
817
758
683
596
512
427
344
259
180
88
36
26
30
25
18
25
30
47
69
85
102
124
147
175
196
212
230
249
275
309
340
360
384
398
401
400
406
411
406
404
425
445
468
488
513
528
530
528
535
545
552
558
551
529
510
503
507
508
496
487
471
458
464
483
495
496
499
508
512
517
524
529
529
526
521
522
515
518
515
504
502
510
523
538
549
545
510
492
501
524
533
543
566
568
557
550
552
555
562
568
564
560
546
542
542
521
488
473
482
500
520
543
563
565
570
573
571
561
548
548
542
523
517
523
534
532
525
529
548
572
579
578
554
523
512
519
525
526
525
524
538
546
557
569
569
571
570
564
558
555
557
561
564
560
561
560
560
556
551
549
560
558
556
552
533
526
533
541
530
518
536
543
538
538
553
576
588
583
579
575
565
572
596
610
603
589
580
579
596
601
592
583
563
548
542
557
578
583
584
587
588
593
594
591
589
596
591
579
573
564
560
544
538
537
542
561
577
581
583
579
560
552
563
585
597
600
604
602
600
595
590
590
592
592
585
562
536
522
522
520
528
531
522
517
519
518
517
524
523
517
515
520
520
513
499
494
502
507
502
500
500
493
475
457
454
464
475
473
472
465
464
461
458
448
440
430
424
428
443
441
442
439
426
402
380
370
386
412
419
409
406
396
388
378
366
354
345
350
359
365
367
366
376
383
378
382
382
391
395
395
401
413
423
425
425
422
412
410
405
388
384
388
399
415
415
414
403
394
392
384
370
367
375
387
390
394
391
381
375
380
385
391
392
395
399
394
383
378
378
376
388
401
401
409
410
404
409
424
443
460
462
462
479
484
481
480
474
464
455
441
430
417
412
405
403
414
409
404
392
396
421
429
420
413
413
413
412
431
460
483
498
495
497
502
497
478
459
460
472
474
465
451
442
441
448
455
462
469
467
468
483
490
482
476
482
494
472
462
463
472
478
480
481
487
490
489
484
475
470
465
463
469
482
495
499
497
497
475
469
487
487
474
459
452
454
459
457
457
465
467
465
472
471
466
471
489
486
476
477
478
476
483
491
493
498
486
476
485
484
473
471
476
476
478
479
483
491
485
479
470
455
444
444
449
443
435
442
445
459
479
492
511
511
489
473
471
479
484
491
510
517
517
516
512
512
511
504
495
483
474
473
476
478
486
483
476
476
474
475
472
475
476
485
491
483
479
473
468
459
456
462
477
468
447
444
441
447
464
472
482
494
496
483
480
486
490
483
493
505
510
518
525
515
501
488
470
457
454
461
458
462
469
468
474
477
468
469
463
465
472
488
501
504
502
507
517
526
527
533
540
528
517
506
492
487
483
479
477
472
472
476
479
479
477
475
472
471
472
479
494
495
488
491
499
510
516
518
520
504
505
518
519
511
501
485
472
475
484
492
502
518
522
505
485
490
503
514
518
532
549
560
561
562
568
558
562
555
530
523
530
548
564
564
559
551
546
543
525
512
511
511
507
507
505
504
497
493
490
484
478
473
471
467
464
463
467
475
472
457
450
453
457
470
479
476
474
478
492
512
519
512
502
497
502
509
496
487
475
464
450
439
441
436
423
421
424
437
438
426
436
455
449
438
452
464
484
501
485
466
463
469
475
475
474
477
487
490
483
471
459
451
452
458
464
466
471
472
466
457
457
460
458
459
464
465
464
442
432
436
452
469
472
474
477
487
499
519
520
510
496
483
482
497
505
499
481
466
460
462
467
468
459
457
457
464
473
477
481
486
490
497
512
523
537
550
575
593
619
639
664
703
733
764
788
810
838
875
892
893
890
895
908
927
940
946
951
943
916
875
839
771
689
606
523
439
371
299
226
165
129
112
93
71
62
62
74
91
111
133
157
185
212
241
263
290
324
344
355
367
387
375
353
328
324
348
387
420
433
434
425
427
441
456
477
482
472
464
461
481
499
508
503
501
502
510
510
503
504
510
521
523
519
513
509
518
529
535
528
519
514
513
512
515
514
513
515
519
516
507
511
509
501
498
511
529
542
544
544
537
534
523
514
513
507
501
501
512
519
519
519
515
521
521
529
538
538
544
558
550
532
514
500
507
534
557
564
557
545
547
547
540
533
531
532
538
543
549
560
558
542
522
519
526
531
539
546
547
545
541
536
532
536
535
534
540
538
529
514
507
507
509
508
514
535
554
563
567
550
536
543
547
552
563
571
578
589
594
595
592
582
571
573
573
575
560
554
554
566
582
588
592
591
585
559
540
526
519
522
527
554
595
613
616
607
591
585
589
580
575
578
591
588
590
592
598
604
610
609
596
575
562
550
544
558
573
592
612
594
589
588
563
541
532
539
559
572
583
587
569
554
536
522
510
507
513
515
521
526
531
540
547
541
525
515
510
510
514
510
510
512
510
507
508
519
526
517
502
495
488
483
485
491
484
469
454
442
431
428
429
437
442
443
446
445
442
449
455
437
423
422
429
442
450
446
441
435
432
416
398
386
387
399
392
383
386
393
393
385
377
375
376
375
377
379
368
353
348
350
359
371
378
381
377
370
365
366
368
375
388
383
368
369
370
369
364
364
362
365
363
372
380
392
390
384
380
384
383
383
389
398
399
386
387
393
405
404
403
404
387
367
361
374
389
407
423
430
433
441
449
444
439
444
449
450
450
451
441
415
393
391
389
385
387
392
397
377
366
377
397
421
435
442
449
443
431
421
426
430
436
426
423
433
444
453
439
437
445
450
449
455
463
459
452
450
447
444
438
439
444
439
432
428
441
453
476
490
495
496
489
481
477
476
475
476
476
462
465
468
470
475
486
494
498
500
501
497
501
504
499
483
468
469
472
473
470
471
476
468
453
447
442
425
410
418
443
460
477
490
501
500
497
484
493
496
487
474
471
472
472
470
466
464
469
487
495
498
499
492
476
459
433
422
424
440
459
459
474
492
484
476
476
475
476
486
493
485
472
469
461
461
463
468
479
491
496
497
500
489
483
477
478
476
463
463
470
473
481
480
484
495
511
524
531
530
521
514
516
513
509
508
499
481
467
460
447
450
464
476
470
452
442
446
460
473
481
492
484
460
442
444
471
483
486
482
478
482
488
498
503
499
496
496
498
502
511
507
503
504
497
488
492
497
497
487
469
457
448
461
480
486
490
484
464
454
458
468
470
465
455
452
457
455
452
456
476
497
486
478
477
470
459
456
463
468
482
493
505
506
502
505
505
506
508
502
504
508
513
513
512
515
516
516
515
510
501
482
481
479
478
481
490
492
490
488
483
480
486
499
503
508
516
532
531
539
547
542
532
521
525
535
539
550
560
565
556
557
555
556
557
546
541
547
543
525
509
493
497
477
460
467
480
485
492
485
478
487
492
499
507
511
511
507
505
508
503
492
478
465
469
470
466
461
455
463
461
455
448
449
453
452
448
447
449
461
474
479
477
479
467
445
452
460
458
444
431
418
411
435
454
470
488
491
479
474
468
475
484
488
485
479
474
471
468
464
460
454
449
446
435
426
426
428
419
420
418
402
406
405
413
450
484
499
497
486
485
487
486
485
486
491
493
491
491
496
506
516
521
511
492
475
466
445
433
445
467
473
482
488
485
481
492
500
497
497
495
503
510
519
529
545
570
598
634
664
685
708
729
743
771
805
833
863
894
926
941
945
951
958
954
930
917
919
927
931
919
877
811
716
615
521
432
359
290
224
130
64
49
40
28
22
17
17
17
22
63
109
152
191
229
250
278
305
320
329
336
353
378
398
398
398
409
418
419
421
427
436
449
455
463
466
466661
453
447
451
454
458
471
482
486
482
482
487
488
488
4
486
494
492
484
479
474
476
476
475
475
470
461
453
447
451
454
458
471
482
486
482
482
487
488
488
488
493
500
494
491
493
490
488
490
490
489
485
475
474
471
471
472
470
471
469
472
472
479
482
473
476
484
493
494
494
492
491
490
482
486
489
499
502
496
491
489
494
502
505
504
505
504
501
497
484
473
468
471
477
477
475
471
471
473
476
475
473
476
487
486
477
480
492
497
488
485
490
488
490
493
494
499
500
491
489
487
482
479
479
475
473
471
471
476
476
468
464
471
475
478
481
485
486
483
483
488
495
498
494
491
494
495
490
483
487
488
491
493
495
498
503
503
502
507
513
514
516
515
505
499
499
494
482
472
474
478
487
487
484
490
495
495
493
488
484
476
474
470
474
486
500
510
514
514
507
501
499
502
495
484
484
490
498
507
509
509
506
506
501
496
492
492
501
504
502
499
505
515
524
529
529
530
533
537
547
553
557
557
554
553
553
549
547
545
541
539
538
531
521
508
504
509
513
515
513
510
508
512
510
504
497
488
486
488
486
484
486
492
493
495
491
487
474
467
469
467
456
449
454
459
463
462
461
459
456
453
455
464
469
471
472
475
470
463
467
473
472
466
457
454
453
455
459
453
449
443
445
450
455
457
459
464
465
465
465
466
469
466
465
467
468
469
462
454
458
464
473
468
463
464
469
474
475
477
476
477
477
467
455
456
467
473
469
464
467
475
468
466
462
466
472
478
481
476
470
471
471
472
469
467
475
482
485
486
477
472
471
470
475
479
482
481
493
519
538
544
551
557
570
590
604
627
653
680
710
746
778
816
852
881
900
915
917
919
924
928
923
917
922
934
932
906
860
802
729
638
559
478
396
318
238
165
117
98
95
90
77
66
69
83
101
121
143
165
184
202
226
248
265
286
312
342
367
377
383
392
411
423
423
420
420
428
442
450
452
449
451
464
466
465
471
481
485
486
484
485
491
494
500
504
506
512
515
518
520
518
516
514
523
532
536
542
538
533
528
522
523
523
521
515
508
499
505
512
521
522
521
518
523
521
520
520
519
520
525
528
528
531
531
531
536
537
541
544
545
541
532
529
533
537
540
538
531
530
527
523
519
512
510
513
521
524
528
533
534
527
524
531
539
544
549
560
566
567
563
562
551
546
546
551
551
546
543
537
540
548
558
562
569
571
566
565
564
560
560
560
560
561
566
567
566
558
551
552
559
559
567
571
564
559
559
565
573
582
581
567
557
561
569
574
577
575
576
578
576
568
562
562
568
570
568
573
578
584
588
587
586
595
605
613
619
623
621
616
603
591
581
579
584
588
586
580
577
576
579
571
571
571
575
574
575
575
571
566
563
567
570
566
564
559
558
560
572
575
580
575
572
569
564
559
561
551
541
537
528
522
518
515
500
495
502
507
506
501
496
491
483
483
485
483
485
485
480
476
468
460
454
449
447
447
447
444
440
437
435
435
432
433
430
432
435
433
431
432
429
423
416
410
405
402
397
387
379
384
391
389
388
391
390
396
397
387
384
389
390
388
387
378
369
369
374
387
394
398
393
386
386
384
385
388
392
389
383
379
373
372
369
371
367
362
358
358
362
367
379
387
394
396
394
390
389
390
391
388
380
374
376
389
395
399
403
408
406
405
409
403
394
388
391
394
392
395
401
402
404
408
412
413
415
416
418
420
419
423
423
422
422
420
424
430
437
442
446
445
444
445
448
451
451
456
449
437
439
451
456
457
460
459
448
442
442
447
452
459
458
444
435
438
444
455
462
460
460
460
467
469
467
469
471
468
465
465
463
458
457
456
455
451
453
458
465
475
475
469
464
464
467
469
468
468
470
470
469
467
471
480
480
477
468
463
457
461
465
462
460
463
463
460
450
447
451
458
463
462
455
454
461
466
467
466
459
456
461
463
471
479
476
478
479
474
472
474
474
482
490
492
487
477
466
459
456
458
462
473
474
466
464
459
461
464
472
477
475
471
464
464
463
470
479
479
473
464
467
475
475
477
485
483
477
481
487
489
484
482
475
467
467
469
467
456
450
448
446
454
463
463
456
453
455
457
457
454
455
464
472
477
479
473
467
461
460
461
461
465
470
472
471
474
480
480
469
466
468
481
487
486
489
488
475
470
467
468
470
474
480
482
475
469
468
464
459
461
463
462
461
456
458
457
457
460
459
460
460
463
468
474
481
481
474
469
464
462
458
458
461
461
455
450
455
457
462
469
478
478
475
471
467
465
466
469
475
475
470
468
469
469
472
481
489
494
489
494
496
493
485
474
475
478
475
468
470
466
459
456
459
462
465
469
477
472
473
476
477
479
475
469
467
468
468
470
469
470
477
488
488
492
483
481
479
474
474
480
487
493
493
490
488
480
471
470
475
476
469
463
460
460
458
464
467
466
465
465
463
456
455
455
452
447
455
461
472
490
501
498
495
500
510
516
519
523
528
528
539
543
543
538
532
526
521
521
528
520
508
508
514
521
520
515
512
515
515
509
503
507
508
509
507
502
497
495
482
477
475
474
470
469
468
472
470
471
472
461
459
465
469
466
456
449
445
447
447
442
436
440
446
441
440
448
459
462
467
465
454
443
440
437
438
446
449
450
454
445
440
441
435
431
431
432
435
447
452
446
448
452
457
457
454
455
453
450
453
462
464
467
460
447
438
436
445
451
454
454
451
450
449
448
448
447
443
451
456
456
449
437
437
439
445
451
462
468
473
466
464
466
462
469
468
466
470
472
476
489
490
486
478
472
468
462
472
473
466
455
454
461
472
481
495
503
516
527
539
556
573
601
635
664
692
717
751
793
828
852
883
906
917
924
925
932
935
930
924
920
919
910
882
836
781
702
615
524
426
341
263
189
108
62
48
41
34
23
25
37
52
69
83
102
123
148
171
204
245
272
286
300
319
337
348
366
384
390
395
399
406
411
413
405
405
424
453
470
467
469
477
489
494
501
505
505
505
504
504
498
485
476
472
473
486
493
500
503
499
493
493
495
506
515
512
506
511
511
517
523
522
526
529
530
532
533
530
526
519
510
502
510
513
506
509
510
515
517
518
513
508
508
509
510
512
516
519
522
527
529
530
534
537
532
527
521
514
507
506
509
513
517
521
523
523
526
538
543
541
537
536
535
534
533
528
527
533
531
536
543
538
541
549
551
553
553
547
541
545
542
537
533
535
538
540
541
538
535
539
539
534
538
533
528
534
541
546
556
567
573
579
578
568
559
559
552
549
548
549
552
553
557
560
563
567
566
565
565
565
572
579
583
582
585
589
585
585
588
590
588
584
577
574
568
566
570
578
586
587
580
582
588
585
585
582
580
576
565
560
553
554
554
554
561
564
565
558
548
538
537
544
552
556
556
561
556
549
543
540
532
525
523
522
524
528
523
517
511
507
505
495
483
484
488
483
477
477
466
462
471
472
475
472
463
453
449
450
458
461
458
462
461
458
456
442
438
434
435
428
425
424
427
427
423
413
413
417
410
403
405
404
403
406
409
413
409
401
398
391
385
387
387
380
376
377
378
373
371
371
365
363
366
369
374
368
364
363
365
358
354
346
339
345
355
357
365
373
378
381
383
384
374
362
367
387
396
398
392
388
389
386
385
384
390
401
400
391
387
387
387
388
383
379
377
382
383
388
397
402
404
400
400
401
403
405
406
406
416
430
429
428
428
429
434
433
436
438
435
438
441
452
458
452
440
426
415
421
431
436
436
436
440
445
446
453
457
453
450
442
444
447
450
454
450
447
450
454
450
450
453
456
462
462
465
466
466
465
459
455
448
440
438
434
446
454
459
452
448
449
454
455
458
465
460
457
466
472
469
465
469
473
470
467
464
467
467
461
463
465
467
460
458
453
454
458
462
470
470
472
465
466
471
475
468
462
459
459
459
466
466
467
471
466
461
462
452
450
458
461
466
473
472
473
475
472
469
460
457
455
444
441
442
444
441
444
451
453
451
451
458
459
461
462
462
458
460
463
469
477
481
474
463
454
449
447
454
463
472
479
482
476
467
467
471
472
472
467
465
458
461
464
475
481
484
485
483
475
473
470
466
460
451
447
450
456
466
470
465
465
471
473
475
474
479
479
475
472
466
463
470
474
471
471
473
483
487
488
492
502
501
495
487
490
482
481
479
473
474
466
458
461
458
456
457
462
461
448
443
450
458
473
483
483
484
485
491
499
490
489
496
502
495
485
479
478
486
490
492
495
492
493
500
501
495
496
492
489
486
486
493
489
483
472
468
465
464
462
467
471
474
478
482
487
486
482
475
475
473
467
472
479
483
490
490
487
487
486
485
490
494
492
479
474
480
488
491
493
499
507
499
483
476
482
488
489
485
487
489
500
508
512
515
513
509
507
499
486
483
490
492
493
489
486
488
483
483
491
504
507
504
503
510
520
533
541
546
549
549
547
541
538
538
538
538
534
534
537
537
538
534
536
542
537
528
522
516
510
501
502
507
512
511
512
515
503
494
488
482
473
471
476
477
475
475
470
473
473
471
472
478
474
470
470
473
469
465
457
455
463
467
463
461
464
464
465
467
466
467
469
468
467
461
457
449
456
466
478
477
468
464
467
474
476
478
483
491
492
490
493
497
500
493
480
474
468
458
457
461
456
448
445
442
448
451
451
453
454
455
456
459
457
464
471
472
471
466
464
465
463
456
457
465
472
477
480
485
490
496
501
494
488
487
479
475
471
473
471
466
470
480
479
476
475
472
469
476
476
474
479
492
508
520
523
534
544
562
581
600
624
656
691
729
767
796
825
852
873
888
903
904
904
907
905
903
893
888
880
868
844
800
744
672
598
522
425
335
246
164
88
43
33
41
45
41
47
65
84
100
115
124
133
153
185
215
241
268
291
316
342
363
383
395
400
410
419
422
421
429
435
450
463
475
490
499
494
491
496
494
490
491
494
497
499
500
509
514
518
523
522
523
525
526
530
534
533
528
524
525
528
537
542
544
534
530
533
533
528
525
526
526
533
546
545
541
538
543
550
554
560
569
571
561
544
537
544
554
559
552
549
553
559
564
560
549
528
521
517
515
517
523
533
534
535
539
544
548
559
564
558
562
566
566
566
561
552
547
547
548
546
552
547
537
532
531
533
539
547
547
552
558
560
563
566
571
565
557
555
556
559
560
560
561
550
542
542
536
535
535
542
543
551
557
564
575
577
579
574
565
564
576
586
597
597
595
599
596
596
598
600
597
591
591
581
575
576
574
570
565
558
552
554
567
581
586
583
585
595
598
603
607
607
601
596
591
589
584
583
587
594
599
602
599
598
599
599
597
601
601
598
589
585
583
582
581
576
573
565
554
549
546
547
542
534
529
533
531
523
519
513
510
514
520
526
526
521
511
506
497
494
497
501
498
496
497
499
501
502
497
494
496
495
487
477
464
458
462
471
476
472
461
453
442
437
435
434
429
421
413
412
422
433
437
437
434
427
428
425
424
427
424
416
406
400
406
409
410
407
396
383
374
370
374
375
376
377
384
389
389
385
387
381
380
382
375
373
374
378
376
370
370
378
385
391
379
367
361
366
375
375
371
370
370
373
373
372
387
388
387
394
401
398
395
392
391
390
387
391
398
406
418
421
422
419
422
425
428
427
420
412
412
416
421
429
436
443
446
449
452
449
450
455
452
456
462
460
463
467
463
452
445
438
428
425
425
423
423
427
429
442
449
455
457
455
450
452
452
446
447
452
456
456
458
463
466
463
461
462
465
469
469
469
468
469
463
459
462
466
470
475
476
469
467
469
473
471
463
461
462
466
466
464
469
471
470
470
473
474
475
480
488
491
480
465
458
455
460
468
468
472
477
471
465
464
467
474
478
475
469
466
469
473
471
467
473
484
482
488
495
496
488
478
466
460
458
454
446
449
451
455
447
438
440
446
453
461
467
475
480
479
486
489
493
495
494
492
473
454
447
447
455
463
469
467
463
461
459
458
456
453
461
463
468
473
475
475
472
475
477
478
475
465
459
461
468
481
485
481
480
479
489
489
485
484
485
483
480
484
493
499
497
491
491
493
492
487
479
477
470
472
479
481
479
479
479
480
479
477
481
478
475
476
476
476
474
469
469
469
474
477
478
477
476
475
475
475
478
480
480
475
472
472
478
481
488
486
487
489
488
481
475
475
482
480
480
477
471
474
476
478
482
482
492
496
492
493
495
497
494
495
497
498
493
492
492
498
508
518
522
525
516
511
512
497
492
486
483
479
470
472
472
477
484
490
487
483
476
471
476
479
485
489
495
497
501
505
509
515
513
508
500
497
496
491
489
490
487
488
488
485
485
485
489
489
487
487
484
489
487
488
487
489
497
508
512
514
524
521
521
527
531
536
534
534
542
560
559
548
543
537
536
540
540
539
538
544
548
549
546
543
544
546
544
536
535
537
536
530
514
507
497
493
489
481
470
458
455
457
460
464
475
479
483
485
480
470
464
467
467
467
464
458
458
458
455
459
463
465
466
466
463
461
459
461
465
472
473
474
475
472
468
469
466
460
467
465
463
462
463
466
468
474
474
463
457
456
453
450
448
452
458
466
473
472
475
481
483
481
479
477
475
477
469
469
474
480
478
468
459
457
460
464
470
479
492
495
491
487
483
478
476
475
474
475
481
480
484
487
485
482
474
465
463
465
465
461
464
465
464
462
468
475
483
491
507
523
528
532
541
556
577
598
627
657
681
706
735
769
803
831
850
873
890
895
893
899
902
900
890
883
890
896
892
868
829
777
701
618
544
462
380
304
238
177
129
98
77
63
57
64
79
99
126
147
166
182
194
214
245
268
290
313
340
363
373
380
379
380
382
385
390
404
416
429
435
440
448
461
468
470
479
484
495
508
515
511
511
508
514
518
519
517
517
510
506
504
502
502
503
506
503
497
500
502
506
511
516
525
538
541
540
540
541
545
548
549
545
537
534
539
534
532
526
519
515
510
509
505
500
502
513
523
528
532
538
542
540
540
539
533
529
534
535
541
543
537
540
542
540
542
554
557
554
545
539
536
535
534
530
530
534
542
543
544
544
544
544
542
549
553
559
557
549
545
546
549
545
539
541
547
546
546
548
543
545
546
550
554
557
560
569
578
579
583
585
574
563
559
561
557
548
544
540
540
545
548
552
555
561
571
580
585
587
591
595
598
593
591
593
595
585
571
568
569
571
573
576
580
578
578
584
588
588
581
578
576
581
595
597
595
593
585
589
601
607
607
605
600
599
591
585
585
583
574
575
585
595
591
583
572
567
564
558
551
546
546
552
551
552
541
538
535
530
527
529
528
527
524
522
519
511
501
493
490
490
496
492
484
479
480
481
480
479
475
468
467
468
471
472
470
463
458
453
455
455
453
447
438
439
439
442
433
421
413
411
412
417
421
418
416
419
417
411
399
394
394
393
390
391
397
399
393
387
386
388
387
381
372
368
377
384
382
381
376
370
363
358
360
372
379
386
393
396
394
386
385
389
386
375
371
369
367
371
370
379
381
382
382
380
377
378
377
368
369
375
378
387
394
405
403
405
409
411
410
413
415
417
421
425
414
412
415
406
403
396
389
396
404
400
399
397
400
401
405
412
418
422
421
427
433
443
442
437
438
440
439
439
445
452
459
459
452
450
450
457
461
461
460
461
460
451
444
445
446
444
438
432
428
433
443
455
457
455
449
446
450
455
460
464
471
475
484
488
487
486
487
478
473
473
484
493
493
488
481
472
471
471
473
471
471
469
466
467
467
464
466
467
473
473
470
470
468
464
468
474
478
480
485
492
488
481
477
480
479
477
476
478
484
492
493
488
483
485
483
481
489
486
490
493
487
486
486
487
493
486
477
473
474
476
475
475
477
476
476
472
471
475
478
479
476
472
471
476
472
469
477
486
491
491
491
490
485
482
484
489
497
499
490
485
480
476
476
479
479
478
478
474
476
483
488
493
499
499
504
509
509
501
502
501
498
482
474
473
477
481
478
476
484
489
484
479
475
467
467
470
477
479
479
483
485
488
489
488
480
478
479
481
480
480
489
496
495
500
497
491
488
487
480
475
471
474
479
479
476
472
469
471
470
474
476
471
461
462
470
474
471
470
474
475
479
483
484
488
488
480
478
485
492
499
505
501
489
477
478
482
485
491
492
490
488
481
479
485
488
490
490
495
500
499
498
495
484
473
474
481
487
491
490
488
493
499
505
503
499
495
489
478
468
464
467
466
459
459
463
471
478
481
478
478
481
475
468
473
480
478
480
478
478
483
483
488
492
485
486
487
487
483
484
478
480
480
484
490
494
499
503
501
498
499
501
500
496
494
496
502
505
505
503
506
510
508
504
502
508
512
509
508
509
511
507
499
492
494
499
500
499
495
497
504
519
528
529
523
526
531
535
540
536
533
531
532
537
542
542
543
543
538
537
537
532
530
527
524
523
522
515
510
508
502
500
500
499
491
480
471
462
462
465
462
462
465
467
468
474
487
484
479
477
477
478
477
476
473
471
470
473
471
467
469
472
472
473
468
465
466
467
468
465
460
455
453
455
457
462
463
469
475
470
466
469
472
466
464
464
465
466
464
470
471
467
463
462
469
476
476
468
460
455
454
460
460
452
455
458
460
460
465
463
461
466
470
474
480
479
475
481
482
479
480
488
492
493
488
491
485
482
482
475
471
464
463
465
459
458
467
466
464
460
459
469
471
467
463
456
451
454
463
472
484
500
523
544
565
583
601
634
666
694
720
743
768
801
834
869
898
905
906
915
920
921
927
934
932
944
944
926
893
842
780
694
610
530
448
376
304
220
150
101
79
71
56
49
61
85
111
132
147
163
179
200
224
246
260
286
313
324
334
341
348
361
376
383
388
396
411
424
436
451
467
472
479
488
491
485
484
487
488
485
481
486
499
503
501
503
504
504
501
500
492
486
480
482
492
497
496
500
506
509
507
507
509
510
524
530
531
535
536
538
541
542
546
546
540
543
549
547
544
543
549
555
552
535
522
519
522
530
535
537
540
539
542
539
529
522
519
520
525
527
522
517
517
522
522
517
521
533
547
557
555
551
546
547
547
551
546
549
549
555
562
558
551
543
543
546
546
544
540
537
539
537
537
536
538
540
545
545
549
550
550
550
555
562
567
564
568
570
575
578
579
579
576
573
564
562
563
554
552
556
557
561
568
571
567
562
574
588
598
597
590
589
587
579
579
579
580
579
582
585
584
588
581
573
574
580
588
587
579
576
579
576
577
580
582
586
590
589
590
595
593
595
603
600
597
597
599
594
586
582
585
591
586
576
568
569
568
566
562
553
546
542
540
543
553
560
557
551
538
529
525
521
524
526
523
521
524
527
532
537
533
525
518
505
500
497
494
490
493
492
481
469
466
465
467
469
466
460
459
456
447
446
436
433
429
431
436
430
423
418
414
416
419
415
412
408
411
406
401
401
406
411
406
399
396
400
400
388
379
380
386
394
403
404
394
386
384
386
381
374
374
372
370
366
372
375
374
371
369
370
372
377
382
382
384
387
391
392
396
394
390
389
391
394
393
391
386
384
382
382
383
386
387
389
397
405
412
412
415
415
414
413
410
411
407
402
404
409
414
416
415
408
405
404
409
411
409
417
425
427
428
427
426
428
438
442
440
427
427
431
432
438
442
443
447
448
452
454
451
453
450
451
452
452
444
440
443
444
447
451
459
462
460
458
459
462
466
472
470
464
455
458
470
477
472
468
472
478
475
470
477
483
492
494
490
482
469
465
467
474
477
477
481
479
478
478
483
487
478
473
473
475
480
478
481
483
486
484
481
485
484
486
491
496
496
496
498
498
504
504
495
481
471
464
458
453
451
456
457
457
456
456
467
474
477
480
486
493
496
496
498
496
490
490
494
490
495
497
493
486
477
468
462
454
449
453
466
482
484
480
483
487
488
479
475
471
470
474
472
476
480
484
481
481
475
479
481
488
490
489
489
495
495
496
498
495
492
490
489
490
496
500
498
497
497
497
492
487
483
487
484
481
477
476
477
485
489
485
484
480
478
476
476
481
486
488
490
492
492
487
481
479
485
489
487
482
478
486
489
488
490
489
492
499
501
501
498
493
487
482
482
476
469
471
467
463
462
465
463
462
465
469
467
467
466
468
477
479
486
490
492
496
499
499
488
486
485
491
493
486
490
496
501
504
505
504
503
499
497
489
481
479
485
492
492
492
495
502
502
502
503
496
491
475
466
470
483
494
501
499
495
490
491
490
490
487
488
490
488
490
495
496
495
492
491
486
483
486
493
496
499
493
486
477
467
462
454
452
457
463
464
471
478
487
491
495
495
503
501
495
483
477
475
482
484
488
489
493
500
504
504
498
495
491
491
496
497
495
492
479
474
484
491
493
487
481
478
478
488
493
495
499
509
511
510
512
518
512
502
502
510
512
513
515
511
499
482
478
481
486
495
495
491
493
496
497
489
486
488
489
484
480
478
479
484
481
483
493
502
505
511
517
521
526
528
534
541
544
537
538
542
547
553
563
561
555
552
548
546
543
543
548
547
541
547
553
557
546
529
517
509
514
519
520
517
513
509
511
507
499
495
496
499
504
506
497
490
479
478
488
497
502
502
493
480
470
468
476
480
473
462
453
455
459
462
463
463
464
456
452
458
460
455
448
449
458
467
467
469
469
456
450
457
467
469
469
469
461
453
452
456
462
471
481
492
495
487
474
467
465
467
472
472
469
464
471
471
470
469
468
477
486
481
489
486
480
475
473
463
467
473
473
469
472
473
475
473
474
478
488
494
499
500
498
485
482
485
486
485
476
464
454
454
456
463
464
465
465
458
454
456
463
465
470
470
479
497
510
519
529
548
570
602
634
667
689
709
729
758
791
824
858
888
899
906
917
931
944
939
929
922
933
944
929
898
856
802
725
631
554
479
400
307
222
152
110
89
86
82
72
75
80
94
101
103
118
142
172
202
225
249
275
295
313
334
362
383
393
401
410
413
416
419
415
420
425
437
450
458
463
471
477
484
491
497
502
499
491
491
493
496
498
501
507
510
511
510
509
516
526
525
526
527
525
526
525
516
520
528
531
533
536
536
545
540
529
524
528
527
527
526
529
537
538
535
532
531
528
526
528
529
530
540
545
551
559
563
564
555
554
556
555
557
554
550
547
541
543
545
539
537
536
536
538
533
531
531
528
527
528
524
525
531
539
535
533
543
553
556
553
553
550
551
552
546
546
550
553
549
545
554
559
564
565
569
568
559
550
545
542
549
556
559
562
560
556
557
553
554
557
562
566
571
579
573
565
563
559
557
550
557
565
575
585
589
590
590
592
589
594
593
594
594
598
591
590
602
609
604
600
601
601
599
605
614
613
604
589
596
600
600
592
590
599
611
617
616
601
588
582
589
586
582
585
582
583
584
571
561
554
556
558
558
559
560
563
566
564
563
557
558
559
557
553
555
554
548
539
534
531
525
522
516
514
514
513
514
516
511
500
495
486
481
481
488
491
492
490
479
480
482
478
473
464
456
459
460
457
451
446
443
441
439
436
438
441
449
437
428
423
422
421
417
410
403
400
403
411
415
405
399
396
394
396
395
390
386
396
405
403
399
397
393
389
382
371
356
354
362
362
370
376
381
382
383
378
381
380
383
383
384
386
380
374
380
380
376
388
389
387
387
377
370
377
388
389
386
389
393
393
395
397
400
404
414
421
415
413
419
426
431
434
430
419
409
401
402
405
406
411
418
427
421
416
414
424
426
421
422
420
420
427
432
432
437
448
458
453
448
447
441
439
436
440
448
453
456
456
452
450
449
456
461
467
481
491
492
488
480
484
494
487
471
467
470
463
464
463
461
460
457
453
458
456
449
441
433
433
446
456
459
465
474
475
476
478
480
479
485
477
472
467
469
477
476
472
469
475
477
471
464
451
446
449
453
457
465
477
485
489
482
474
474
470
470
473
477
480
476
471
467
464
466
470
475
484
493
496
493
491
490
491
497
499
490
478
470
473
475
473
470
463
468
476
484
487
492
492
485
470
460
459
461
462
465
466
466
473
472
474
483
482
476
474
477
482
482
478
475
476
480
482
480
473
473
479
479
478
483
488
491
491
495
491
491
481
476
478
482
476
473
477
474
475
473
468
472
475
478
484
491
495
493
496
498
491
490
491
488
486
487
494
500
500
508
503
497
487
479
468
463
466
460
463
470
475
476
472
467
470
470
470
479
485
486
491
492
498
498
506
514
507
500
494
488
479
477
477
474
476
478
480
485
486
490
487
482
481
488
493
496
491
488
489
485
479
486
487
488
488
484
490
493
497
506
506
502
501
497
490
488
490
494
499
494
489
484
482
481
482
489
491
487
492
489
488
485
480
482
482
486
491
496
497
495
491
482
470
463
468
477
485
489
489
484
489
490
488
493
499
507
517
518
515
518
516
509
502
508
509
513
512
509
507
498
493
493
503
513
512
497
481
474
476
482
483
489
492
490
494
495
501
501
503
514
524
528
537
538
532
525
518
518
518
534
542
545
545
538
541
547
554
560
561
565
563
556
543
534
527
527
521
509
504
511
512
506
494
498
497
495
488
477
477
480
480
474
474
476
475
469
471
477
476
486
484
467
453
445
445
440
446
461
471
474
480
485
491
493
491
487
488
489
483
475
470
465
456
455
458
454
443
440
439
439
446
452
447
436
436
448
463
476
485
484
480
482
481
484
490
486
483
477
468
467
467
464
468
467
476
484
495
499
490
490
479
469
473
481
476
478
484
480
479
472
464
460
456
456
454
454
448
441
442
447
454
461
467
466
468
469
470
466
463
474
477
476
477
483
491
498
498
503
518
529
539
554
580
615
646
672
698
726
750
771
793
817
843
872
895
910
915
897
886
887
883
876
870
859
842
807
753
690
614
526
433
346
263
187
115
60
30
22
25
34
47
51
62
81
92
106
130
157
173
192
214
234
252
274
305
331
357
375
387
403
414
425
437
439
436
430
430
437
450
471
479
484
496
503
508
510
513
522
527
523
518
511
519
520
518
518
528
530
534
537
540
544
547
547
546
538
527
524
526
532
529
526
527
525
526
528
535
541
544
535
528
528
521
516
521
524
524
530
539
535
537
540
539
534
534
540
540
537
541
549
554
547
546
547
550
557
562
562
557
556
555
559
561
560
556
558
554
540
531
521
522
524
525
522
525
536
548
547
546
549
550
542
536
542
557
561
563
563
562
557
556
554
555
560
562
565
566
573
574
574
569
565
568
572
573
570
564
558
551
546
545
547
552
555
559
560
564
566
565
573
581
585
584
584
584
585
583
581
580
583
587
592
598
601
607
609
597
581
573
575
576
574
576
585
597
612
613
614
614
611
611
608
607
600
599
597
592
593
593
591
598
604
596
585
576
563
557
556
557
559
567
569
563
560
558
553
549
561
572
582
586
571
565
559
546
536
530
533
539
542
543
534
529
526
519
511
504
494
486
486
486
480
473
472
476
481
487
491
489
478
471
467
463
458
461
459
451
448
445
437
433
436
436
429
427
433
435
432
428
426
428
430
428
416
408
400
391
383
382
387
392
393
389
381
372
372
366
359
353
350
347
343
343
350
349
347
354
364
378
389
387
383
378
378
384
385
386
387
392
398
400
401
394
385
380
376
379
378
378
375
371
367
367
374
380
382
381
383
380
373
376
387
394
399
404
412
416
415
418
418
418
416
413
415
415
412
412
403
395
391
397
403
407
405
407
419
427
429
425
425
433
440
439
437
432
433
441
447
456
474
480
479
465
449
439
440
445
440
439
444
451
458
462
458
449
444
448
452
457
459
457
449
447
459
470
471
464
462
460
460
463
464
458
450
451
458
458
465
467
465
460
458
462
467
468
468
471
470
472
487
493
486
479
476
477
481
483
484
472
463
456
458
455
454
453
452
453
451
459
456
450
454
462
466
472
473
473
475
471
469
476
479
475
467
466
469
476
480
486
484
479
473
470
472
470
470
471
470
460
455
460
462
459
461
460
462
462
461
467
469
470
469
468
463
467
474
482
487
485
488
489
494
499
496
495
494
486
473
464
465
468
468
465
462
458
462
463
460
455
449
442
442
445
445
444
445
451
457
469
472
474
474
480
477
473
474
477
478
481
485
492
491
488
488
493
492
486
478
472
467
469
473
480
486
492
493
484
478
474
473
477
482
490
496
491
489
484
477
472
469
479
488
485
481
482
486
483
481
476
474
479
478
475
479
484
493
500
501
499
498
496
484
476
480
487
493
494
499
496
487
475
470
480
483
483
480
478
479
481
481
481
476
472
479
489
492
491
490
496
501
498
499
500
498
496
492
486
479
479
473
468
467
462
461
461
467
475
486
497
506
508
505
503
494
497
506
513
518
517
520
531
538
540
536
535
538
541
546
548
548
546
540
535
536
538
542
540
543
548
551
554
549
540
534
525
521
521
523
520
521
520
523
524
517
510
501
487
472
460
455
451
449
446
445
452
462
468
469
465
464
465
462
456
449
450
455
461
463
464
462
460
460
463
465
462
456
454
462
467
477
487
483
477
478
476
475
473
465
464
457
453
456
464
459
450
442
433
436
440
452
457
457
458
457
451
447
447
453
464
470
473
466
464
464
462
468
474
468
467
474
483
487
488
479
475
477
474
472
464
449
446
450
457
463
468
477
477
474
473
474
474
472
470
466
463
461
465
470
471
471
472
470
476
478
479
486
495
507
513
523
531
539
556
575
593
610
636
663
694
723
755
788
819
840
855
867
879
885
887
885
893
888
881
880
890
881
860
834
796
739
649
565
491
416
334
254
178
120
95
88
79
64
67
83
101
115
126
138
153
176
197
223
247
271
290
307
322
334
355
376
386
386
389
391
398
408
419
434
452
464
468
479
484
484
488
498
507
517
519
516
516
525
523
519
519
515
510
501
498
497
503
517
520
525
528
529
528
523
523
525
527
524
522
517
522
524
522
525
525
518
517
519
519
518
517
521
532
541
537
535
535
542
546
542
538
534
537
540
538
536
533
530
535
542
546
539
530
518
518
517
516
527
537
541
541
547
556
556
550
548
541
537
533
528
533
541
550
559
559
558
550
540
539
540
543
552
550
543
540
546
552
552
554
554
560
566
568
566
567
563
565
569
569
565
557
549
546
546
545
546
542
549
557
558
559
562
564
566
570
579
581
586
582
579
580
581
585
587
591
599
605
611
611
610
607
606
601
598
593
586
585
588
594
593
592
595
596
592
587
587
588
589
587
585
586
589
594
600
605
596
594
593
595
598
598
599
601
603
598
595
591
592
589
587
583
568
557
553
556
560
560
559
553
548
542
535
526
518
521
524
529
533
532
527
518
507
497
496
491
496
504
508
508
501
496
496
502
504
494
488
488
493
492
482
469
463
460
457
448
447
439
437
433
429
428
419
415
414
413
411
404
404
402
393
396
402
408
409
413
412
404
403
396
385
374
375
381
378
380
383
377
374
371
370
370
373
379
381
375
375
379
380
378
373
368
365
367
366
368
371
374
371
371
372
372
374
378
383
378
369
363
363
360
361
375
392
396
387
382
383
381
380
382
384
393
404
411
416
420
415
408
406
408
413
421
425
427
424
421
426
432
422
410
405
409
413
412
405
403
409
419
426
427
427
430
432
437
437
434
433
435
437
436
439
435
438
443
446
448
448
451
453
451
451
453
460
459
454
453
451
456
454
455
456
457
459
457
454
461
466
465
467
465
460
457
458
460
461
462
457
454
458
466
473
479
475
470
477
482
488
494
495
491
485
481
484
479
476
479
480
478
475
477
486
493
493
486
484
483
484
485
486
481
482
489
488
482
474
471
471
474
477
477
479
477
471
464
456
460
468
482
493
495
493
482
461
452
453
461
473
483
477
479
482
487
491
485
482
482
484
488
488
482
470
458
454
459
458
457
455
458
462
465
468
469
476
487
482
476
481
490
494
492
488
482
479
480
482
479
480
483
484
478
471
471
475
480
481
489
488
487
485
479
476
476
480
485
482
479
480
480
481
494
497
500
498
492
493
496
496
488
476
471
471
470
469
472
476
483
487
480
469
457
455
457
461
466
472
472
469
475
477
481
479
475
479
483
487
488
491
487
486
482
475
476
474
478
479
481
478
480
477
475
475
479
483
485
481
471
459
458
472
487
502
503
498
498
494
492
490
488
485
479
476
477
475
483
489
489
485
486
485
485
482
479
480
487
499
506
505
502
497
499
501
503
504
506
509
502
492
483
478
466
464
469
477
480
475
471
474
472
467
461
458
464
465
469
487
493
493
488
489
486
489
495
496
499
501
508
502
498
497
489
494
493
490
493
501
502
504
502
502
506
508
508
503
502
500
503
506
517
527
539
543
537
542
547
550
552
555
554
560
566
569
568
567
561
549
532
520
511
505
502
496
493
497
507
515
512
506
502
500
493
487
489
490
493
489
484
479
470
466
462
460
452
450
452
453
457
455
452
449
450
451
450
463
477
478
472
461
455
464
469
474
474
470
464
451
451
458
464
468
463
462
466
466
471
472
470
467
465
473
477
479
468
465
465
463
457
449
450
453
462
462
464
474
479
483
484
473
467
460
456
459
461
462
461
467
465
459
460
460
465
465
463
466
476
483
488
499
496
493
484
477
470
469
475
479
474
473
467
464
464
458
460
464
470
471
474
481
481
482
476
466
460
461
470
479
489
501
511
520
537
553
575
596
623
654
688
721
748
782
815
847
877
897
911
919
931
941
951
953
946
947
950
942
915
868
816
760
678
592
502
416
348
271
194
134
98
84
66
53
56
60
72
86
105
129
161
187
209
228
252
277
304
330
349
360
374
386
391
394
396
400
403
409
416
423
433
445
451
461
466
462
457
461
465
473
486
489
497
503
512
522
522
511
504
503
502
497
492
497
507
513
511
510
511
511
519
514
512
521
528
533
541
539
529
524
521
526
530
530
525
522
527
534
539
547
545
533
523
516
512
511
516
527
537
540
542
545
546
545
547
552
551
552
558
559
551
547
548
553
548
542
535
528
523
523
523
515
513
517
521
523
528
533
539
540
538
532
535
540
543
545
539
532
533
537
544
541
538
542
547
548
550
561
565
566
568
570
571
580
584
584
581
578
577
583
585
581
581
568
560
562
564
564
572
583
587
594
593
590
592
598
598
591
580
572
571
567
562
565
567
561
556
558
564
579
593
596
592
583
580
579
586
595
604
616
617
612
611
611
611
609
603
603
604
600
591
589
587
588
589
593
594
597
602
596
591
584
576
569
563
566
569
574
574
567
558
554
556
554
553
552
551
558
565
568
556
548
551
553
555
553
547
538
536
528
517
513
510
500
497
499
498
491
488
486
477
479
483
478
474
475
464
457
450
437
426
423
425
425
421
415
417
426
429
424
416
413
410
400
388
389
394
395
393
388
390
393
396
399
397
392
385
387
387
385
388
398
396
391
388
385
380
377
369
365
363
366
368
361
359
358
357
360
365
371
375
378
378
375
370
371
376
377
380
386
386
386
382
378
375
370
370
371
371
372
372
372
378
388
384
388
399
409
403
398
396
395
388
382
382
379
379
379
383
391
391
384
374
372
369
368
374
387
396
401
398
397
400
402
408
418
426
430
436
442
446
444
443
446
447
450
456
461
467
462
457
454
450
450
463
470
463
445
438
440
444
441
437
437
433
435
432
434
443
443
443
444
440
440
439
445
448
443
447
453
450
454
463
466
472
479
481
479
477
481
482
480
476
471
469
475
485
492
493
483
477
467
457
449
448
449
443
441
443
451
464
468
473
483
486
482
481
482
487
488
478
479
477
475
479
481
477
469
466
465
468
471
469
468
472
474
475
475
472
472
477
481
478
476
478
476
469
460
457
461
474
479
477
470
467
469
472
470
467
470
470
471
478
478
476
472
467
464
464
464
469
468
466
462
460
464
466
468
472
471
472
470
467
464
458
456
456
457
463
473
479
485
486
472
462
458
463
471
480
480
482
486
485
479
474
476
482
483
487
489
483
477
474
473
475
473
469
464
460
456
453
451
447
450
455
461
466
466
467
459
458
462
467
467
469
467
466
468
468
466
469
471
472
476
477
475
477
482
488
483
472
460
456
459
460
460
461
463
466
469
472
472
468
462
459
470
471
461
456
458
456
453
455
459
457
458
460
461
455
457
458
461
468
479
487
496
503
501
486
473
465
463
460
447
438
431
433
441
447
449
445
440
441
449
452
457
463
461
462
464
465
466
468
466
457
452
458
467
472
473
477
486
501
507
501
496
490
478
476
481
484
476
462
448
447
451
456
458
460
459
456
460
466
469
472
472
468
464
460
461
467
473
470
475
491
507
512
504
499
490
481
477
469
467
464
455
449
452
456
455
454
448
449
456
466
469
469
470
472
481
493
503
509
513
509
513
512
515
518
517
514
516
520
515
509
501
500
504
506
505
509
514
507
511
515
512
511
505
506
506
507
512
513
511
508
494
487
493
495
490
482
476
472
465
464
470
469
472
465
464
462
458
459
460
464
468
465
460
451
445
442
436
434
439
445
438
433
431
429
432
424
419
417
423
436
451
447
430
429
440
451
457
457
457
463
466
459
463
481
492
495
489
470
457
446
434
427
428
421
418
421
421
421
420
418
416
420
427
428
432
434
437
445
448
449
456
468
462
452
459
464
468
465
462
461
454
451
452
450
446
440
441
444
450
457
455
447
443
440
439
437
439
446
453
455
450
448
445
437
432
428
420
416
417
422
439
457
462
471
490
511
520
527
544
567
589
615
643
673
705
747
787
821
855
886
906
912
911
906
903
901
899
901
902
901
888
869
837
797
730
640
555
467
382
302
226
161
110
76
65
54
40
35
43
50
61
75
99
116
136
164
187
216
252
281
305
324
335
341
349
352
360
370
370
373
379
388
399
401
412
419
430
439
448
458
472
478
483
488
485
479
474
473
466
468
468
467
466
465
469
472
475
479
487
490
485
478
486
496
507
512
516
521
518
514
516
521
523
524
526
516
508
503
497
502
505
515
526
521
519
518
514
516
517
506
498
488
487
484
485
492
499
502
507
516
525
526
519
513
508
499
498
505
512
517
516
520
525
524
520
529
541
540
533
532
529
523
522
525
527
523
523
518
518
518
519
522
525
525
519
522
528
532
536
539
542
537
533
536
539
549
555
552
548
552
560
563
565
570
572
571
570
566
555
544
538
539
546
548
547
544
546
551
567
580
582
571
562
563
558
551
544
551
558
564
579
584
595
599
595
599
603
611
613
611
602
586
576
578
575
568
564
564
561
560
559
555
549
555
564
564
561
557
550
543
546
552
553
557
556
551
557
564
567
564
567
569
568
560
553
555
556
557
554
556
555
544
535
530
526
524
524
515
511
511
516
507
509
509
499
493
489
486
487
479
473
468
464
468
474
482
482
473
467
460
458
450
443
440
442
450
448
444
434
434
426
417
406
398
405
406
404
405
400
393
387
385
382
373
377
382
387
387
386
381
371
361
351
352
360
360
353
335
323
329
335
345
352
356
353
354
354
355
349
348
347
343
345
345
343
351
352
362
370
371
373
367
357
353
356
359
360
363
372
379
380
384
384
390
389
391
381
377
388
386
377
372
376
383
387
386
384
386
388
392
391
391
387
388
406
417
417
410
406
408
409
410
402
399
399
403
412
417
422
423
424
408
396
388
384
391
402
406
412
423
429
431
437
436
436
433
435
436
437
438
441
450
447
440
438
441
445
449
450
443
440
441
445
446
445
445
441
442
453
465
464
463
467
468
472
470
469
472
476
481
474
474
475
473
472
474
476
469
463
460
461
468
469
462
455
435
434
436
443
452
453
450
454
458
467
477
476
477
476
478
480
485
481
479
480
485
488
493
491
486
482
480
480
464
456
459
458
446
439
444
443
438
438
442
446
454
455
449
447
454
458
466
472
468
459
462
473
476
475
478
478
485
488
484
479
479
477
483
486
490
490
485
473
465
467
471
467
469
464
461
454
456
459
459
463
472
478
473
474
475
475
474
470
467
471
474
473
469
462
463
460
466
470
468
467
468
471
471
466
464
466
470
468
475
478
481
478
474
478
482
488
488
485
483
475
475
480
479
468
466
469
472
471
474
477
483
482
480
483
483
477
469
461
463
463
462
460
466
476
484
488
483
483
480
478
479
483
483
482
483
485
480
480
482
481
482
477
470
469
469
470
468
468
468
464
464
464
465
476
485
484
485
483
488
488
480
468
470
473
478
476
473
476
485
487
483
482
481
481
482
481
481
481
488
492
489
493
489
488
483
480
475
474
477
473
470
479
482
481
489
484
478
478
473
468
467
468
473
480
485
481
480
493
491
490
486
491
498
499
496
492
485
486
484
477
482
487
488
483
488
488
488
491
502
510
507
493
488
495
501
494
480
466
465
476
480
483
490
497
495
488
491
495
504
508
521
522
523
534
544
540
541
547
544
530
520
516
512
515
516
526
530
532
537
537
531
526
522
525
529
524
523
516
516
521
533
536
528
512
499
490
488
482
485
474
467
470
478
481
468
457
455
449
436
432
433
435
438
445
449
451
453
454
454
461
462
461
461
460
463
465
466
470
474
470
475
479
475
467
469
473
470
464
467
468
460
453
458
469
474
477
466
454
447
443
445
443
441
440
438
435
434
432
431
432
439
448
449
456
457
452
451
455
460
455
451
464
475
483
498
499
494
482
471
471
482
489
489
482
469
457
448
445
452
459
467
466
469
475
479
476
471
466
456
448
452
460
460
461
466
469
468
469
470
466
473
475
479
499
526
553
567
573
580
602
632
662
688
713
742
762
796
828
854
883
904
911
919
924
917
909
893
890
888
881
862
824
769
702
625
540
453
370
283
198
113
43
18
18
18
19
24
32
53
75
96
120
136
152
169
189
214
244
275
301
315
335
358
369
370
371
381
395
412
418
416
426
437
447
458
475
491
495
499
497
495
492
500
512
519
518
509
503
502
502
505
507
509
513
514
517
520
523
518
513
506
505
511
516
522
527
533
529
520
510
516
521
524
522
526
526
526
527
524
520
512
513
515
523
533
537
536
530
529
534
538
534
537
545
545
540
535
534
535
541
534
534
527
522
533
543
552
559
555
551
547
538
534
536
546
544
544
543
550
548
534
528
527
532
532
536
540
547
547
549
554
552
554
560
567
569
561
557
552
543
535
539
544
552
557
558
564
561
560
560
559
561
568
574
574
572
566
558
559
566
566
565
573
577
572
568
577
587
583
574
575
576
579
586
591
599
602
601
590
596
602
601
598
592
586
590
591
588
592
593
589
587
591
593
599
600
600
600
595
590
595
601
600
598
604
614
620
616
608
597
587
580
579
575
570
558
549
559
561
558
555
550
543
543
539
541
546
557
554
543
542
547
554
558
558
548
539
531
533
527
522
524
521
521
519
516
510
501
496
494
490
486
481
477
472
480
483
475
469
469
461
450
444
440
444
445
443
440
437
437
431
429
424
425
420
422
425
420
412
400
395
391
389
391
396
393
383
380
387
382
368
352
349
352
349
351
356
358
355
353
353
353
354
350
352
357
362
373
385
380
365
360
364
365
364
362
357
354
353
357
358
358
355
352
356
357
363
364
368
373
372
369
371
378
382
384
386
383
376
378
380
381
376
374
383
392
400
401
399
400
401
395
395
402
405
400
396
396
392
393
392
395
402
406
410
421
427
433
440
446
450
447
441
444
440
432
430
437
440
434
431
427
421
423
421
428
434
430
428
431
432
431
430
431
433
434
435
441
446
452
457
460
462
465
467
461
452
447
452
452
447
444
448
453
460
460
456
457
457
458
461
459
461
463
465
461
460
463
469
472
478
474
469
457
448
428
424
432
432
443
451
457
456
454
458
460
466
473
474
469
470
467
464
460
457
456
458
463
458
452
450
441
439
444
452
451
451
451
445
442
446
450
455
460
454
449
451
454
462
464
464
459
457
458
463
467
461
463
467
467
469
470
462
453
449
444
450
456
455
461
463
466
469
466
468
470
470
467
462
452
447
449
453
460
459
463
464
463
463
463
465
460
456
456
458
465
466
463
461
459
461
468
472
474
476
472
469
471
470
462
463
465
462
459
459
455
449
448
449
455
457
463
466
467
471
476
480
481
479
477
476
479
485
487
483
485
480
478
471
462
463
464
466
469
478
484
485
480
474
470
470
475
477
470
457
452
450
453
458
463
467
472
477
479
480
485
483
476
472
479
481
476
464
464
472
478
485
488
486
485
483
476
473
480
484
489
491
486
481
483
496
499
498
495
487
483
487
490
489
485
480
470
468
473
480
492
499
501
507
508
502
500
495
495
501
509
511
510
501
494
474
462
451
449
451
453
457
469
478
480
473
474
483
489
492
494
494
494
496
496
492
495
495
490
492
497
499
496
498
501
503
500
497
490
489
481
480
490
499
510
522
526
524
524
528
530
535
538
541
541
542
550
560
558
555
547
538
533
539
541
538
537
529
521
518
521
526
532
534
526
516
506
505
504
495
487
481
482
478
475
472
463
457
452
446
440
428
424
428
439
448
454
457
463
458
455
459
468
472
478
481
476
473
470
463
453
445
448
453
456
461
471
472
474
475
478
470
463
454
451
445
447
451
454
462
465
472
474
470
471
473
468
465
466
473
472
471
471
472
466
458
454
451
448
451
457
464
469
469
467
469
477
479
483
486
483
482
485
479
478
480
479
482
480
473
473
475
475
475
471
469
465
453
446
443
443
444
449
449
450
450
455
466
473
473
476
478
480
484
499
514
533
549
573
595
612
633
659
692
720
753
790
821
841
864
881
885
891
899
904
909
901
890
893
898
886
862
818
760
686
597
523
443
369
295
234
171
126
103
90
87
73
65
70
88
109
128
144
160
177
200
230
260
295
318
331
334
343
355
371
386
394
397
398
404
409
419
436
447
456
461
472
472
466
466
477
484
492
500
508
508
508
507
499
493
482
480
486
489
500
503
501
498
507
519
527
531
528
526
521
523
525
513
509
520
527
526
522
520
527
531
528
522
517
509
512
522
532
536
536
532
532
533
535
537
535
536
544
549
544
535
537
539
544
553
558
555
550
550
552
554
545
540
542
543
543
540
541
549
552
555
557
552
543
533
531
533
537
539
537
529
524
530
534
538
535
532
537
539
538
545
551
558
563
562
565
563
559
546
539
547
556
560
562
566
569
570
566
562
561
564
574
581
590
595
600
605
597
587
574
571
573
574
573
577
581
586
592
596
595
603
620
619
616
612
607
598
586
580
582
593
599
605
610
613
610
609
613
620
620
615
609
609
608
602
597
596
601
609
606
598
596
597
602
605
597
589
587
590
592
591
587
587
585
585
582
571
564
565
570
576
574
569
570
564
561
561
563
561
557
558
563
555
546
549
545
543
545
549
547
540
528
511
490
483
485
485
481
482
480
478
477
475
476
478
475
476
470
459
448
440
436
432
432
430
435
444
448
445
439
428
415
411
417
421
421
417
411
400
393
388
383
386
386
386
388
385
383
380
381
381
385
378
370
368
372
378
376
378
382
383
383
375
369
364
364
366
370
369
368
367
375
384
386
383
376
376
380
384
381
382
390
392
393
392
389
379
372
373
376
389
393
389
380
377
381
392
405
408
405
403
407
412
409
407
414
420
425
420
423
427
435
434
437
437
439
435
434
433
424
416
410
412
419
422
428
433
435
435
435
442
447
442
440
442
440
438
441
442
443
442
444
442
444
450
448
433
433
445
456
460
465
469
466
464
461
463
464
463
464
466
467
464
458
460
464
463
465
466
463
464
466
469
475
474
475
481
474
462
448
448
462
472
477
478
483
475
473
478
486
495
504
509
509
508
499
494
494
498
501
504
505
502
505
506
496
488
486
481
477
473
467
464
463
465
463
468
475
478
476
469
458
461
470
473
476
487
497
494
492
488
480
476
476
484
480
475
473
466
465
469
474
477
478
480
487
495
490
482
476
471
474
479
483
492
492
494
486
482
481
480
481
484
484
480
474
470
473
474
475
485
491
497
494
496
497
499
504
500
494
489
486
483
477
471
462
452
447
450
457
467
473
476
475
478
479
480
484
490
489
487
482
479
477
478
477
475
479
475
468
465
468
477
486
496
497
496
497
498
493
482
478
479
475
481
489
492
485
478
473
474
479
480
478
473
467
470
479
479
477
472
472
481
487
488
495
498
501
501
496
492
493
495
488
481
483
482
477
478
476
477
490
501
494
483
478
473
477
479
482
485
486
487
487
490
498
502
497
488
473
464
469
477
486
492
492
490
490
491
484
476
473
477
483
486
484
480
477
481
480
479
477
482
480
487
492
491
495
496
492
490
489
494
500
491
479
474
473
473
471
472
481
487
494
496
498
500
489
490
491
488
489
487
481
478
480
484
491
498
496
500
501
503
500
499
498
497
501
505
505
495
490
488
478
476
477
472
464
465
478
488
494
498
511
525
530
528
531
539
550
562
559
550
548
546
542
539
530
532
538
545
550
560
564
568
567
554
550
549
537
526
519
513
504
493
484
480
485
491
486
487
491
502
503
497
489
482
477
471
470
472
479
480
480
479
478
480
483
487
478
475
482
488
492
493
484
477
473
471
471
469
468
468
472
477
474
471
458
446
446
456
463
466
466
469
474
476
476
475
472
475
476
474
470
470
471
474
479
482
488
492
493
481
473
471
472
470
468
460
454
446
440
440
439
440
437
433
436
447
458
465
465
464
467
474
475
470
472
481
489
490
485
485
482
482
481
480
482
479
477
473
471
471
472
473
475
479
481
479
476
476
471
473
477
469
472
479
483
480
483
495
523
546
559
570
590
617
648
686
716
726
745
780
812
838
873
905
925
926
918
917
911
919
924
926
932
923
902
869
828
761
668
587
509
429
361
290
223
168
131
103
82
70
62
65
83
102
122
147
170
192
218
244
258
282
312
328
344
358
363
369
377
386
392
394
391
387
396
413
433
448
464
468
473
475
477
485
496
500
492
481
471
470
472
477
488
492
493
498
496
496
497
491
494
494
504
507
506
492
495
499
504
510
514
522
524
523
524
531
538
533
531
523
516
510
514
523
529
534
528
526
525
526
529
527
525
526
525
519
507
500
500
503
512
517
524
534
532
526
526
527
526
529
527
521
516
527
540
548
549
552
541
534
534
531
538
547
550
549
546
543
541
539
536
540
549
554
553
552
550
551
547
541
545
548
547
549
555
558
562
566
558
551
549
550
552
554
550
550
550
551
552
551
556
552
554
561
568
572
582
586
593
591
582
582
585
579
580
580
581
584
581
578
576
577
581
583
587
589
595
597
593
597
606
608
607
602
600
601
594
597
602
607
614
620
618
614
612
610
611
611
609
614
618
611
603
601
594
587
576
571
570
571
571
571
563
555
557
559
558
557
565
574
574
569
565
563
564
565
562
560
554
542
533
530
521
520
523
523
524
520
521
516
505
504
506
504
497
492
484
483
481
481
480
473
466
459
452
451
445
448
445
447
439
436
444
452
450
439
435
426
412
408
411
412
410
407
399
392
389
386
383
383
387
391
389
386
385
385
382
383
380
378
376
376
375
367
363
359
353
358
369
376
381
384
377
377
376
372
365
363
356
354
358
368
366
365
364
360
359
361
379
389
395
400
399
392
379
378
377
370
369
371
376
376
374
377
378
380
380
383
387
390
395
394
390
392
405
415
416
416
419
416
412
413
408
403
399
399
399
409
413
420
425
430
418
413
414
424
425
419
410
407
405
402
405
411
423
432
435
427
421
428
434
432
435
445
450
454
448
447
450
452
454
451
453
452
455
464
468
468
465
456
445
439
446
460
464
464
453
452
462
459
451
450
449
452
461
468
473
471
472
479
483
480
479
485
483
475
466
469
474
481
476
469
467
471
482
483
479
475
474
472
477
483
481
476
475
481
487
481
470
468
469
469
466
467
468
469
470
475
482
487
485
480
478
473
467
466
474
478
479
479
469
467
480
485
487
486
486
483
486
488
490
491
491
486
483
476
469
472
472
473
469
464
459
454
453
461
470
476
480
481
480
479
480
483
482
482
485
490
492
492
493
496
499
496
491
488
482
481
487
494
499
501
493
488
484
486
487
482
476
474
467
454
445
448
444
444
449
454
461
470
467
465
473
478
475
471
466
469
475
477
487
493
492
485
482
474
471
471
474
483
484
484
489
486
486
486
483
480
474
472
477
480
476
476
476
473
474
474
477
475
467
468
470
466
459
461
462
467
479
480
479
473
478
489
494
494
500
506
498
485
475
474
470
472
474
474
475
474
468
469
471
470
476
480
482
488
488
492
496
492
486
486
484
482
481
478
474
471
469
469
472
472
472
477
479
473
474
483
485
490
489
481
474
472
472
476
483
486
487
492
495
495
489
478
473
482
488
479
475
475
479
487
491
493
499
504
500
492
486
483
477
485
488
484
485
484
484
483
486
492
505
507
507
502
492
492
490
485
485
494
504
505
506
505
500
492
485
487
487
489
492
487
477
481
487
489
495
499
497
486
484
484
481
482
487
494
505
509
520
534
545
539
536
537
537
537
544
544
538
535
538
539
530
524
524
525
531
535
537
539
540
531
522
512
510
507
511
515
510
505
489
475
468
464
459
449
456
465
467
463
458
460
464
461
457
452
450
455
455
457
458
456
460
462
461
461
461
458
455
461
469
473
472
462
461
466
472
462
461
454
448
449
451
448
444
448
446
453
460
464
466
463
460
461
463
460
463
459
460
469
470
468
461
454
449
453
467
473
482
483
471
466
469
473
468
463
452
448
458
468
472
469
465
464
462
459
459
465
467
473
477
477
470
466
470
471
464
455
453
454
456
461
462
458
451
448
441
445
447
444
439
440
446
460
477
491
506
521
538
548
562
589
617
647
669
697
724
759
802
832
858
888
907
917
928
938
941
941
929
912
904
913
911
896
863
814
751
670
589
506
424
343
255
180
117
85
76
70
61
49
53
71
90
104
116
138
169
197
211
224
244
264
294
312
322
329
342
353
363
375
383
391
401
417
431
442
454
463
470
472
474
477
478
476
473
471
476
482
482
483
485
504
513
524
530
535
529
519
515
519
520
526
523
518
516
522
528
530
532
534
534
534
530
524
522
517
512
512
518
524
529
529
524
514
514
517
518
521
525
527
525
529
532
530
531
532
532
534
533
530
529
523
520
516
514
521
531
534
531
534
533
537
540
543
547
534
524
527
531
537
540
543
533
535
537
543
549
544
541
545
548
550
551
547
540
535
533
538
544
555
559
556
553
550
559
561
561
569
568
562
556
557
559
557
557
549
551
551
552
551
552
550
546
547
545
542
547
556
560
570
582
590
595
590
583
586
587
588
590
591
596
606
611
611
610
599
599
600
598
591
582
585
594
602
606
614
616
606
602
607
602
595
594
595
592
584
583
588
592
601
606
604
602
604
598
594
590
595
596
596
603
607
600
594
591
581
575
570
569
564
556
555
557
558
548
542
541
540
539
540
532
535
532
529
526
518
517
510
513
516
512
512
514
515
524
518
512
503
492
484
472
466
458
451
448
446
457
458
457
454
447
443
436
431
432
437
439
436
432
414
406
405
403
401
401
391
382
377
379
384
386
388
399
402
398
387
374
364
363
365
364
358
352
352
353
360
366
368
378
378
369
366
369
366
368
370
368
368
365
368
370
371
367
365
365
366
361
360
369
376
383
384
379
376
377
381
390
394
391
395
399
396
393
394
393
395
392
400
410
413
421
413
408
408
408
411
414
420
418
422
424
428
438
443
433
421
415
412
409
408
414
423
426
428
432
423
428
433
422
416
415
421
433
442
439
439
442
437
439
442
442
443
441
441
447
458
471
476
478
479
473
469
467
463
461
460
459
459
463
462
465
468
468
469
464
463
466
472
470
467
469
472
474
471
468
468
461
455
454
456
467
467
467
467
472
478
476
475
472
466
473
482
484
482
484
495
493
481
474
480
473
469
467
465
463
462
469
476
479
482
486
490
487
483
476
467
471
469
464
455
451
449
460
467
472
471
465
461
458
454
457
462
473
478
479
468
460
457
455
460
461
463
466
470
478
477
472
475
476
476
475
479
480
479
474
472
474
480
489
498
496
486
475
468
461
459
460
469
474
481
476
473
470
476
480
479
475
471
470
472
469
467
465
462
457
462
473
482
484
482
488
496
492
488
479
479
476
476
482
486
488
486
492
502
499
495
494
494
490
488
487
489
486
488
494
504
498
482
476
475
472
468
462
461
465
467
474
483
490
485
481
480
478
484
487
493
493
485
479
473
478
477
477
484
484
484
479
476
476
475
474
482
486
487
491
495
492
485
492
493
490
488
492
486
497
502
496
491
488
489
489
482
478
486
493
489
487
487
482
483
486
486
485
491
485
475
469
473
473
473
479
482
483
473
471
482
489
490
500
505
506
504
501
506
507
498
482
477
475
471
473
478
477
480
483
488
496
497
497
499
500
503
508
519
530
540
545
546
548
545
554
561
559
551
549
547
542
543
551
558
560
557
554
549
540
540
539
534
535
538
538
544
542
534
536
540
539
526
518
514
505
493
482
475
458
444
434
442
458
471
480
479
479
480
485
483
478
477
478
478
477
478
476
464
453
452
451
449
445
436
434
446
457
456
448
451
457
454
456
459
471
479
479
482
489
477
469
464
471
477
479
478
480
482
475
470
459
460
460
462
466
473
477
470
463
451
450
452
455
458
466
471
475
477
476
475
472
469
471
471
470
462
456
457
459
465
466
464
466
473
476
478
477
481
485
489
490
480
464
445
438
440
449
460
462
462
460
461
464
469
473
484
500
507
510
517
527
542
553
565
582
597
621
651
686
720
752
787
811
831
852
870
882
885
886
886
894
894
889
886
883
874
860
832
782
715
640
565
476
388
304
222
148
92
64
57
52
42
39
50
76
95
106
129
157
180
198
209
218
237
261
285
311
336
351
361
369
378
384
393
407
425
434
438
448
453
462
473
481
490
499
500
494
488
488
486
493
504
512
512
511
512
508
503
506
512
523
528
528
527
520
518
519
512
508
513
524
532
538
544
546
539
530
530
533
536
537
541
543
543
549
553
546
540
541
550
554
557
557
546
537
531
522
513
511
511
507
511
524
531
528
530
533
535
537
547
554
555
550
557
564
562
557
548
544
546
543
546
559
566
564
561
561
562
559
555
553
554
566
570
567
559
552
544
542
554
555
550
543
546
553
556
548
548
563
571
568
566
566
567
569
570
568
561
555
558
562
557
548
547
559
576
582
581
583
581
578
575
573
572
569
564
569
578
576
567
564
572
583
591
593
602
603
606
610
612
616
617
614
608
599
597
595
601
601
607
610
614
614
613
609
601
602
611
611
603
595
585
583
587
597
601
597
599
605
600
593
597
607
612
604
584
575
568
566
571
565
565
564
564
572
562
544
529
538
542
540
542
542
545
546
543
533
514
502
504
509
507
503
500
493
490
484
479
477
474
472
469
464
467
474
473
465
460
456
449
444
438
431
423
422
423
423
419
414
411
413
417
415
414
416
411
407
403
400
392
388
388
398
398
399
397
389
382
377
375
374
369
364
357
356
355
352
348
349
352
356
361
353
353
355
363
371
370
369
368
369
380
386
383
379
383
391
396
402
399
393
381
370
368
371
373
373
360
351
351
359
368
371
371
364
361
361
364
365
365
378
389
401
401
408
417
421
422
422
417
423
429
439
443
440
433
424
424
426
428
432
430
437
446
447
438
432
428
430
431
429
428
432
433
434
438
437
442
453
459
457
459
456
450
448
450
445
444
443
449
452
456
458
463
465
464
462
463
461
460
458
458
454
450
453
453
457
465
474
473
463
460
465
475
480
484
483
485
485
483
480
481
486
487
483
483
477
477
474
470
476
488
487
487
485
486
487
482
474
466
461
466
474
472
466
460
462
461
452
450
449
443
442
449
462
463
466
472
483
491
496
492
488
487
482
480
476
473
474
471
470
466
469
465
462
466
472
474
481
476
467
463
460
460
467
472
484
484
482
479
488
490
489
490
488
485
483
481
484
479
475
471
467
464
463
463
462
464
464
463
464
463
468
469
472
477
479
478
481
477
475
473
477
480
479
478
475
475
479
480
476
475
479
487
492
493
500
503
504
504
499
495
491
488
489
492
494
493
485
468
457
451
446
447
450
451
454
460
460
463
469
483
486
487
483
489
498
498
495
495
490
488
489
496
501
500
505
506
503
494
494
498
502
500
501
495
494
501
514
516
512
506
494
490
490
492
497
503
506
503
493
487
486
483
481
486
500
512
516
515
521
535
541
542
540
540
550
551
546
538
531
515
502
501
508
514
521
524
523
523
524
525
528
530
529
532
524
524
522
515
508
508
516
519
526
535
538
530
524
521
512
501
491
486
482
483
483
487
490
485
471
460
457
461
460
460
465
467
465
466
469
468
463
459
462
468
476
482
483
485
482
476
478
480
475
468
465
471
476
474
467
457
458
463
470
466
462
469
479
476
475
484
478
471
464
455
452
453
452
458
465
474
472
466
472
470
472
475
479
483
480
473
464
452
446
451
455
462
471
480
478
473
470
478
482
485
486
487
485
480
483
489
482
479
482
480
474
472
469
464
459
462
460
452
457
466
475
486
487
493
501
501
503
521
540
554
573
602
630
661
687
715
738
757
778
800
829
865
886
885
888
887
884
885
879
873
876
891
900
890
861
825
775
698
620
543
463
388
307
238
185
153
137
118
98
77
73
88
113
129
143
159
182
208
238
270
296
321
340
354
366
384
399
404
412
417
414
415
413
424
436
450
463
470
475
478
487
494
494
494
491
493
495
499
506
514
522
528
532
530
531
535
530
526
525
526
527
529
527
527
531
535
546
554
557
558
553
546
544
542
536
536
536
534
532
531
525
522
527
529
531
527
521
514
509
514
520
524
531
536
538
541
533
523
522
529
542
550
544
536
532
534
536
541
540
541
542
548
547
547
549
552
560
573
575
570
565
559
556
557
557
551
547
549
550
554
557
558
554
553
555
555
553
559
563
566
571
576
580
577
569
567
568
560
554
548
548
554
555
560
562
566
571
573
572
566
564
565
562
560
560
563
573
580
582
577
575
579
583
582
581
581
579
582
585
591
590
590
594
595
594
588
591
588
582
586
589
593
598
610
615
615
616
615
616
617
627
628
627
615
601
596
595
597
598
595
599
603
602
605
604
605
599
593
590
591
597
599
603
603
601
591
583
578
580
583
584
580
575
571
565
558
553
547
534
524
517
505
498
501
503
503
497
495
490
488
485
482
481
481
482
485
481
474
469
464
461
454
452
456
452
445
442
434
428
430
432
432
421
412
404
404
408
408
414
426
430
428
419
417
412
408
404
398
392
389
391
395
390
384
382
381
376
376
373
375
377
378
381
382
380
373
368
368
362
356
355
357
360
368
377
382
380
384
384
375
369
369
372
377
375
366
359
355
358
364
371
369
366
371
371
366
371
378
380
384
388
395
394
389
395
408
404
403
391
378
376
380
389
395
400
398
396
392
389
389
391
395
399
403
403
406
413
418
417
421
423
419
409
407
403
408
424
436
435
440
441
439
435
440
447
450
445
445
444
443
447
450
448
446
450
456
456
458
460
466
475
481
484
487
486
485
485
480
478
466
458
455
461
471
474
476
474
474
470
466
469
469
468
471
470
468
466
464
463
465
465
462
459
459
463
464
467
463
462
462
463
462
462
466
477
482
482
483
485
480
476
467
464
470
475
481
479
477
477
476
474
468
464
462
469
478
482
482
485
485
486
494
498
496
491
491
489
486
480
475
480
478
478
482
489
496
502
501
498
494
489
486
482
482
482
482
474
473
472
469
470
471
470
468
465
461
467
473
484
492
488
485
487
489
493
498
496
494
491
491
483
478
472
472
477
480
492
497
492
489
495
496
492
488
481
474
466
464
468
469
466
462
459
457
458
458
463
472
470
465
467
470
472
480
488
490
490
487
487
494
495
492
491
484
479
482
483
487
490
480
478
482
486
490
490
491
493
493
491
485
481
476
475
479
483
478
472
472
477
476
473
473
468
462
467
480
490
488
482
480
480
481
479
481
484
485
488
489
488
484
482
486
493
497
496
501
503
505
509
507
500
497
490
485
481
486
492
491
491
489
488
489
490
490
484
482
479
484
496
511
518
528
533
541
546
551
551
554
551
539
537
543
541
531
531
533
527
515
512
515
520
525
518
522
517
504
498
494
493
502
509
514
515
507
501
499
500
502
507
504
500
495
487
484
483
482
478
472
474
475
474
471
464
460
462
466
464
456
450
445
447
452
453
447
441
447
453
458
458
460
464
468
467
464
455
450
450
451
448
444
448
457
456
462
470
477
475
467
459
457
459
461
455
450
451
453
457
460
458
456
459
461
460
452
447
447
453
456
461
463
466
462
453
454
461
471
473
465
460
460
457
455
459
458
453
451
458
464
471
468
458
455
460
469
475
479
480
471
469
471
474
482
478
469
467
466
457
459
463
469
474
482
494
504
513
531
549
559
581
606
640
672
705
736
763
788
816
839
860
871
871
875
887
906
921
931
928
913
915
918
914
885
838
776
695
613
536
448
371
287
221
173
128
90
72
60
57
59
66
82
101
124
150
168
187
215
241
261
283
308
328
342
355
370
394
402
406
413
419
423
424
429
441
459
468
473
475
477
481
486
493
495
494
485
475
474
468
473
481
484
490
494
495
498
498
502
499
499
501
508
510
507
499
499
504
514
520
514
506
510
517
525
531
531
528
517
520
524
522
522
523
526
532
530
534
536
534
538
546
545
533
529
524
519
516
521
530
532
530
526
522
520
514
507
507
505
512
517
525
539
550
550
550
552
556
551
539
534
527
516
516
525
529
532
536
539
540
542
546
551
557
556
561
565
571
573
569
563
563
569
568
566
564
562
559
551
545
537
533
527
526
532
536
541
551
560
566
575
572
565
567
573
578
583
583
591
591
582
580
577
579
589
586
582
583
584
591
593
590
585
593
598
603
604
606
603
594
589
587
588
591
598
598
596
597
596
596
598
605
610
622
617
611
608
602
599
600
603
609
603
599
598
591
592
596
594
590
592
594
586
578
580
583
582
581
582
582
572
561
558
554
555
555
553
544
537
529
528
529
535
535
536
531
525
520
513
512
508
507
513
514
516
511
492
477
472
469
464
453
440
442
449
447
451
452
449
443
432
422
419
422
418
412
410
409
405
395
393
395
399
403
407
401
396
395
395
395
392
384
383
377
370
367
369
373
377
383
389
383
380
378
379
374
372
373
372
373
372
371
363
365
377
384
381
377
379
379
372
372
372
375
377
379
382
384
391
391
379
369
368
374
377
372
369
372
373
373
372
373
377
379
379
378
381
388
390
393
398
403
400
392
384
379
379
385
396
394
399
405
411
419
423
419
410
411
414
417
422
426
430
429
433
431
427
428
432
431
432
431
429
425
426
432
439
451
457
458
459
459
457
451
449
455
453
448
447
454
461
459
458
457
463
467
464
458
454
447
442
443
442
439
438
440
447
449
452
458
465
455
448
445
452
466
478
479
481
482
479
475
474
475
471
465
463
470
474
472
469
462
464
464
461
469
483
484
485
488
492
491
486
482
485
482
483
485
482
482
484
489
493
485
478
475
470
468
474
482
484
484
480
473
473
472
476
476
479
483
481
480
484
488
486
488
498
500
500
493
484
486
488
487
490
488
485
486
489
490
488
479
473
467
454
443
441
444
461
474
475
480
480
478
473
473
472
477
480
472
469
468
470
469
470
468
471
477
484
487
491
497
498
497
498
490
483
485
480
479
480
481
475
476
481
481
472
476
475
478
482
478
479
483
485
479
475
471
474
471
476
483
491
488
484
485
480
477
475
476
478
485
494
492
489
490
496
493
487
480
477
473
469
473
481
482
475
468
465
471
477
479
480
480
477
469
471
470
477
487
494
496
497
491
485
485
487
495
500
503
501
487
479
481
479
468
468
473
474
477
487
494
488
483
480
481
475
467
474
479
479
478
479
482
484
484
488
493
497
499
500
498
501
508
509
510
515
526
533
532
531
539
543
538
530
529
531
535
550
552
553
545
534
538
539
532
539
543
540
529
519
517
511
509
518
518
511
511
509
501
493
481
474
471
472
475
481
478
477
479
480
477
476
481
486
487
481
476
468
464
470
478
477
468
464
465
470
472
471
478
477
475
472
471
466
457
455
463
470
476
478
472
469
461
457
459
457
450
447
453
448
444
447
454
459
464
468
465
464
463
464
468
464
465
466
471
469
462
459
462
460
463
468
471
468
464
465
462
464
462
468
476
472
474
479
480
476
471
468
472
479
493
502
504
499
491
489
478
471
474
470
465
460
453
450
451
452
454
458
460
461
464
466
470
474
485
493
507
521
542
561
587
615
643
674
697
719
745
779
815
845
875
908
927
930
934
941
936
937
936
936
928
923
928
910
872
815
748
651
561
475
392
309
224
152
96
64
56
50
41
36
42
58
83
106
121
134
166
193
209
234
261
285
298
319
337
354
368
380
384
392
393
397
403
414
432
445
467
471
482
486
488
484
480
479
484
490
496
499
503
502
505
505
511
518
524
524
525
529
539
541
539
536
530
517
507
509
512
513
513
522
532
531
534
533
524
511
508
511
512
511
515
525
532
533
533
543
555
558
547
546
544
539
547
547
541
539
534
540
547
547
547
552
555
553
536
529
538
543
540
533
524
517
518
517
515
522
523
521
525
527
529
538
544
552
559
559
554
547
550
552
549
544
546
552
550
554
556
553
559
561
561
560
564
568
564
560
554
554
563
567
564
555
550
554
564
573
575
577
581
575
572
572
574
574
578
581
581
574
574
578
578
579
575
583
591
596
600
597
598
599
598
602
599
599
599
595
595
598
599
593
595
601
604
607
605
603
606
595
581
585
595
597
601
600
604
605
597
599
605
604
603
600
596
589
588
593
601
607
608
607
605
600
591
586
585
589
581
575
576
575
568
561
561
557
550
551
550
546
533
534
537
535
537
530
522
520
517
518
521
519
522
527
521
504
504
500
491
488
480
470
463
464
454
446
450
451
445
437
436
429
418
414
419
416
410
409
412
415
419
418
424
419
404
399
404
407
404
404
407
395
388
387
386
387
384
378
373
370
374
376
380
381
381
385
384
382
380
373
369
370
378
380
380
375
378
381
382
375
371
372
370
365
366
371
386
389
389
388
392
393
393
390
395
392
388
385
386
389
395
401
404
395
392
404
412
407
398
391
395
405
411
411
410
410
414
419
420
427
421
415
411
417
427
430
435
441
447
440
438
443
445
448
450
451
453
450
445
435
423
425
423
423
430
433
440
446
455
448
447
448
446
443
451
467
477
474
460
458
470
483
482
477
478
477
479
488
492
491
481
467
465
463
459
456
456
461
462
465
469
468
469
473
469
470
467
464
460
460
463
465
468
469
472
471
473
477
483
485
488
489
488
485
489
489
490
493
486
468
463
469
480
488
486
482
483
475
463
458
454
457
465
464
463
466
473
470
464
458
451
453
454
460
463
470
469
465
471
469
475
485
485
486
487
490
487
480
480
476
470
473
471
459
452
459
462
461
455
458
465
476
475
473
471
472
469
471
469
465
465
465
459
459
461
460
456
452
452
466
468
476
490
492
478
470
471
469
461
467
484
494
496
492
482
479
473
470
472
476
480
485
483
479
483
493
492
482
476
480
488
489
492
493
495
500
497
499
496
494
491
477
472
470
473
475
477
477
479
486
489
489
491
489
490
493
504
507
502
507
511
512
504
505
509
509
511
515
512
499
482
470
461
455
459
464
469
470
470
473
476
481
491
496
509
512
517
523
522
524
531
534
532
535
536
532
529
531
534
536
534
533
533
533
537
543
540
529
533
536
529
521
517
520
527
534
527
523
524
522
511
503
507
512
512
509
496
485
477
483
486
495
504
492
484
482
476
479
480
471
471
474
477
480
478
471
463
458
458
471
472
473
464
453
450
455
466
461
453
453
455
459
463
459
458
461
454
451
459
464
467
467
464
466
470
475
474
474
474
470
467
466
465
467
470
469
470
469
464
463
464
469
477
481
474
468
463
461
460
464
463
462
452
447
442
432
440
447
452
462
466
470
479
479
472
476
476
477
478
480
485
490
482
469
455
448
441
445
455
463
469
465
465
471
480
483
486
490
501
513
525
540
559
573
598
628
654
679
703
729
755
788
826
854
873
891
900
904
898
891
890
887
883
884
879
869
849
811
756
678
601
512
419
335
238
151
79
30
17
17
17
17
27
45
64
77
99
119
129
153
183
211
242
269
286
301
321
342
368
385
396
407
411
417
434
449
456
476
479
480
488
491
494
494
491
484
482
484
483
477
480
487
494
501
506
508
512
516
521
521
523
525
526
532
542
545
541
540
535
530
529
523
522
524
527
522
522
522
518
522
527
530
531
527
533
540
530
517
515
510
510
510
518
526
536
545
542
539
531
526
528
537
543
551
556
559
560
557
556
560
562
557
550
550
551
543
539
540
538
545
555
560
558
552
546
546
555
566
572
575
584
585
576
566
557
547
537
533
534
537
540
544
544
545
542
539
538
548
558
563
561
555
551
548
542
535
540
549
556
555
555
555
554
555
556
553
557
557
564
575
576
578
578
574
571
581
579
571
564
563
569
582
587
592
596
600
593
589
596
607
610
612
613
618
622
618
616
617
616
619
619
615
612
610
603
599
603
609
606
601
600
599
603
604
607
606
602
593
595
599
590
586
587
587
582
577
576
575
563
553
542
537
540
545
550
549
548
553
557
558
558
556
553
547
540
529
518
517
528
528
522
523
525
520
505
481
460
458
461
469
474
471
464
457
453
453
450
441
433
425
429
433
434
430
420
415
413
413
420
418
411
413
405
401
401
401
400
392
385
385
382
379
383
382
379
377
376
374
373
381
380
377
385
389
385
382
373
369
377
377
367
363
368
366
356
349
348
348
351
358
373
385
388
385
379
378
377
374
372
370
373
376
379
384
390
384
384
384
383
382
383
386
390
394
405
417
418
412
405
401
408
419
426
428
428
424
416
411
407
403
403
408
408
403
403
403
403
413
427
434
439
441
438
440
436
429
428
437
441
446
448
449
444
438
436
438
443
447
442
438
440
447
449
447
444
443
444
446
453
466
475
473
473
483
488
487
481
474
470
466
467
465
464
456
457
466
472
476
482
485
483
479
480
482
481
480
476
472
472
470
471
467
468
477
481
476
470
464
461
466
467
467
470
481
488
482
475
477
480
478
479
477
474
473
473
470
463
461
464
466
468
469
469
468
463
466
468
471
474
478
482
485
485
478
474
474
474
478
483
486
486
485
489
488
486
478
471
471
475
479
479
473
464
462
467
470
466
466
468
468
470
474
476
475
473
470
475
479
483
484
482
482
482
482
480
476
474
478
480
481
478
470
461
460
467
470
467
463
458
465
474
487
489
491
488
487
490
498
501
493
484
473
465
471
474
469
464
461
469
469
463
464
468
470
477
475
468
468
471
480
488
496
500
506
505
504
504
504
497
490
478
468
463
465
472
475
480
483
483
486
489
490
492
497
502
501
500
507
520
532
543
556
567
569
565
555
550
547
539
535
539
549
551
552
550
540
526
522
525
525
522
521
518
513
509
508
506
500
507
511
511
506
494
487
478
473
478
480
477
479
483
480
474
473
476
480
475
468
465
465
471
468
464
459
460
457
457
455
453
452
456
461
459
454
453
453
464
469
473
472
469
465
467
471
477
479
477
478
479
480
473
467
452
445
443
444
445
448
452
457
463
468
470
468
470
472
470
470
462
458
461
460
455
449
448
454
465
470
479
483
484
480
483
489
486
485
485
494
491
486
483
479
475
473
463
462
463
469
471
464
457
458
463
465
463
462
463
466
469
463
455
446
445
456
469
484
500
515
527
537
549
553
568
592
621
651
671
694
719
746
779
808
832
855
874
888
894
898
903
910
905
896
911
926
923
900
859
802
718
624
544
465
393
322
242
178
126
103
90
85
71
73
91
114
129
145
159
179
210
238
257
272
287
305
320
330
338
352
368
380
394
406
417
430
443
452
458
468
476
489
500
497
491
490
488
492
496
500
499
495
492
490
493
493
489
489
489
498
505
506
502
502
508
515
526
526
519
515
518
519
526
538
549
548
538
523
517
513
514
514
514
519
521
527
530
527
524
524
520
517
512
518
528
530
531
533
531
527
533
546
556
557
551
540
536
531
523
525
533
531
534
540
544
546
544
540
542
539
529
518
514
522
530
539
546
543
551
558
565
566
565
566
564
564
553
541
540
546
556
560
556
551
550
555
564
561
555
562
572
572
572
566
566
565
566
566
566
566
559
557
556
560
561
556
551
546
550
552
558
561
560
558
558
559
563
569
577
582
583
584
591
601
602
600
595
595
606
607
599
597
596
597
596
597
605
612
613
617
621
628
634
637
634
625
613
610
608
602
597
590
585
583
584
587
588
591
592
587
586
587
589
589
586
585
585
587
585
578
572
562
555
558
557
548
541
536
544
551
557
561
564
562
553
544
533
524
526
525
527
524
508
492
488
486
483
477
467
460
454
449
442
440
445
449
444
443
441
433
427
427
426
424
424
422
415
412
416
419
419
411
404
402
401
399
396
400
403
400
388
378
371
370
374
375
381
387
389
390
391
395
396
392
383
381
373
369
364
363
369
373
369
364
361
363
363
367
364
357
354
358
360
360
362
365
368
377
372
364
362
363
366
370
375
384
383
377
372
383
397
403
408
411
402
395
392
398
411
414
415
416
421
422
420
414
411
409
405
406
403
402
399
395
392
392
390
391
397
399
401
406
415
410
409
408
406
409
410
406
407
410
416
425
431
434
437
439
436
436
431
429
427
424
423
426
434
437
439
448
459
467
462
458
459
459
460
459
457
456
454
457
466
469
470
463
465
469
471
468
464
464
472
478
478
476
477
470
464
463
460
457
451
450
451
454
463
468
473
476
477
474
477
480
486
485
479
470
467
473
479
479
474
466
460
458
458
462
469
472
470
468
469
468
465
469
479
487
486
478
481
488
486
483
480
477
484
484
471
469
467
466
469
470
469
471
474
473
475
484
488
488
481
476
475
476
482
488
488
487
487
488
489
488
494
494
497
495
490
486
480
479
486
489
490
486
482
481
477
476
472
470
477
487
492
490
484
483
483
487
490
488
484
478
475
476
477
472
472
478
483
477
477
478
479
486
493
492
487
486
480
478
479
483
489
488
483
478
480
481
476
475
482
488
488
488
491
492
494
492
489
485
487
489
487
486
478
467
467
469
463
463
460
461
458
459
473
482
490
491
490
493
495
489
489
489
490
491
485
484
482
480
486
495
495
495
496
497
503
503
502
501
493
488
480
476
476
479
481
478
478
485
491
489
487
489
491
489
483
485
489
494
495
500
509
518
527
538
542
541
542
542
539
547
554
552
547
538
535
527
522
520
518
524
530
529
528
534
536
530
527
529
530
533
536
532
527
522
520
513
506
499
492
491
494
493
489
490
493
494
489
481
476
469
460
460
464
455
450
441
434
440
446
454
462
466
468
465
460
456
458
458
463
467
468
464
463
465
467
467
468
465
466
464
465
472
470
461
458
470
482
481
470
458
451
447
448
450
451
457
462
461
458
457
458
458
466
469
461
452
455
455
450
455
470
480
478
471
468
468
469
466
463
466
468
470
472
462
462
465
468
478
483
480
477
482
485
485
483
481
488
491
495
488
479
468
457
458
462
468
465
465
465
466
462
454
447
445
450
456
466
481
495
513
530
549
564
582
606
637
661
686
718
750
787
818
852
882
903
923
933
935
927
925
930
932
939
954
955
930
884
837
775
696
615
530
444
378
300
239
186
131
98
78
65
63
69
87
106
124
136
154
181
218
246
259
275
301
312
325
341
359
373
379
387
393
390
391
394
409
425
438
452
465
468
471
474
472
471
472
476
475
472
471
477
483
492
489
488
492
497
505
509
505
504
512
517
525
527
524
525
522
519
518
517
514
510
514
510
510
509
504
496
499
508
513
518
520
525
528
532
542
543
533
540
542
540
543
550
548
543
543
538
543
553
557
561
554
545
537
535
533
530
530
530
529
522
517
521
523
522
520
513
515
522
532
536
539
544
542
537
539
535
536
529
528
537
536
536
538
534
532
531
546
561
567
574
574
574
578
581
580
574
560
547
536
535
540
536
537
544
553
568
576
574
570
566
563
559
549
551
564
575
580
579
581
587
594
590
586
584
584
587
587
587
595
603
604
604
611
607
604
599
594
594
597
596
588
580
586
592
599
607
612
612
617
612
605
608
609
612
615
616
612
605
608
601
597
592
594
596
594
595
593
590
591
595
596
597
591
582
583
582
574
575
572
563
562
563
560
554
550
555
557
556
553
543
532
529
531
520
510
507
511
510
513
514
517
515
512
512
507
493
481
482
479
469
461
461
458
459
461
462
455
446
443
435
435
430
430
430
428
428
424
421
411
406
400
389
388
388
390
393
395
396
396
398
398
394
384
372
376
379
378
381
379
381
383
384
385
379
379
382
384
381
374
371
366
360
368
374
375
369
361
354
353
357
359
361
367
368
369
365
361
361
365
372
378
384
393
395
398
393
388
402
419
426
421
419
416
412
411
410
419
423
423
424
419
411
397
387
381
386
389
390
391
393
399
410
415
414
414
413
412
415
424
431
437
436
426
423
434
440
437
425
417
420
426
434
434
433
430
426
422
425
429
423
426
425
428
428
430
436
445
455
457
458
458
453
451
450
449
451
449
446
440
438
448
462
464
464
465
467
463
459
452
456
461
463
470
475
475
469
466
464
466
466
460
461
470
469
461
458
460
461
461
459
462
464
469
478
479
480
485
492
498
494
487
487
491
486
487
485
482
487
483
476
471
467
461
452
450
456
462
475
479
481
486
488
487
483
485
484
483
484
484
485
484
489
488
485
490
499
494
484
471
464
466
479
479
476
470
467
467
470
472
473
472
476
476
479
481
480
478
473
475
477
477
476
467
465
468
470
477
475
474
477
485
485
485
493
501
502
502
499
499
496
495
499
495
495
500
505
507
504
493
478
474
473
463
463
465
472
475
476
483
477
483
484
480
485
489
492
490
490
486
490
485
478
481
478
477
477
481
479
474
477
478
480
475
467
470
469
471
475
470
471
481
489
489
483
479
478
481
483
480
476
477
475
471
477
487
496
491
482
475
473
476
476
473
474
481
484
495
507
514
512
502
500
502
496
483
475
476
478
476
472
474
477
480
482
479
477
477
482
490
494
488
477
465
459
458
456
470
481
490
489
485
484
486
494
501
506
509
503
505
502
504
501
487
481
481
487
486
477
481
491
509
520
524
516
511
507
499
500
499
490
485
483
484
483
484
480
477
476
473
478
479
482
488
495
500
501
504
503
498
493
496
502
510
521
528
534
537
536
536
542
549
551
556
554
555
557
550
549
548
538
539
537
535
532
532
535
535
521
510
506
509
515
515
515
516
515
515
515
507
497
492
489
480
472
469
467
465
467
468
475
480
478
467
455
455
463
464
466
465
469
473
469
460
462
466
468
470
469
464
463
476
484
484
473
474
478
485
494
494
486
472
463
451
445
444
447
446
448
453
459
459
461
474
477
468
461
456
461
463
459
456
461
469
470
466
457
451
457
466
474
472
472
479
480
481
479
475
473
477
465
460
470
472
476
483
484
481
488
498
505
503
493
482
480
483
483
475
467
471
477
480
487
478
461
449
439
438
440
448
457
469
478
484
497
512
524
542
556
572
589
613
634
653
684
720
767
810
840
869
897
912
922
928
930
936
947
950
953
952
954
945
918
878
819
732
638
554
475
384
298
220
151
95
70
64
61
54
59
74
88
100
113
126
144
181
207
216
235
262
286
302
308
326
350
369
385
390
400
409
413
422
426
428
443
461
473
478
488
495
495
493
494
499
500
496
498
502
503
507
510
512
521
529
535
535
528
523
522
517
511
508
513
516
513
515
526
520
512
510
513
508
511
510
508
508
515
522
528
533
538
533
537
545
542
533
525
525
535
548
552
549
545
540
532
530
532
534
532
525
520
520
529
537
542
544
546
557
556
551
537
534
535
533
537
535
524
523
522
524
530
534
538
539
542
543
545
548
540
536
540
546
556
559
565
568
564
562
561
556
552
553
554
558
565
571
576
576
573
567
557
549
551
550
550
550
539
541
540
547
562
574
574
571
573
575
575
573
567
561
559
565
577
583
591
599
598
603
607
615
618
616
617
613
608
596
604
604
602
599
596
592
588
584
586
576
573
581
582
586
590
599
606
609
610
609
607
611
613
612
616
619
620
611
593
577
573
578
577
572
570
565
567
570
575
582
585
584
577
576
572
567
566
565
568
569
561
552
549
545
535
527
525
521
518
523
520
511
500
496
489
489
494
499
495
490
476
464
460
456
453
455
455
448
447
450
460
458
454
452
450
453
456
447
440
437
428
407
394
390
385
386
390
393
396
397
404
411
409
395
383
380
381
386
392
395
396
398
387
380
372
374
377
380
385
388
382
386
388
385
381
377
370
373
382
383
373
371
369
373
378
373
376
379
374
372
376
383
379
369
368
378
385
391
391
391
390
391
387
393
389
381
378
386
395
398
409
416
419
417
415
413
417
420
422
419
418
417
418
418
417
425
429
429
431
431
429
427
419
420
423
426
428
430
434
436
445
453
450
444
447
448
446
441
445
449
460
466
465
471
472
471
473
467
464
465
464
462
462
467
477
483
477
479
478
471
466
469
463
467
484
493
486
481
474
463
447
441
449
459
463
462
467
466
458
458
465
464
454
455
447
439
443
449
451
451
458
462
465
470
467
462
462
469
473
467
469
470
473
479
478
479
474
463
461
458
454
450
456
462
466
467
470
470
471
476
480
479
485
487
492
493
489
476
474
475
475
473
466
471
477
476
483
490
493
484
482
488
486
487
495
498
499
497
497
494
481
473
466
456
460
465
473
477
477
482
482
477
477
480
481
474
460
458
460
461
471
481
481
474
462
456
460
457
458
461
464
470
474
464
454
455
459
462
464
465
474
482
493
505
497
486
483
479
479
477
474
474
472
466
468
467
466
473
482
490
491
489
495
494
489
488
482
473
473
478
480
487
491
490
491
499
494
479
473
478
482
492
499
496
494
498
502
500
498
487
485
491
494
495
489
486
482
480
476
474
474
471
471
469
476
486
490
496
499
500
504
511
513
505
491
479
471
477
487
500
501
500
504
506
499
493
489
488
490
484
490
496
496
494
497
497
497
506
508
500
486
476
475
482
489
491
491
486
477
470
472
481
490
487
487
503
516
522
519
520
529
525
527
528
534
539
542
543
547
551
548
540
533
528
524
528
538
545
543
541
542
547
549
547
543
535
528
526
523
512
506
511
517
515
509
508
504
501
492
482
474
473
468
469
467
465
457
455
462
461
457
458
463
472
484
493
504
503
504
489
474
463
464
463
453
451
454
457
457
464
470
472
469
470
465
460
457
465
473
475
472
463
454
443
441
450
459
459
455
454
459
464
483
480
467
462
460
459
454
454
455
463
475
481
478
476
474
481
489
480
476
478
476
477
485
480
471
462
463
467
467
464
459
457
457
461
463
463
460
452
452
452
452
456
458
459
462
471
473
473
479
487
490
486
479
468
465
468
474
483
492
496
499
505
514
524
535
547
557
576
595
617
643
673
704
731
756
784
817
851
883
898
905
906
894
889
879
867
867
866
865
854
830
786
719
644
566
478
385
288
204
137
81
49
41
44
40
47
59
79
99
122
139
160
185
199
220
251
277
296
317
340
366
377
374
378
388
405
415
419
427
430
434
441
461
475
484
485
493
491
489
485
486
485
490
492
499
499
501
503
507
510
512
517
514
518
520
522
526
524
517
510
496
492
499
505
508
512
509
509
512
518
521
525
538
548
553
548
544
545
548
544
544
547
539
541
534
526
525
524
531
542
549
552
551
553
553
557
547
540
538
539
545
554
561
562
555
549
541
532
534
533
540
541
541
544
543
533
531
534
537
543
551
553
550
544
540
533
531
540
551
550
553
559
559
562
557
558
557
552
549
545
544
548
551
549
544
542
546
544
543
549
554
550
547
551
558
564
563
559
567
573
575
581
592
594
594
591
582
585
587
587
589
590
589
587
591
599
604
599
597
598
596
599
609
613
611
607
604
600
599
604
611
612
608
602
599
591
587
592
588
586
584
590
593
594
593
588
589
584
576
572
576
578
583
585
587
589
592
589
574
566
560
560
566
563
563
559
552
550
553
544
544
543
540
535
537
531
528
529
527
522
526
526
522
522
515
508
504
509
508
500
493
489
491
492
489
480
467
461
456
444
439
436
436
443
443
448
453
451
452
449
442
435
431
428
426
423
419
406
394
390
385
381
380
384
398
406
400
392
387
379
372
368
370
378
379
381
381
386
388
386
384
378
368
360
354
353
354
353
355
357
361
368
375
384
390
393
391
389
390
393
393
389
391
402
409
412
412
412
410
407
403
403
405
405
404
406
403
396
393
389
393
395
391
392
399
409
416
420
419
417
421
431
437
443
448
439
432
437
435
440
440
438
426
419
413
408
407
405
412
420
435
444
450
447
446
448
450
447
445
446
447
443
444
449
455
463
468
465
462
465
468
470
467
459
460
470
480
478
476
472
468
470
474
477
478
479
479
478
476
483
481
482
487
492
500
497
497
494
490
482
480
482
474
472
468
461
461
463
459
456
454
455
460
466
466
472
476
477
478
472
471
482
489
495
499
498
501
498
490
483
477
474
479
478
480
480
478
475
480
484
489
488
487
492
486
478
472
470
475
478
480
472
465
465
464
472
477
478
480
489
495
496
501
494
490
492
495
489
481
475
471
472
477
483
485
491
495
492
490
486
485
485
485
489
498
497
492
492
500
497
488
477
476
478
480
485
497
506
496
486
485
482
471
466
466
466
469
476
486
488
483
477
482
487
495
494
491
490
489
485
485
481
478
476
478
478
486
490
489
491
494
494
495
497
501
500
498
499
494
495
491
493
491
488
491
492
495
500
495
487
484
494
498
499
500
490
490
501
503
496
488
487
481
478
485
492
483
485
488
484
480
478
469
465
471
478
486
489
495
500
510
517
510
494
483
480
481
482
483
482
484
487
492
495
500
510
513
510
505
502
505
511
508
504
498
496
492
486
488
488
481
492
498
508
514
512
507
510
519
523
520
516
517
523
528
531
537
544
550
556
565
571
564
553
550
548
540
540
539
536
537
538
535
529
529
521
514
507
503
498
502
497
495
496
504
508
507
503
497
492
488
489
492
493
477
463
462
468
474
475
479
482
481
483
487
486
488
482
476
468
467
472
475
468
465
462
467
467
466
468
473
478
478
471
467
469
466
465
463
464
471
471
464
459
463
465
463
459
461
459
454
449
453
459
466
477
481
482
480
472
468
470
476
479
480
476
470
464
460
459
458
453
450
449
448
446
448
450
456
461
471
477
476
477
480
483
486
491
495
499
493
495
486
480
475
468
463
463
466
462
462
460
465
473
481
482
482
484
485
487
490
498
498
499
503
514
527
537
554
564
579
594
617
649
676
700
728
763
801
831
861
885
901
907
907
913
911
906
910
914
919
916
909
889
858
800
720
630
538
449
377
305
234
174
134
109
90
79
79
86
103
121
132
143
157
171
194
227
264
294
313
332
346
356
364
371
385
393
400
405
410
417
425
431
443
453
461
458
452
453
460
471
478
482
483
486
489
495
500
506
512
512
512
512
515
516
509
508
506
505
507
514
519
525
527
527
526
526
526
527
528
528
526
529
536
532
531
530
538
542
536
533
527
523
517
513
514
512
506
508
515
519
520
516
513
513
516
519
521
527
529
535
536
532
524
525
527
526
529
536
541
546
547
547
545
540
542
542
541
547
555
561
567
568
564
559
552
547
541
542
546
555
555
554
550
547
543
542
546
547
540
539
544
547
554
553
550
550
553
556
556
556
556
559
562
558
554
558
560
571
578
578
577
576
570
559
550
553
563
570
567
559
556
564
571
574
582
587
588
594
592
580
573
580
583
585
589
588
588
591
598
600
595
590
592
593
596
601
606
609
612
619
630
633
636
627
624
612
599
585
575
575
575
585
591
587
585
584
584
582
579
579
576
576
581
583
585
585
583
578
573
569
565
556
546
540
541
541
531
525
525
526
525
521
519
511
507
502
499
494
485
484
486
489
488
485
477
466
460
456
454
455
454
452
453
446
439
436
426
423
430
432
431
431
432
424
416
410
412
413
414
416
412
406
402
401
401
399
395
388
385
386
391
397
404
404
405
402
393
387
393
395
391
379
369
368
380
380
378
378
379
380
379
379
383
381
373
374
371
365
365
363
364
362
361
367
370
371
370
371
370
371
377
383
384
383
383
383
380
383
385
386
392
400
403
402
402
407
415
413
411
411
406
397
393
397
398
400
396
398
401
401
405
414
418
417
416
420
425
431
441
442
437
437
436
437
439
446
448
443
440
438
439
437
436
434
437
439
443
454
462
463
463
456
459
459
455
460
464
457
457
452
452
446
440
437
438
437
439
445
448
450
452
458
463
460
458
455
455
456
457
459
461
467
476
481
483
485
486
489
496
502
501
487
476
475
479
480
477
473
481
489
480
472
468
467
465
466
472
472
465
463
464
469
476
480
481
479
480
474
475
484
493
499
501
497
494
487
482
482
483
490
497
501
497
493
484
478
475
473
478
476
477
485
484
480
479
481
479
476
471
469
472
477
482
484
483
478
477
475
471
469
470
467
470
482
489
494
498
494
495
501
501
501
499
497
492
481
477
483
483
487
489
489
490
483
482
486
492
491
487
489
493
496
500
501
501
501
500
496
490
478
469
466
464
467
476
478
470
465
471
473
474
481
490
491
488
490
492
484
480
475
474
478
485
493
496
488
482
480
479
478
477
482
485
493
494
491
492
494
485
485
485
487
483
477
471
475
482
484
484
480
478
470
467
471
475
479
488
494
496
501
494
492
498
497
496
503
502
495
498
499
500
500
495
494
494
501
505
504
506
505
499
496
484
483
483
477
476
480
483
481
480
474
472
473
471
473
473
473
476
480
482
486
486
487
482
479
476
477
480
483
482
474
478
490
496
497
498
504
511
510
513
508
508
512
507
507
513
515
507
499
499
494
489
483
488
494
498
500
506
513
524
535
545
556
560
560
560
560
552
547
552
559
559
552
546
542
538
534
532
536
540
543
540
540
535
533
536
533
526
515
503
488
479
470
464
468
468
455
448
452
461
466
478
483
478
480
485
478
478
467
463
465
466
466
466
465
467
469
469
478
478
476
476
476
473
466
463
461
458
456
453
450
454
463
472
475
476
476
472
475
479
475
472
473
478
488
483
470
454
443
437
439
440
440
446
454
455
458
462
468
476
475
467
469
470
473
477
479
479
477
473
470
470
481
480
472
461
454
449
453
462
469
472
472
482
489
487
486
478
474
480
481
474
471
475
480
476
472
478
481
482
481
478
476
477
487
501
511
529
547
564
575
591
610
643
673
708
731
756
782
813
841
864
885
897
904
916
922
923
925
926
929
945
952
936
896
845
788
703
622
541
455
378
296
219
159
110
74
52
37
35
43
58
75
98
117
139
159
181
205
229
254
280
306
330
347
360
378
389
392
392
398
407
412
424
434
449
464
471
475
484
493
494
491
497
501
500
497
498
496
499
504
501
497
495
488
485
491
491
497
505
512
525
532
532
536
533
535
533
517
505
502
503
504
506
506
509
520
523
527
534
538
537
534
526
520
517
520
524
520
521
521
518
520
518
518
523
526
528
527
536
543
546
548
543
543
536
541
545
535
532
532
532
533
535
536
536
536
539
543
546
545
543
544
538
531
531
536
539
541
538
545
554
551
547
543
540
540
545
551
550
554
559
565
572
573
573
571
558
555
547
541
538
550
562
569
567
568
562
560
558
550
553
556
553
549
552
556
557
560
558
562
572
581
588
593
593
596
604
603
597
589
582
581
585
599
607
609
601
591
595
604
611
610
600
596
592
584
587
591
597
605
607
599
595
593
594
599
603
600
598
599
606
611
607
602
604
600
593
592
593
594
587
580
587
588
590
586
572
564
558
555
553
546
541
538
536
536
536
535
534
537
527
523
526
529
529
524
518
512
505
498
495
496
501
498
491
494
493
487
483
485
484
483
471
461
452
450
454
453
450
444
435
427
427
428
430
428
430
426
423
416
396
395
400
403
404
408
416
424
422
417
412
413
408
400
390
388
382
384
373
367
369
371
372
377
387
394
393
391
389
385
378
369
367
376
384
382
373
363
359
354
350
356
355
363
369
367
372
376
382
385
386
383
384
392
397
396
392
395
399
399
392
383
379
380
379
382
390
396
399
402
400
403
410
419
423
423
418
414
417
424
427
425
431
436
428
416
415
422
433
441
442
434
438
438
437
440
444
453
448
444
439
442
450
460
463
464
468
465
458
457
459
452
445
444
451
452
455
454
453
445
437
436
437
438
444
448
455
465
465
467
467
471
476
475
481
483
471
470
467
459
456
457
465
464
459
458
455
449
449
449
452
452
451
456
455
461
469
467
469
481
488
487
482
480
478
472
466
465
477
474
467
463
462
462
473
487
498
496
496
497
487
477
464
453
453
464
467
468
482
494
498
497
491
479
463
457
462
464
467
464
460
460
462
457
460
464
467
469
471
474
486
489
488
489
492
502
499
495
485
478
470
458
452
448
451
455
455
459
462
459
463
467
476
479
487
489
492
491
488
481
476
472
473
474
472
473
475
484
485
483
488
496
507
500
487
476
479
480
477
478
470
462
465
474
481
480
470
459
465
476
481
481
489
500
490
490
485
482
482
485
487
493
489
479
