1017116,480
1017117,484
1017119,480
1017120,486
1017121,493
1017122,487
1017123,477
1017124,475
1017125,480
1017126,493
1017127,498
1017129,475
1017131,461
1017132,463
1017133,476
1017134,484
1017135,487
1017136,501
1017136,506
1017138,503
1017139,502
1017140,497
1017141,475
1017142,452
1017143,454
1017144,473
1017145,492
1017146,492
1017148,504
1017149,499
1017150,487
1017151,478
1017152,490
1017153,500
1017154,503
1017155,506
1017156,497
1017158,495
1017159,497
1017160,499
1017161,492
1017162,493
1017163,504
1017164,524
1017165,546
1017167,570
1017168,588
1017169,617
1017170,656
1017171,690
1017172,736
1017174,781
1017175,814
1017176,823
1017178,822
1017179,836
1017179,881
1017180,925
1017181,962
1017182,990
1017183,989
1017184,989
1017186,989
1017187,988
1017188,989
1017189,989
1017190,989
1017191,990
1017192,990
1017193,937
1017194,860
1017196,713
1017197,624
1017198,538
1017199,474
1017200,432
1017201,398
1017202,382
1017203,368
1017204,348
1017206,297
1017207,282
1017208,263
1017209,284
1017210,317
1017211,332
1017212,344
1017213,354
1017216,351
1017217,359
1017218,362
1017219,369
1017220,385
1017221,391
1017222,392
1017222,398
1017223,403
1017225,415
1017226,418
1017227,416
1017228,415
1017229,423
1017230,416
1017231,396
1017232,407
1017234,388
1017235,380
1017236,377
1017237,381
1017238,388
1017239,404
1017240,418
1017241,433
1017242,449
1017244,456
1017245,445
1017246,425
1017247,400
1017248,378
1017249,378
1017250,397
1017251,419
1017252,440
1017254,449
1017255,460
1017256,468
1017257,466
1017259,462
1017260,472
1017261,483
1017262,485
1017263,495
1017264,472
1017265,460
1017266,455
1017267,454
1017268,450
1017269,444
1017270,445
1017271,458
1017273,491
1017274,480
1017275,463
1017276,467
1017277,474
1017278,478
1017279,476
1017280,478
1017281,483
1017283,488
1017284,487
1017285,483
1017286,477
1017287,481
1017288,496
1017289,496
1017290,484
1017292,483
1017293,484
1017294,483
1017295,477
1017296,484
1017297,485
1017298,476
1017299,465
1017300,462
1017303,485
1017304,496
1017305,508
1017306,516
1017307,502
1017307,501
1017308,503
1017309,518
1017311,510
1017312,511
1017313,493
1017314,488
1017315,492
1017316,479
1017317,458
1017318,460
1017319,473
1017321,492
1017322,497
1017323,483
1017324,489
1017325,489
1017326,488
1017327,485
1017328,489
1017329,502
1017331,526
1017332,527
1017333,526
1017334,521
1017335,517
1017336,509
1017337,499
1017338,505
1017340,521
1017341,528
1017342,522
1017344,509
1017345,513
1017346,520
1017347,531
1017348,534
1017349,533
1017350,535
1017351,543
1017352,555
1017353,552
1017354,553
1017355,546
1017356,546
1017357,538
1017359,517
1017360,525
1017361,517
1017362,541
1017363,570
1017364,576
1017365,567
1017366,560
1017367,556
1017369,537
1017370,541
1017371,551
1017372,572
1017373,574
1017374,576
1017375,566
1017376,543
1017377,533
1017379,543
1017380,562
1017381,586
1017382,584
1017383,568
1017384,563
1017385,558
1017387,552
1017388,547
1017390,544
1017391,544
1017392,570
1017392,610
1017393,619
1017394,613
1017395,608
1017396,605
1017398,579
1017399,563
1017400,559
1017401,564
1017402,563
1017403,548
1017404,546
1017405,554
1017406,559
1017408,572
1017409,579
1017410,584
1017411,582
1017412,588
1017413,576
1017414,560
1017415,541
1017417,502
1017418,517
1017419,540
1017420,545
1017421,534
1017422,513
1017423,510
1017424,524
1017425,544
1017427,531
1017428,515
1017430,521
1017431,533
1017432,546
1017433,552
1017434,535
1017435,537
1017436,532
1017437,526
1017438,522
1017439,519
1017440,513
1017441,505
1017442,497
1017443,496
1017444,498
1017446,481
1017447,464
1017448,452
1017449,455
1017450,463
1017451,474
1017452,480
1017453,474
1017454,475
1017456,462
1017457,443
1017458,423
1017459,417
1017460,426
1017461,446
1017462,454
1017463,456
1017465,442
1017466,436
1017467,432
1017468,422
1017469,416
1017470,407
1017472,405
1017473,385
1017474,365
1017476,412
1017477,440
1017478,425
1017478,393
1017479,372
1017480,380
1017481,400
1017482,415
1017484,413
1017485,398
1017486,386
1017487,377
1017488,379
1017489,385
1017490,386
1017491,389
1017492,393
1017494,371
1017495,371
1017496,385
1017497,385
1017498,380
1017499,371
1017500,362
1017501,382
1017502,393
1017504,414
1017505,419
1017506,420
1017507,414
1017508,405
1017509,400
1017510,395
1017511,408
1017512,414
1017515,417
1017516,412
1017517,407
1017518,415
1017519,430
1017520,430
1017520,412
1017521,396
1017523,389
1017524,383
1017525,382
1017526,391
1017527,380
1017528,373
1017529,379
1017530,384
1017531,396
1017533,433
1017534,444
1017535,436
1017536,423
1017537,412
1017538,410
1017539,416
1017540,430
1017542,466
1017543,465
1017544,458
1017545,455
1017546,433
1017547,410
1017548,418
1017549,423
1017550,419
1017552,418
1017553,430
1017554,442
1017555,440
1017556,434
1017558,430
1017559,434
1017560,446
1017561,458
1017563,457
1017563,449
1017564,448
1017565,448
1017566,423
1017567,427
1017568,447
1017569,457
1017571,443
1017572,443
1017573,449
1017574,442
1017575,436
1017576,429
1017577,429
1017578,436
1017579,429
1017581,414
1017582,447
1017583,460
1017584,455
1017585,456
1017586,460
1017587,464
1017588,464
1017589,462
1017591,480
1017592,486
1017593,491
1017594,490
1017595,494
1017596,485
1017597,474
1017598,467
1017601,468
1017602,472
1017603,465
1017604,453
1017605,447
1017606,447
1017606,444
1017607,450
1017609,483
1017610,495
1017611,501
1017612,486
1017613,466
1017614,459
1017615,450
1017616,445
1017617,447
1017619,460
1017620,448
1017621,452
1017622,461
1017623,464
1017624,463
1017625,466
1017626,470
1017627,472
1017629,496
1017630,510
1017631,515
1017632,498
1017633,482
1017634,475
1017635,469
1017636,457
1017637,456
1017639,479
1017640,485
1017641,493
1017643,490
1017644,489
1017645,489
1017646,491
1017647,479
1017648,480
1017649,486
1017650,480
1017651,483
1017652,473
1017653,478
1017654,493
1017655,503
1017656,469
1017658,428
1017659,435
1017660,448
1017661,461
1017662,475
1017663,483
1017664,492
1017665,495
1017667,487
1017668,478
1017669,474
1017670,506
1017671,517
1017672,508
1017673,485
1017674,453
1017675,447
1017677,463
1017678,474
1017679,483
1017680,486
1017681,481
1017682,479
1017683,480
1017684,484
1017686,480
1017688,477
1017689,478
1017690,474
1017691,478
1017691,482
1017692,478
1017693,463
1017694,463
1017696,467
1017697,448
1017698,443
1017699,450
1017700,467
1017701,480
1017702,491
1017703,495
1017704,484
1017706,473
1017707,472
1017708,465
1017709,454
1017710,453
1017711,464
1017712,469
1017713,466
1017715,496
1017716,504
1017717,501
1017718,492
1017719,479
1017720,486
1017721,497
1017722,486
1017723,468
1017725,463
1017726,471
1017728,476
1017729,473
1017730,463
1017731,470
1017732,472
1017733,479
1017734,475
1017735,475
1017736,480
1017737,474
1017738,483
1017739,496
1017740,501
1017741,508
1017742,527
1017744,528
1017745,502
1017746,473
1017747,470
1017748,485
1017749,485
1017750,504
1017751,512
1017752,511
1017754,495
1017755,480
1017756,476
1017757,485
1017758,493
1017759,496
1017760,505
1017761,516
1017762,520
1017764,488
1017765,454
1017766,438
1017767,449
1017768,457
1017769,464
1017771,483
1017772,485
1017774,494
1017775,488
1017776,471
1017776,478
1017777,481
1017778,481
1017779,477
1017780,460
1017781,454
1017783,486
1017784,502
1017785,503
1017786,502
1017787,504
1017788,506
1017789,503
1017790,495
1017792,490
1017793,490
1017794,501
1017795,507
1017796,485
1017797,452
1017798,458
1017799,468
1017800,467
1017802,466
1017803,467
1017804,467
1017805,464
1017806,447
1017807,445
1017808,465
1017809,480
1017810,497
1017812,511
1017814,503
1017815,492
1017816,482
1017817,477
1017818,478
1017819,484
1017819,488
1017821,498
1017822,504
1017823,488
1017824,479
1017825,470
1017826,461
1017827,472
1017828,486
1017829,492
1017831,487
1017832,487
1017833,483
1017834,488
1017835,493
1017836,496
1017837,496
1017838,496
1017840,488
1017841,488
1017842,485
1017843,482
1017844,481
1017845,475
1017846,462
1017847,470
1017848,488
1017850,531
1017851,545
1017852,550
1017853,545
1017854,519
1017856,496
1017857,477
1017858,474
1017859,483
1017861,510
1017861,508
1017862,499
1017863,486
1017864,470
1017865,466
1017866,475
1017867,476
1017869,483
1017870,494
1017871,491
1017872,481
1017873,463
1017874,466
1017875,474
1017876,474
1017877,472
1017879,463
1017880,462
1017881,479
1017882,501
1017883,510
1017884,496
1017885,475
1017886,457
1017887,449
1017889,459
1017890,464
1017891,459
1017892,449
1017893,450
1017894,444
1017895,459
1017896,472
1017899,490
1017900,503
1017901,507
1017902,510
1017903,516
1017904,514
1017904,502
1017905,491
1017906,494
1017908,504
1017909,513
1017910,525
1017911,527
1017912,533
1017913,515
1017914,496
1017915,502
1017917,516
1017918,519
1017919,517
1017920,511
1017921,503
1017922,492
1017923,481
1017924,483
1017925,484
1017927,477
1017928,479
1017929,484
1017930,490
1017931,480
1017932,473
1017933,474
1017934,484
1017935,487
1017937,473
1017938,466
1017939,465
1017940,463
1017942,471
1017943,476
1017944,482
1017945,495
1017947,465
1017947,437
1017948,422
1017949,427
1017950,425
1017951,439
1017952,451
1017953,465
1017954,480
1017956,535
1017957,551
1017958,561
1017959,563
1017960,548
1017961,526
1017962,504
1017963,489
1017965,475
1017966,476
1017967,482
1017968,482
1017969,491
1017970,488
1017971,487
1017972,489
1017973,491
1017975,485
1017976,489
1017977,498
1017978,499
1017979,504
1017980,508
1017981,510
1017982,514
1017984,514
1017986,505
1017987,506
1017988,506
1017989,501
1017990,493
1017990,480
1017991,475
1017992,473
1017994,486
1017995,476
1017996,474
1017997,476
1017998,490
1017999,502
1018000,497
1018001,506
1018002,513
1018004,514
1018005,512
1018006,515
1018007,528
1018008,531
1018009,533
1018010,522
1018011,511
1018012,507
1018014,496
1018015,495
1018016,488
1018017,485
1018018,497
1018019,514
1018020,524
1018021,524
1018023,528
1018024,527
1018025,534
1018027,551
1018028,553
1018029,546
1018030,553
1018031,540
1018032,508
1018033,507
1018034,522
1018035,540
1018036,546
1018037,529
1018038,515
1018039,519
1018040,530
1018042,512
1018043,498
1018044,487
1018045,493
1018046,494
1018047,490
1018048,477
1018049,473
1018050,469
1018052,471
1018053,470
1018054,464
1018055,467
1018056,475
1018057,467
1018058,450
1018059,453
1018060,471
1018062,477
1018063,484
1018064,487
1018065,479
1018066,494
1018067,507
1018068,519
1018070,522
1018071,510
1018073,483
1018074,483
1018075,470
1018075,458
1018076,453
1018077,452
1018078,460
1018079,469
1018081,470
1018082,485
1018083,497
1018084,508
1018085,506
1018086,505
1018087,487
1018088,468
1018090,457
1018091,457
1018092,467
1018093,477
1018094,473
1018095,470
1018096,476
1018097,470
1018098,462
1018100,480
1018101,483
1018102,486
1018103,493
1018104,483
1018105,459
1018106,444
1018107,445
1018108,451
1018110,451
1018112,455
1018113,480
1018114,500
1018115,513
1018116,516
1018117,511
1018118,507
1018119,494
1018120,490
1018121,483
1018122,471
1018123,472
1018124,480
1018125,477
1018126,490
1018127,501
1018129,526
1018130,529
1018131,527
1018132,525
1018133,529
1018134,529
1018135,533
1018136,543
1018137,553
1018139,599
1018140,622
1018141,656
1018142,692
1018143,718
1018144,741
1018145,750
1018146,773
1018148,798
1018149,827
1018150,859
1018151,893
1018152,920
1018153,950
1018155,988
1018156,989
1018157,989
1018159,989
1018160,989
1018160,988
1018161,989
1018162,988
1018163,989
1018164,990
1018165,950
1018167,788
1018168,709
1018169,626
1018170,547
1018171,481
1018172,436
1018173,403
1018174,374
1018175,340
1018177,298
1018178,302
1018179,315
1018180,315
1018181,320
1018182,332
1018183,332
1018184,316
1018185,311
1018187,340
1018188,349
1018189,344
1018190,336
1018191,343
1018192,363
1018193,385
1018194,396
1018195,391
1018198,408
1018199,420
1018200,414
1018201,407
1018202,395
1018203,394
1018203,388
1018204,376
1018206,395
1018207,404
1018208,415
1018209,430
1018210,445
1018211,439
1018212,405
1018213,378
1018215,419
1018216,428
1018217,426
1018218,435
1018219,430
1018220,417
1018221,410
1018222,412
1018223,405
1018225,424
1018226,430
1018227,422
1018228,428
1018229,432
1018230,448
1018231,461
1018232,470
1018233,469
1018235,437
1018236,439
1018237,457
1018238,473
1018240,466
1018241,466
1018242,469
1018243,473
1018244,462
1018245,459
1018246,462
1018247,468
1018248,465
1018249,433
1018250,438
1018251,453
1018252,463
1018254,472
1018255,464
1018256,466
1018257,459
1018258,464
1018259,478
1018260,480
1018261,488
1018262,501
1018264,470
1018265,469
1018266,476
1018267,486
1018268,483
1018269,479
1018270,488
1018271,509
1018273,509
1018274,498
1018275,485
1018276,471
1018277,468
1018278,481
1018279,492
1018280,506
1018281,506
1018284,470
1018285,459
1018286,474
1018287,493
1018288,496
1018288,504
1018289,507
1018290,507
1018292,502
1018293,505
1018294,502
1018295,492
1018296,487
1018297,484
1018298,496
1018299,509
1018300,518
1018302,495
1018303,476
1018304,472
1018305,475
1018306,481
1018307,485
1018308,501
1018309,502
1018310,499
1018312,502
1018313,505
1018314,508
1018315,506
1018316,517
1018317,527
1018318,532
1018319,536
1018320,547
1018322,550
1018323,538
1018324,532
1018326,531
1018327,531
1018328,531
1018329,536
1018330,536
1018331,531
1018332,547
1018333,560
1018334,556
1018335,555
1018336,551
1018337,550
1018338,548
1018340,534
1018341,522
1018342,519
1018343,518
1018344,527
1018345,531
1018346,534
1018347,543
1018348,550
1018350,547
1018351,551
1018352,567
1018353,562
1018354,571
1018355,579
1018356,571
1018357,557
1018358,547
1018360,528
1018361,520
1018362,528
1018363,537
1018364,543
1018365,540
1018366,542
1018368,549
1018369,553
1018371,555
1018372,555
1018373,557
1018373,565
1018374,588
1018375,595
1018376,582
1018377,564
1018379,571
1018380,575
1018381,579
1018382,584
1018383,576
1018384,555
1018385,542
1018386,536
1018387,540
1018389,557
1018390,551
1018391,552
1018392,551
1018393,534
1018394,525
1018395,534
1018396,534
1018398,539
1018399,540
1018400,541
1018401,544
1018402,549
1018403,546
1018404,535
1018405,525
1018406,509
1018408,498
1018409,506
1018411,514
1018412,513
1018413,496
1018414,479
1018415,474
1018416,461
1018416,461
1018418,496
1018419,472
1018420,481
1018421,490
1018422,478
1018423,466
1018424,452
1018425,447
1018427,456
1018428,462
1018429,442
1018430,436
1018431,436
1018432,435
1018433,430
1018434,433
1018435,445
1018437,444
1018438,459
1018439,459
1018440,460
1018441,446
1018442,421
1018443,398
1018444,385
1018445,387
1018447,406
1018448,412
1018449,407
1018450,406
1018451,415
1018452,413
1018454,394
1018455,372
1018457,370
1018458,369
1018459,381
1018459,396
1018460,408
1018461,407
1018462,398
1018463,392
1018465,401
1018466,409
1018467,427
1018468,434
1018469,428
1018470,413
1018471,403
1018472,393
1018473,386
1018475,427
1018476,445
1018477,446
1018478,424
1018479,412
1018480,422
1018481,431
1018482,424
1018483,399
1018485,379
1018486,364
1018487,368
1018488,364
1018489,358
1018490,356
1018491,359
1018492,368
1018493,378
1018496,399
1018497,403
1018498,407
1018499,404
1018500,406
1018501,410
1018502,413
1018502,420
1018504,418
1018505,411
1018506,417
1018507,438
1018508,449
1018509,446
1018510,440
1018511,452
1018512,456
1018514,449
1018515,454
1018516,461
1018517,464
1018518,468
1018519,472
1018520,469
1018521,465
1018523,421
1018524,400
1018525,393
1018526,406
1018527,438
1018528,446
1018529,448
1018530,449
1018531,454
1018533,425
1018534,418
1018535,422
1018536,433
1018537,430
1018539,415
1018540,424
1018541,438
1018542,449
1018544,432
1018544,440
1018545,465
1018546,473
1018547,481
1018548,485
1018549,476
1018550,475
1018552,449
1018553,440
1018554,434
1018555,442
1018556,459
1018557,480
1018558,490
1018559,494
1018560,497
1018562,484
1018563,466
1018564,462
1018565,472
1018566,469
1018567,462
1018568,437
1018569,434
1018570,431
1018572,415
1018573,424
1018574,435
1018575,450
1018576,472
1018577,489
1018578,489
1018579,466
1018582,455
1018583,438
1018584,439
1018585,452
1018586,461
1018587,462
1018587,481
1018588,492
1018590,488
1018591,480
1018592,465
1018593,461
1018594,463
1018595,464
1018596,469
1018597,482
1018598,488
1018600,480
1018601,485
1018602,489
1018603,481
1018604,478
1018605,482
1018606,467
1018607,460
1018608,459
1018610,466
1018611,476
1018612,478
1018613,472
1018614,474
1018615,488
1018616,513
1018617,509
1018618,507
1018620,468
1018621,459
1018622,472
1018624,491
1018625,505
1018626,510
1018627,511
1018628,504
1018630,458
1018630,474
1018631,484
1018632,476
1018633,463
1018634,459
1018635,460
1018636,469
1018637,469
1018639,456
1018640,436
1018641,428
1018642,437
1018643,448
1018644,457
1018645,461
1018646,465
1018647,471
1018649,469
1018650,470
1018651,467
1018652,470
1018653,479
1018654,502
1018655,490
1018656,487
1018657,491
1018659,477
1018660,466
1018661,460
1018662,450
1018663,455
1018664,465
1018665,477
1018667,484
1018669,486
1018670,488
1018671,493
1018672,488
1018672,484
1018673,479
1018674,479
1018675,476
1018676,471
1018678,474
1018679,483
1018680,491
1018681,491
1018682,490
1018683,478
1018684,471
1018685,472
1018687,480
1018688,470
1018689,477
1018690,475
1018691,477
1018692,471
1018693,469
1018694,480
1018695,481
1018697,473
1018698,465
1018699,472
1018700,479
1018701,486
1018702,493
1018703,492
1018704,487
1018705,484
1018707,492
1018708,494
1018710,497
1018711,489
1018712,492
1018713,470
1018714,450
1018715,442
1018716,451
1018717,462
1018718,471
1018719,490
1018720,493
1018721,480
1018722,462
1018723,456
1018724,464
1018726,469
1018727,467
1018728,464
1018729,478
1018730,490
1018731,489
1018732,486
1018733,489
1018734,498
1018736,492
1018737,485
1018738,483
1018739,485
1018740,486
1018741,490
1018742,477
1018743,441
1018745,491
1018746,505
1018747,495
1018748,484
1018749,467
1018750,465
1018752,477
1018753,493
1018754,493
1018756,507
1018757,500
1018757,482
1018758,475
1018759,465
1018760,454
1018761,464
1018762,458
1018764,451
1018765,459
1018766,472
1018767,479
1018768,476
1018769,468
1018770,467
1018771,466
1018772,465
1018774,471
1018775,475
1018776,471
1018777,463
1018778,466
1018779,477
1018780,485
1018781,504
1018782,517
1018784,518
1018785,517
1018786,515
1018787,500
1018788,500
1018789,498
1018790,501
1018791,492
1018792,478
1018795,486
1018796,489
1018797,483
1018798,472
1018799,469
1018800,481
1018800,501
1018801,509
1018803,475
1018804,453
1018805,460
1018806,454
1018807,414
1018808,397
1018809,408
1018810,433
1018811,437
1018813,420
1018814,436
1018815,466
1018816,481
1018817,485
1018818,481
1018819,481
1018820,485
1018822,503
1018823,515
1018824,513
1018825,501
1018826,504
1018827,515
1018828,538
1018829,535
1018830,516
1018832,492
1018833,471
1018834,471
1018835,476
1018836,480
1018838,487
1018839,494
1018840,502
1018841,500
1018843,467
1018843,455
1018844,451
1018845,461
1018846,473
1018847,472
1018848,466
1018849,480
1018851,483
1018852,471
1018853,463
1018854,465
1018855,474
1018856,468
1018857,462
1018858,470
1018859,469
1018861,417
1018862,404
1018863,410
1018864,447
1018865,495
1018866,509
1018867,488
1018868,451
1018870,463
1018871,480
1018872,480
1018873,479
1018874,488
1018875,507
1018876,510
1018877,507
1018878,505
1018881,507
1018882,496
1018883,490
1018884,491
1018885,511
1018886,513
1018886,506
1018887,498
1018889,441
1018890,425
1018891,435
1018892,456
1018893,462
1018894,461
1018895,461
1018896,456
1018897,456
1018899,465
1018900,475
1018901,482
1018902,494
1018903,504
1018904,506
1018905,501
1018906,497
1018907,492
1018909,497
1018910,497
1018911,491
1018912,489
1018913,495
1018914,485
1018915,487
1018916,489
1018917,491
1018919,515
1018920,516
1018921,504
1018923,504
1018924,509
1018925,511
1018926,517
1018927,518
1018928,523
1018929,516
1018930,507
1018931,506
1018932,510
1018933,515
1018934,526
1018935,525
1018936,523
1018938,513
1018939,496
1018940,489
1018941,475
1018942,471
1018943,473
1018944,468
1018945,468
1018947,487
1018948,487
1018949,476
1018950,454
1018951,456
1018952,470
1018953,482
1018954,472
1018955,460
1018957,476
1018958,476
1018959,463
1018960,460
1018961,443
1018962,428
1018963,448
1018964,460
1018966,472
1018968,460
1018969,450
1018970,451
1018971,441
1018971,431
1018972,425
1018973,427
1018974,445
1018976,445
1018977,438
1018978,438
1018979,447
1018980,450
1018981,438
1018982,424
1018983,421
1018984,427
1018986,440
1018987,448
1018988,448
1018989,446
1018990,441
1018991,414
1018992,405
1018993,405
1018995,426
1018996,444
1018997,450
1018998,465
1018999,457
1019000,451
1019001,450
1019002,456
1019003,474
1019005,497
1019006,479
1019008,475
1019009,477
1019010,470
1019011,457
1019012,458
1019013,451
1019014,454
1019015,488
1019016,505
1019017,506
1019018,502
1019019,503
1019020,499
1019021,464
1019022,421
1019024,399
1019025,435
1019026,478
1019027,501
1019028,495
1019029,482
1019030,476
1019031,482
1019032,494
1019034,524
1019035,540
1019036,558
1019037,570
1019038,599
1019039,631
1019040,645
1019041,662
1019042,698
1019044,788
1019045,832
1019046,810
1019047,730
1019048,756
1019049,809
1019051,880
1019052,966
1019054,989
1019055,989
1019056,989
1019056,989
1019057,988
1019058,988
1019059,989
1019060,989
1019061,989
1019063,934
1019064,849
1019065,789
1019066,717
1019067,642
1019068,567
1019069,475
1019070,389
1019072,271
1019073,263
1019074,268
1019075,316
1019076,339
1019077,326
1019078,301
1019079,215
1019080,145
1019082,189
1019083,243
1019084,279
1019085,281
1019086,316
1019087,356
1019088,383
1019089,396
1019090,382
1019092,375
1019094,372
1019095,353
1019096,361
1019097,357
1019098,355
1019099,377
1019099,406
1019101,426
1019102,417
1019103,404
1019104,396
1019105,404
1019106,413
1019107,425
1019108,424
1019109,418
1019111,412
1019112,412
1019113,411
1019114,406
1019115,409
1019116,410
1019117,420
1019118,424
1019120,418
1019121,410
1019122,410
1019123,413
1019124,407
1019125,410
1019126,407
1019127,407
1019128,415
1019130,414
1019131,423
1019132,432
1019133,435
1019134,450
1019136,454
1019137,453
1019138,456
1019139,442
1019141,447
1019141,448
1019142,442
1019143,435
1019144,422
1019145,429
1019146,435
1019147,440
1019149,441
1019150,431
1019151,417
1019152,412
1019153,419
1019154,435
1019155,461
1019156,477
1019157,485
1019159,479
1019160,475
1019161,470
1019162,475
1019163,484
1019164,485
1019165,489
1019166,455
1019167,428
1019169,437
1019170,450
1019171,453
1019172,465
1019173,477
1019174,488
1019175,492
1019176,499
1019179,477
1019180,464
1019181,475
1019182,493
1019183,505
1019184,519
1019184,523
1019185,496
1019186,486
1019188,515
1019189,483
1019190,447
1019191,432
1019192,448
1019193,470
1019194,476
1019195,485
1019197,494
1019198,503
1019199,484
1019200,484
1019201,494
1019202,506
1019203,507
1019204,514
1019205,501
1019207,479
1019208,491
1019209,494
1019210,480
1019211,455
1019212,438
1019213,460
1019214,488
1019215,503
1019217,531
1019218,532
1019219,525
1019220,524
1019222,534
1019223,532
1019224,517
1019225,519
1019227,484
1019227,522
1019228,535
1019229,537


1028017,277
1028018,277
1028020,3
1028009,431
1028012,342
1028013,305
1028014,301
1028015,312
1028016,315
1028016,285
1028017,277
1028018,277
1028020,314
1028021,311
1028022,290
1028023,293
1028024,321
1028025,381
1028026,396
1028027,386
1028028,385
1028030,373
1028031,406
1028032,437
1028033,445
1028034,471
1028035,459
1028036,445
1028037,433
1028038,437
1028040,480
1028041,456
1028042,441
1028043,442
1028044,465
1028045,482
1028046,452
1028047,407
1028048,396
1028050,445
1028051,444
1028052,435
1028054,423
1028055,432
1028056,446
1028057,457
1028058,462
1028059,479
1028060,481
1028061,484
1028062,480
1028063,475
1028064,474
1028065,481
1028066,482
1028068,482
1028069,460
1028070,463
1028071,462
1028072,471
1028073,500
1028074,503
1028075,487
1028076,472
1028078,490
1028079,452
1028080,454
1028081,476
1028082,490
1028083,511
1028084,520
1028085,530
1028086,516
1028088,505
1028089,476
1028090,468
1028091,485
1028092,499
1028093,499
1028094,499
1028096,484
1028097,491
1028099,539
1028100,532
1028101,486
1028102,511
1028102,532
1028103,499
1028104,486
1028105,515
1028107,540
1028108,531
1028109,533
1028110,543
1028111,535
1028112,551
1028113,559
1028114,535
1028115,480
1028117,532
1028118,553
1028119,532
1028120,525
1028121,512
1028122,490
1028123,494
1028124,510
1028126,528
1028127,533
1028128,539
1028129,534
1028130,523
1028131,490
1028132,490
1028133,494
1028134,499
1028136,544
1028137,551
1028139,533
1028140,519
1028141,522
1028142,532
1028143,530
1028144,532
1028144,532
1028146,522
1028147,524
1028148,519
1028149,530
1028150,531
1028151,533
1028152,540
1028153,551
1028155,529
1028156,528
1028157,538
1028158,551
1028159,543
1028160,542
1028161,564
1028162,568
1028163,569
1028165,558
1028166,551
1028167,551
1028168,549
1028169,525
1028170,542
1028171,548
1028172,542
1028173,551
1028175,541
1028176,570
1028177,574
1028178,554
1028179,560
1028180,585
1028182,601
1028183,581
1028185,566
1028186,574
1028187,572
1028187,578
1028188,581
1028189,600
1028190,573
1028191,534
1028193,566
1028194,580
1028195,582
1028196,578
1028197,518
1028198,503
1028199,529
1028200,572
1028201,621
1028203,616
1028204,608
1028205,618
1028206,634
1028207,596
1028208,575
1028209,532
1028210,530
1028211,526
1028213,542
1028214,561
1028215,567
1028216,570
1028217,566
1028218,568
1028219,578
1028220,578
1028221,589
1028224,583
1028225,572
1028226,552
1028227,531
1028228,517
1028229,521
1028230,513
1028230,504
1028232,473
1028233,494
1028234,515
1028235,534
1028236,548
1028237,559
1028238,547
1028239,514
1028240,470
1028242,453
1028243,463
1028244,494
1028245,492
1028246,470
1028247,464
1028248,470
1028249,509
1028251,534
1028252,513
1028253,519
1028254,527
1028255,526
1028256,518
1028257,493
1028258,457
1028259,449
1028261,457
1028262,479
1028263,510
1028264,518
1028265,492
1028267,469
1028268,469
1028269,465
1028270,442
1028272,427
1028272,440
1028273,458
1028274,458
1028275,463
1028276,465
1028277,454
1028278,436
1028280,447
1028281,442
1028282,425
1028283,410
1028284,418
1028285,408
1028286,404
1028287,405
1028288,412
1028290,418
1028291,429
1028292,429
1028293,424
1028294,425
1028295,440
1028296,444
1028297,448
1028298,482
1028300,301
1028301,304
1028302,367
1028303,392
1028304,397
1028305,407
1028306,420
1028307,436
1028310,388
1028311,371
1028312,359
1028313,374
1028314,384
1028315,401
1028315,413
1028316,410
1028318,412
1028319,402
1028320,403
1028321,422
1028322,440
1028323,455
1028324,473
1028325,457
1028326,409
1028328,412
1028329,422
1028330,429
1028331,442
1028332,441
1028333,440
1028334,433
1028335,429
1028336,405
1028338,422
1028339,446
1028340,457
1028341,463
1028342,465
1028343,450
1028344,428
1028345,416
1028346,399
1028348,400
1028349,411
1028350,436
1028352,458
1028353,465
1028354,471
1028355,465
1028356,460
1028358,452
1028358,451
1028359,453
1028360,450
1028361,450
1028362,449
1028363,452
1028364,454
1028365,445
1028367,455
1028368,474
1028369,480
1028370,466
1028371,485
1028372,508
1028373,507
1028374,477
1028375,445
1028377,460
1028378,473
1028379,450
1028380,418
1028381,419
1028382,437
1028383,447
1028384,445
1028386,478
1028387,471
1028388,469
1028389,477
1028390,480
1028391,485
1028392,492
1028393,511
1028395,528
1028397,520
1028398,503
1028399,451
1028400,457
1028400,471
1028401,476
1028402,478
1028403,462
1028405,452
1028406,471
1028407,486
1028408,468
1028409,445
1028410,435
1028411,441
1028412,455
1028413,494
1028415,480
1028416,461
1028417,474
1028418,471
1028419,472
1028420,475
1028421,474
1028422,469
1028423,472
1028425,458
1028426,451
1028427,453
1028428,473
1028429,486
1028430,482
1028431,481
1028432,487
1028434,482
1028435,483
1028436,482
1028438,489
1028439,475
1028440,467
1028441,481
1028442,490
1028443,512
1028444,490
1028445,494
1028446,493
1028447,483
1028448,463
1028449,451
1028450,461
1028451,457
1028453,483
1028454,478
1028455,476
1028456,476
1028457,474
1028458,472
1028459,471
1028460,471
1028461,472
1028463,472
1028464,476
1028465,480
1028466,480
1028467,474
1028468,477
1028469,480
1028470,490
1028471,477
1028473,432
1028474,447
1028475,460
1028476,480
1028477,477
1028478,464
1028480,460
1028481,478
1028483,474
1028484,465
1028485,467
1028486,478
1028486,496
1028487,501
1028488,476
1028489,473
1028490,484
1028492,505
1028493,519
1028494,527
1028495,506
1028496,470
1028497,474
1028498,458
1028499,469
1028501,523
1028502,527
1028503,542
1028504,548
1028505,508
1028506,480
1028507,464
1028508,463
1028509,478
1028511,515
1028512,511
1028513,496
1028514,486
1028515,465
1028516,449
1028517,457
1028518,465
1028519,472
1028521,539
1028523,546
1028524,544
1028525,531
1028526,464
1028527,434
1028528,477
1028528,508
1028530,503
1028531,496
1028532,511
1028533,501
1028534,509
1028535,511
1028536,508
1028537,507
1028538,495
1028540,508
1028541,518
1028542,525
1028543,527
1028544,520
1028545,515
1028546,511
1028547,513
1028548,521
1028550,553
1028551,528
1028552,497
1028553,489
1028554,488
1028555,504
1028556,506
1028557,507
1028559,514
1028560,539
1028561,545
1028562,512
1028563,494
1028564,502
1028566,510
1028567,511
1028568,525
1028570,540
1028571,542
1028571,504
1028572,505
1028573,502
1028574,479
1028575,481
1028576,498
1028578,499
1028579,500
1028580,507
1028581,500
1028582,495
1028583,464
1028584,462
1028585,479
1028586,480
1028588,465
1028589,476
1028590,473
1028591,470
1028592,476
1028593,464
1028594,447
1028595,455
1028596,472
1028598,481
1028599,468
1028600,457
1028601,435
1028602,445
1028603,457
1028604,465
1028605,468
1028608,443
1028609,439
1028610,446
1028611,463
1028612,481
1028613,511
1028613,516
1028614,540
1028615,530
1028617,465
1028618,443
1028619,445
1028620,464
1028621,487
1028622,519
1028623,532
1028624,519
1028626,451
1028627,455
1028628,455
1028629,467
1028630,464
1028631,471
1028632,499
1028633,522
1028634,555
1028636,520
1028637,468
1028638,411
1028639,415
1028640,469
1028641,496
1028642,485
1028643,482
1028644,480
1028646,502
1028647,506
1028648,515
1028649,519
1028651,507
1028652,492
1028653,491
1028654,468
1028655,472
1028656,503
1028657,521
1028658,548
1028659,554
1028660,543
1028661,556
1028662,570
1028663,589
1028665,608
1028666,617
1028667,651
1028668,694
1028669,743
1028670,763
1028671,764
1028672,771
1028673,791
1028675,823
1028676,822
1028677,810
1028678,826
1028679,859
1028680,918
1028681,975
1028682,989
1028684,967
1028685,976
1028686,978
1028687,959
1028688,916
1028689,867
1028690,798
1028691,741
1028692,701
1028695,529
1028696,444
1028697,378
1028698,344
1028699,317
1028699,309
1028700,311
1028701,319
1028703,328
1028704,331
1028705,318
1028706,305
1028707,322
1028708,339
1028709,343
1028710,337
1028711,308
1028713,357
1028714,372
1028715,372
1028716,383
1028717,405
1028718,428
1028719,443
1028720,438
1028721,453
1028723,479
1028724,483
1028725,465
1028726,427
1028727,403
1028728,411
1028729,416
1028730,429
1028732,458
1028733,484
1028734,489
1028736,474
1028737,460
1028738,417
1028739,382
1028740,396
1028741,423
1028742,434
1028743,423
1028744,417
1028745,418
1028746,418
1028747,428
1028748,450
1028749,490
1028751,484
1028752,476
1028753,474
1028754,498
1028755,492
1028756,474
1028757,452
1028758,389
1028759,414
1028761,466
1028762,483
1028763,457
1028764,397
1028765,443
1028766,468
1028767,475
1028768,472
1028769,463
1028771,468
1028772,479
1028773,472
1028774,470
1028775,455
1028776,468
1028777,485
1028779,476
1028780,463
1028782,478
1028783,473
1028784,506
1028784,539
1028785,546
1028786,523
1028787,478
1028788,457
1028790,495
1028791,498
1028792,515
1028793,518
1028794,505
1028795,508
1028796,502
1028797,502
1028798,509
1028800,508
1028801,510
1028802,522
1028803,533
1028804,534
1028805,529
1028806,530
1028807,518
1028809,499
1028810,500
1028811,515
1028812,533
1028813,524
1028814,514
1028815,515
1028816,514
1028817,519
1028819,502
1028820,514
1028822,525
1028823,529
1028824,530
1028825,522
1028826,496
1028827,506
1028828,506
1028829,518
1028830,545
1028831,538
1028832,535
1028833,542
1028834,537
1028835,537
1028836,544
1028838,528
1028839,553
1028840,602
1028841,577
1028842,500
1028843,484
1028844,526
1028845,545
1028846,532
1028848,515
1028849,540
1028850,537
1028851,532
1028852,542
1028853,547
1028854,559
1028855,581
1028857,526
1028858,513
1028859,516
1028860,549
1028861,572
1028862,589
1028864,576
1028865,552
1028866,546
1028868,540
1028869,508
1028870,488
1028870,518
1028871,519
1028872,530
1028873,567
1028874,578
1028876,549
1028877,544
1028878,555
1028879,572
1028880,582
1028881,567
1028882,565
1028883,576
1028884,587
1028886,570
1028887,566
1028888,579
1028889,580
1028890,571
1028891,566
1028892,564
1028893,570
1028894,586
1028896,586
1028897,568
1028898,567
1028899,570
1028900,576
1028901,564
1028902,551
1028903,558
1028904,573
1028907,565
1028908,542
1028909,527
1028910,543
1028911,544
1028912,563
1028912,584
1028913,593
1028915,570
1028916,534
1028917,515
1028918,496
1028919,501
1028920,480
1028921,447
1028922,485
1028923,529
1028925,541
1028926,512
1028927,491
1028928,483
1028929,499
1028930,509
1028931,537
1028932,543
1028934,528
1028935,506
1028936,459
1028937,449
1028938,485
1028939,497
1028940,502
1028941,482
1028942,452
1028944,454
1028945,449
1028946,450
1028947,435
1028948,404
1028950,404
1028951,428
1028952,460
1028953,445
1028955,435
1028955,438
1028956,432
1028957,414
1028958,404
1028959,424
1028960,430
1028961,423
1028963,411
1028964,409
1028965,413
1028966,399
1028967,388
1028968,384
1028969,393
1028970,401
1028971,431
1028973,427
1028974,406
1028975,391
1028976,387
1028977,380
1028978,341
1028979,333
1028980,337
1028982,399
1028983,398
1028984,394
1028985,394
1028986,406
1028987,409
1028988,426
1028989,420
1028990,404
1028993,412
1028994,399
1028995,386
1028996,386
1028997,393
1028998,390
1028998,390
1028999,391
1029001,381
1029002,388
1029003,395
1029004,411
1029005,425
1029006,435
1029007,426
1029008,423
1029009,426
1029011,432
1029012,430
1029013,437
1029014,445
1029015,439
1029016,425
1029017,427
1029018,426
1029019,435
1029021,454
1029022,450
1029023,441
1029024,447
1029025,459
1029026,446
1029027,417
1029028,400
1029029,404
1029031,420
1029032,441
1029033,460
1029035,459
1029036,447
1029037,429
1029038,420
1029039,417
1029040,435
1029041,440
1029042,434
1029043,427
1029044,441
1029045,441
1029046,424
1029047,420
1029048,446
1029050,503
1029051,503
1029052,438
1029053,414
1029054,468
1029055,484
1029056,468
1029057,455
1029059,459
1029060,445
1029061,441
1029062,436
1029063,452
1029064,462
1029065,456
1029066,448
1029067,444
1029069,454
1029070,458
1029071,458
1029072,444
1029073,450
1029074,461
1029075,474
1029076,473
1029078,464
1029080,441
1029081,461
1029082,492
1029083,486
1029083,460
1029084,443
1029085,449
1029086,463
1029088,463
1029089,456
1029090,472
1029091,502
1029092,516
1029093,509
1029094,494
1029095,495
1029096,497
1029098,479
1029099,498
1029100,508
1029101,502
1029102,489
1029103,463
1029104,453
1029105,465
1029106,470
1029108,490
1029109,482
1029110,474
1029111,484
1029112,483
1029113,484
1029114,479
1029115,386
1029117,421
1029118,440
1029120,442
1029121,456
1029122,470
1029123,474
1029124,469
1029125,486
1029126,506
1029127,459
1029128,453
1029129,462
1029130,480
1029131,513
1029132,534
1029133,525
1029134,490
1029136,477
1029137,467
1029138,469
1029139,470
1029140,444
1029141,431
1029142,436
1029143,445
1029144,506
1029146,508
1029147,492
1029148,483
1029149,480
1029150,486
1029151,487
1029152,482
1029153,487
1029154,475
1029156,461
1029157,458
1029158,470
1029159,474
1029160,461
1029161,452
1029163,478
1029164,485
1029166,507
1029167,500
1029168,480
1029168,471
1029169,471
1029170,467
1029171,463
1029172,462
1029173,479
1029175,494
1029176,488
1029177,464
1029178,439
1029179,470
1029180,504
1029181,492
1029182,499
1029184,514
1029185,514
1029186,503
1029187,482
1029188,461
1029189,471
1029190,501
1029191,502
1029192,499
1029194,502
1029195,495
1029196,484
1029197,474
1029198,448
1029199,444
1029200,455
1029201,469
1029202,457
1029204,483
1029206,487
1029207,482
1029208,494
1029209,518
1029210,514
1029211,494
1029211,457
1029213,454
1029214,485
1029215,482
1029216,470
1029217,468
1029218,486
1029219,485
1029220,483
1029221,492
1029223,519
1029224,516
1029225,504
1029226,500
1029227,498
1029228,472
1029229,461
1029230,479
1029232,479
1029233,487
1029234,486
1029235,483
1029236,490
1029237,520
1029238,547
1029239,549
1029240,535
1029242,486
1029243,499
1029244,504
1029245,499
1029246,487
1029248,476
1029249,471
1029250,507
1029251,539
1029253,557
1029254,546
1029254,515
1029255,502
1029256,503
1029257,508
1029258,513
1029259,511
1029261,491
1029262,499
1029263,518
1029264,501
1029265,492
1029266,496
1029267,509
1029268,528
1029269,553
1029271,551
1029272,533
1029273,529
1029274,527
1029275,515
1029276,497
1029277,503
1029278,509
1029279,517
1029281,548
1029282,544
1029283,527
1029284,524
1029285,512
1029286,496
1029287,503
1029288,510
1029291,530
1029292,522
1029293,507
1029294,499
1029295,494
1029296,487
1029296,477
1029297,476
1029298,472
1029300,465
1029301,456
1029302,475
1029303,507
1029304,513
1029305,486
1029306,468
1029307,456
1029309,418
1029310,441
1029311,448
1029312,459
1029313,461
1029314,437
1029315,443
1029316,461
1029317,475
1029319,522
1029320,495
1029321,479
1029322,494
1029323,476
1029324,469
1029325,467
1029326,446
1029327,470
1029329,483
1029330,498
1029331,505
1029332,506
1029334,502
1029335,505
1029336,500
1029337,484
1029339,478
1029339,480
1029340,484
1029341,492
1029342,500
1029343,495
1029344,463
1029345,444
1029346,448
1029348,471
1029349,499
1029350,544
1029351,531
1029352,512
1029353,519
1029354,513
1029355,488
1029357,461
1029358,476
1029359,483
1029360,515
1029361,545
1029362,523
1029363,485
1029364,488
1029365,472
1029367,455
1029368,472
1029369,485
1029370,493
1029371,477
1029372,435
1029373,439
1029374,456
1029376,468
1029378,461
1029379,485
1029380,532
1029381,596
1029382,633
1029382,684
1029383,678
1029384,648
1029386,639
1029387,652
1029388,676
1029389,725
1029390,743
1029391,742
1029392,768
1029393,785
1029394,769
1029396,840
1029397,890
1029398,916
1029399,933
1029400,924
1029401,942
1029402,947
1029403,936
1029404,947
1029406,989
1029407,989
1029408,973
1029409,924
1029410,877
1029411,820
1029412,743
1029413,643
1029415,512
1029416,444
1029417,396
1029419,362
1029420,343
1029421,339
1029422,339
1029423,337
1029424,333
1029425,282
1029426,275
1029427,290
1029428,312
1029429,335
1029430,359
1029431,356
1029432,338
1029434,377
1029435,385
1029436,397
1029437,417
1029438,424
1029439,428
1029440,433
1029441,429
1029442,443
1029444,435
1029445,422
1029446,406
1029447,403
1029448,415
1029449,439
1029450,451
1029451,427
1029452,419
1029454,421
1029455,438
1029456,447
1029457,436
1029458,436
1029459,461
1029460,470
1029462,453
1029463,444
1029465,422
1029466,406
1029467,407
1029467,418
1029468,436
1029469,446
1029470,444
1029471,456
1029473,424
1029474,432
1029475,455
1029476,436
1029477,444
1029478,470
1029479,515
1029480,513
1029482,463
1029483,472
1029484,490
1029485,483
1029486,472
1029487,475
1029488,470
1029489,463
1029490,463
1029492,473
1029493,477
1029494,481
1029495,470
1029496,461
1029497,469
1029498,496
1029499,522
1029500,525
1029502,519
1029504,509
1029505,506
1029506,494
1029507,494
1029508,503
1029509,503
1029509,504
1029511,489
1029512,496
1029513,514
1029514,505
1029515,470
1029516,452
1029517,425
1029518,433
1029519,461
1029521,478
1029522,479
1029523,491
1029524,502
1029525,498
1029526,477
1029527,484
1029528,477
1029529,486
1029531,485
1029532,488
1029533,493
1029534,504
1029535,515
1029536,513
1029537,531
1029538,538
1029540,526
1029541,509
1029542,521
1029543,525
1029544,520
1029545,527
1029547,520
1029548,494
1029549,483
1029551,514
1029552,526
1029552,522
1029553,512
1029554,499
1029555,488
1029556,506
1029557,515
1029559,519
1029560,527
1029561,549
1029562,554
1029563,526
1029564,508
1029565,509
1029566,512
1029567,510
1029569,521
1029570,572
1029571,585
1029572,581
1029573,553
1029574,541
1029575,542
1029576,525
1029577,524
1029579,552
1029580,546
1029581,549
1029582,559
1029583,571
1029584,580
1029585,579
1029586,583
1029587,575
1029590,513
1029591,511
1029592,510
1029593,496
1029594,528
1029595,551
1029595,552
1029596,548
1029598,556
1029599,571
1029600,537
1029601,521
1029602,541
1029603,550
1029604,531
1029605,518
1029607,546
1029608,543
1029609,550
1029610,554
1029611,566
1029612,575
1029613,554
1029614,552
1029615,563
1029617,570
1029618,551
1029619,527
1029620,521
1029621,525
1029622,543
1029623,546
1029624,542
1029625,521
1029627,518
1029628,526
1029629,553
1029630,540
1029632,516
1029633,494
1029634,502
1029635,512
1029636,534
1029637,542
1029638,554
1029639,558
1029640,541
1029641,536
1029642,533
1029643,527
1029644,514
1029646,477
1029647,491
1029648,508
1029649,529
1029650,532
1029651,535
1029652,520
1029653,511
1029654,513
1029656,482
1029657,459
1029658,459
1029659,466
1029660,475
1029661,476
1029662,462
1029663,434
1029665,429
1029666,430
1029667,424
1029668,431
1029669,454
1029670,489
1029671,511
1029672,495
1029673,455
1029676,386
1029677,399
1029678,387
1029679,390
1029680,397
1029680,394
1029681,408
1029682,425
1029684,426
1029685,420
1029686,401
1029687,375
1029688,377
1029689,409
1029690,442
1029691,433
1029692,431
1029694,459
1029695,433
1029696,401
1029697,360
1029698,358
1029699,388
1029700,403
1029701,385
1029702,377
1029704,392
1029705,405
1029706,416
1029707,419
1029708,396
1029709,406
1029710,415
1029711,416
1029712,419
1029714,352
1029715,372
1029716,394
1029718,402
1029719,389
1029720,388
1029721,407
1029722,437
1029723,406
1029724,414
1029725,420
1029726,440
1029727,449
1029728,421
1029729,407
1029730,399
1029732,442
1029733,443
1029734,403
1029735,393
1029736,409
1029737,438
1029738,449
1029739,433
1029740,437
1029742,435
1029743,422
1029744,404
1029745,396
1029746,417
1029747,443
1029748,442
1029749,432
1029750,439
1029752,452
1029753,455
1029754,431
1029755,423
1029756,436
1029757,447
1029758,452
1029760,449
1029761,447
1029763,481
1029764,482
1029765,465
1029766,442
1029766,438
1029767,439
1029768,425
1029769,443
1029771,448
1029772,459
1029773,460
1029774,423
1029775,442
1029776,456
1029777,468
1029778,480
1029779,498
1029781,455
1029782,438
1029783,415
1029784,406
1029785,420
1029786,423
1029787,426
1029788,445
1029790,471
1029791,468
1029792,462
1029793,456
1029794,446
1029795,443
1029796,448
1029797,461
1029798,485
1029800,480
1029801,451
1029803,471
1029804,484
1029805,467
1029806,463
1029807,448
1029808,472
1029808,487
1029810,480
1029811,456
1029812,444
1029813,468
1029814,484
1029815,482
1029816,480
1029817,473
1029819,465
1029820,478
1029821,490
1029822,490
1029823,480
1029824,446
1029825,427
1029826,429
1029827,449
1029829,514
1029830,508
1029831,479
1029832,469
1029833,464
1029834,460
1029835,454
1029836,476
1029837,496
1029839,508
1029840,504
1029841,504
1029842,494
1029843,472
1029844,456
1029846,435
1029847,446
1029849,483
1029850,450
1029851,423
1029851,425
1029852,446
1029853,464
1029854,480
1029855,485
1029857,496
1029858,498
1029859,504
1029860,503
1029861,500
1029862,495
1029863,480
1029864,467
1029865,459
1029867,467
1029868,471
1029869,471
1029870,462
1029871,469
1029872,499
1029873,496
1029874,472
1029875,461
1029877,473
1029878,474
1029879,463
1029880,465
1029881,461
1029882,454
1029883,462
1029884,484
1029885,480
1029888,460
1029889,479
1029890,529
1029891,561
1029892,538
1029893,493
1029894,452
1029894,434
1029896,479
1029897,484
1029898,506
1029899,516
1029900,496
1029901,474
1029902,473
1029903,487
1029904,482
1029906,485
1029907,485
1029908,484
1029909,476
1029910,476
1029911,485
1029912,490
1029913,490
1029915,493
1029916,497
1029917,500
1029918,496
1029919,458
1029920,426
1029921,440
1029922,461
1029923,457
1029925,470
1029926,485
1029927,485
1029928,470
1029929,471
1029931,480
1029932,481
1029933,502
1029934,492
1029936,469
1029936,471
1029937,484
1029938,476
1029939,480
1029940,507
1029941,519
1029942,469
1029944,446
1029945,475
1029946,498
1029947,477
1029948,470
1029949,475
1029950,478
1029951,485
1029952,480
1029954,471
1029955,466
1029956,460
1029957,463
1029958,477
1029959,473
1029960,472
1029961,477
1029962,482
1029964,448
1029965,455
1029966,478
1029967,485
1029968,503
1029969,510
1029970,525
1029971,533
1029974,494
1029975,473
1029976,478
1029977,491
1029978,497
1029979,505
1029979,511
1029980,519
1029982,518
1029983,491
1029984,474
1029985,483
1029986,499
1029987,496
1029988,491
1029989,478
1029990,466
1029992,471
1029993,487
1029994,530
1029995,535
1029996,519
1029997,507
1029998,502
1029999,490
1030000,486
1030002,508
1030003,499
1030004,487
1030005,486
1030006,495
1030007,501
1030008,507
1030009,494
1030010,488
1030012,505
1030013,508
1030014,486
1030016,467
1030017,480
1030018,480
1030019,491
1030020,503
1030022,498
1030022,487
1030023,499
1030024,504
1030025,526
1030026,550
1030027,522
1030028,500
1030029,467
1030031,498
1030032,546
1030033,571
1030034,576
1030035,558
1030036,561
1030037,556
1030038,522
1030040,501
1030041,521
1030042,529
1030043,525
1030044,531
1030045,546
1030046,563
1030047,554
1030048,556
1030050,506
1030051,507
1030052,520
1030053,535
1030054,545
1030055,534
1030056,531
1030057,526
1030059,521
1030061,490
1030062,486
1030063,489
1030064,477
1030064,469
1030065,473
1030066,472
1030067,466
1030069,481
1030070,481
1030071,483
1030072,480
1030073,469
1030074,458
1030075,459
1030076,453
1030077,460
1030079,482
1030080,488
1030081,478
1030082,464
1030083,448
1030084,446
1030085,465
1030086,481
1030087,489
1030089,484
1030090,474
1030091,453
1030092,443
1030093,447
1030094,451
1030095,460
1030096,463
1030098,486
1030099,487
1030100,498
1030102,519
1030103,528
1030104,508
1030105,492
1030106,478
1030107,470
1030108,481
1030109,476
1030110,472
1030111,457
1030112,440
1030113,431
1030114,452
1030115,488
1030117,531
1030118,453
1030119,429
1030120,451
1030121,456
1030122,440
1030123,441
1030124,439
1030125,449
1030127,481
1030128,480
1030129,477
1030130,500
1030131,499
1030132,486
1030133,504
1030134,514
1030135,520
1030137,550
1030138,530
1030139,545
1030140,563
1030141,560
1030142,554
1030144,542
1030145,545
1030147,576
1030148,620
1030149,638
1030149,631
1030150,639
1030151,655
1030152,667
1030153,674
1030154,691
1030156,754
1030157,794
1030158,834
1030159,870
1030160,895
1030161,912
1030162,937
1030163,969
1030165,990
1030166,989
1030167,989
1030168,990
1030169,988
1030170,989
1030171,989
1030172,989
1030173,972
1030175,835
1030176,766
1030177,675
1030178,583
1030179,487
1030180,424
1030181,388
1030182,361
1030183,329
1030185,299
1030187,297
1030188,312
1030189,324
1030190,316
1030191,317
1030192,316
1030192,305
1030194,303
1030195,332
1030196,351
1030197,370
1030198,384
1030199,389
1030200,391
1030201,394
1030202,406
1030204,431
1030205,436
1030206,426
1030207,416
1030208,412
1030209,418
1030210,434
1030211,444
1030212,433
1030214,387
1030215,418
1030216,451
1030217,461
1030218,423
1030219,410
1030220,415
1030221,409
1030223,417
1030224,420
1030225,430
1030226,445
1030227,462
1030228,472
1030230,461
1030231,445
1030232,433
1030234,438
1030235,450
1030235,454
1030236,455
1030237,457
1030238,461
1030239,471
1030240,482
1030242,480
1030243,477
1030244,465
1030245,454
1030246,431
1030247,417
1030248,436
1030249,458
1030250,478
1030252,488
1030253,485
1030254,467
1030255,449
1030256,464
1030257,475
1030258,467
1030259,469
1030260,479
1030262,463
1030263,457
1030264,463
1030265,469
1030266,480
1030267,495
1030268,488
1030269,477
1030272,464
1030273,467
1030274,470
1030275,486
1030276,495
1030277,495
1030277,498
1030278,480
1030279,469
1030281,481
1030282,474
1030283,471
1030284,466
1030285,471
1030286,476
1030287,492
1030288,493
1030290,491
1030291,480
1030292,474
1030293,466
1030294,464
1030295,470
1030296,489
1030297,505
1030298,506
1030300,502
1030301,499
1030302,516
1030303,535
1030304,541
1030305,525
1030306,526
1030307,542
1030308,541
1030310,518
1030311,511
1030312,525
1030313,507
1030315,476
1030316,453
1030317,457
1030318,465
1030319,491
1030320,529
1030321,529
1030322,523
1030323,499
1030324,485
1030325,490
1030326,504
1030327,515
1030329,524
1030330,527
1030331,529
1030332,532
1030333,531
1030334,536
1030335,551
1030336,545
1030337,543
1030339,543
1030340,548
1030341,541
1030342,535
1030343,527
1030344,528
1030345,518
1030346,517
1030348,568
1030349,563
1030350,571
1030351,573
1030352,548
1030353,520
1030354,523
1030355,518
1030356,511
1030359,503
1030360,503
1030361,515
1030362,540
1030363,565
1030363,571
1030364,570
1030365,571
1030367,550
1030368,550
1030369,559
1030370,557
1030371,562
1030372,560
1030373,563
1030374,566
1030375,560
1030377,541
1030378,543
1030379,558
1030380,571
1030381,583
1030382,567
1030383,542
1030384,521
1030385,521
1030387,548
1030388,520
1030389,535
1030390,559
1030391,550
1030392,532
1030393,516
1030394,531
1030396,581
1030397,572
1030398,557
1030400,559
1030401,550
1030402,533
1030403,519
1030404,508
1030405,507
1030406,507
1030407,518
1030408,508
1030409,505
1030410,509
1030411,510
1030412,489
1030413,485
1030415,491
1030416,505
1030417,482
1030418,499
1030419,507
1030420,490
1030421,471
1030422,465
1030423,461
1030425,466
1030426,479
1030427,492
1030428,480
1030429,474
1030430,475
1030431,474
1030432,458
1030433,464
1030435,407
1030436,415
1030437,413
1030438,405
1030439,409
1030440,423
1030441,429
1030443,420
1030444,408
1030446,401
1030447,398
1030448,413
1030448,424
1030449,422
1030450,417
1030451,416
1030452,417
1030454,423
1030455,461
1030456,488
1030457,488
1030458,489
1030459,457
1030460,362
1030461,321
1030462,366
1030464,424
1030465,399
1030466,371
1030467,375
1030468,384
1030469,385
1030470,389
1030471,392
1030473,380
1030474,385
1030475,409
1030476,429
1030477,429
1030478,422
1030479,424
1030480,421
1030481,420
1030483,399
1030484,394
1030486,394
1030487,394
1030488,410
1030489,408
1030490,412
1030491,417
1030492,421
1030493,407
1030494,408
1030495,419
1030496,442
1030497,458
1030498,450
1030499,448
1030500,433
1030502,405
1030503,396
1030504,398
1030505,401
1030506,402
1030507,405
1030508,413
1030509,426
1030510,422
1030512,436
1030513,438
1030514,438
1030515,436
1030516,434
1030517,443
1030518,432
1030519,425
1030521,466
1030522,475
1030523,471
1030524,459
1030525,446
1030526,427
1030528,448
1030529,464
1030530,467
1030532,449
1030533,452
1030534,450
1030534,456
1030535,466
1030536,468
1030537,464
1030538,467
1030540,455
1030541,457
1030542,455
1030543,449
1030544,460
1030545,476
1030546,473
1030547,471
1030548,460
1030550,447
1030551,458
1030552,471
1030553,473
1030554,466
1030555,463
1030556,468
1030557,472
1030558,480
1030560,489
1030561,479
1030562,459
1030563,448
1030564,426
1030565,417
1030566,449
1030567,468
1030568,444
1030571,407
1030572,412
1030573,406
1030574,393
1030575,400
1030576,426
1030576,480
1030577,507
1030579,472
1030580,453
1030581,431
1030582,432
1030583,447
1030584,460
1030585,464
1030586,481
1030587,453
1030589,422
1030590,437
1030591,472
1030592,477
1030593,494
1030594,509
1030595,514
1030596,530
1030598,514
1030599,516
1030600,507
1030601,463
1030602,441
1030603,426
1030604,396
1030605,409
1030606,448
1030608,465
1030609,454
1030610,449
1030611,459
1030612,481
1030614,508
1030615,533
1030616,540
1030617,536
1030619,496
1030619,487
1030620,491
1030621,495
1030622,497
1030623,492
1030624,482
1030625,484
1030627,504
1030628,494
1030629,497
1030630,502
1030631,499
1030632,478
1030633,443
1030634,435
1030635,461
1030637,476
1030638,491
1030639,496
1030640,505
1030641,504
1030642,477
1030643,473
1030644,476
1030645,501
1030647,508
1030648,468
1030649,459
1030650,459
1030651,462
1030652,468
1030653,480
1030654,488
1030657,509
1030658,509
1030659,475
1030660,445
1030661,446
1030662,469
1030662,463
1030663,445
1030665,456
1030666,480
1030667,510
1030668,502
1030669,498
1030670,476
1030671,474
1030672,482
1030673,502
1030675,523
1030676,529
1030677,545
1030678,533
1030679,483
1030680,462
1030681,451
1030682,438
1030683,492
1030685,472
1030686,483
1030687,482
1030688,481
1030689,472
1030690,462
1030691,451
1030692,445
1030693,455
1030695,489
1030696,495
1030697,501
1030699,498
1030700,499
1030701,494
1030702,482
1030703,474
1030704,476
1030705,475
1030706,492
1030707,491
1030708,495
1030709,503
1030710,515
1030711,505
1030712,459
1030714,456
1030715,474
1030716,498
1030717,496
1030718,535
1030719,536
1030720,496
1030721,481
1030723,494
1030724,502
1030725,496
1030726,526
1030727,513
1030728,490
1030729,473
1030730,478
1030731,476
1030733,460
1030734,467
1030735,468
1030736,472
1030737,474
1030738,483
1030739,488
1030740,464
1030742,477
1030744,492
1030745,500
1030746,474
1030747,468
1030747,490
1030748,508
1030749,509
1030750,505
1030752,506
1030753,505
1030754,504
1030755,509
1030756,515
1030757,514
1030758,502
1030759,490
1030760,474
1030762,460
1030763,481
1030764,483
1030765,475
1030766,492
1030767,494
1030768,504
1030769,509
1030771,497
1030772,475
1030773,463
1030774,467
1030775,472
1030776,475
1030777,478
1030778,471
1030779,478
1030781,501
1030782,499
1030784,499
1030785,485
1030786,472
1030787,478
1030788,489
1030789,508
1030790,521
1030791,528
1030792,517
1030793,506
1030794,491
1030795,481
1030796,472
1030797,476
1030798,487
1030800,499
1030801,489
1030802,471
1030803,484
1030804,487
1030805,477
1030806,484
1030807,484
1030808,481
1030810,499
1030811,486
1030812,471
1030813,470
1030814,475
1030815,474
1030816,495
1030817,505
1030818,494
1030820,486
1030821,484
1030822,481
1030823,491
1030824,495
1030825,499
1030827,507
1030828,503
1030830,484
1030831,485
1030832,470
1030832,457
1030833,444
1030834,447
1030835,471
1030836,495
1030837,497
1030839,484
1030840,484
1030841,490
1030842,475
1030843,464
1030844,483
1030845,496
1030846,512
1030848,497
1030849,494
1030850,499
1030851,492
1030852,493
1030853,501
1030854,487
1030855,494
1030856,524
1030858,549
1030859,531
1030860,517
1030861,488
1030862,466
1030863,489
1030864,512
1030865,507
1030866,508
1030868,538
1030870,503
1030871,498
1030872,515
1030873,518
1030874,500
1030875,473
1030875,483
1030877,502
1030878,513
1030879,527
1030880,510
1030881,481
1030882,457
1030883,461
1030884,483
1030885,505
1030887,515
1030888,526
1030889,531
1030890,531
1030891,527
1030892,521
1030893,524
1030894,520
1030896,524
1030897,514
1030898,516
1030899,517
1030900,517
1030901,507
1030902,516
1030903,529
1030904,513
1030906,498
1030907,498
1030908,510
1030909,513
1030910,523
1030912,517
1030913,499
1030914,489
1030915,494
1030917,514
1030917,510
1030918,489
1030919,492
1030920,477
1030921,444
1030922,432
1030923,454
1030925,484
1030926,496
1030927,503
1030928,492
1030929,480
1030930,481
1030931,474
1030932,477
1030933,495
1030935,459
1030936,433
1030937,450
1030938,470
1030939,473
1030940,432
1030941,423
1030942,445
1030943,470
1030945,503
1030946,497
1030947,489
1030948,491
1030949,485
1030950,461
1030951,457
1030952,447
1030955,457
1030956,483
1030957,482
1030958,476
1030959,468
1030960,480
1030960,496
1030961,490
1030962,486
1030964,491
1030965,481
1030966,466
1030967,471
1030968,481
1030969,486
1030970,476
1030971,475
1030973,484
1030974,498
1030975,503
1030976,501
1030977,488
1030978,480
1030979,480
1030980,471
1030981,458
1030983,491
1030984,498
1030985,487
1030986,495
1030987,511
1030988,515
1030989,505
1030990,490
1030991,496
1030993,528
1030994,530
1030995,538
1030996,544
1030998,568
1030999,594
1031000,623
1031001,645
1031003,654
1031003,678
1031004,647
1031005,681
1031006,741
1031007,782
1031008,806
1031009,822
1031010,811
1031012,820
1031013,843
1031014,869
1031015,901
1031016,945
1031017,990
1031018,990
1031019,989
1031021,989
1031022,989
1031023,989
1031024,990
1031025,971
1031026,934
1031027,880
1031028,816
1031029,750
1031031,530
1031032,449
1031033,370
1031034,338
1031035,341
1031036,348
1031037,332
1031038,315
1031040,312
1031042,288
1031043,289
1031044,300
1031045,310
1031046,324
1031046,325
1031047,331
1031048,329
1031050,369
1031051,385
1031052,392
1031053,397
1031054,410
1031055,425
1031056,437
1031057,453
1031058,455
1031060,419
1031061,404
1031062,414
1031063,422
1031064,414
1031065,389
1031066,390
1031067,385
1031068,408
1031070,430
1031071,431
1031072,444
1031073,450
1031074,442
1031075,442
1031076,440
1031077,442
1031079,464
1031080,450
1031081,435
1031083,424
1031084,432
1031085,439
1031086,455
1031087,460
1031088,461
1031089,443
1031090,442
1031091,434
1031092,429
1031093,431
1031094,448
1031095,460
1031096,476
1031098,519
1031099,492
1031100,476
1031101,456
1031102,449
1031103,460
1031104,463
1031105,484
1031106,484
1031108,475
1031109,483
1031110,492
1031111,497
1031112,503
1031113,508
1031114,491
1031115,491
1031116,469
1031118,463
1031119,470
1031120,478
1031121,476
1031122,485
1031123,486
1031124,484
1031126,484
1031127,474
1031129,456
1031130,460
1031131,474
1031131,504
1031132,501
1031133,462
1031134,441
1031135,455
1031137,503
1031138,512
1031139,500
1031140,494
1031141,488
1031142,476
1031143,464
1031144,454
1031146,439
1031147,436
1031148,471
1031149,501
1031150,520
1031151,537
1031152,539
1031153,531
1031154,487
1031156,478
1031157,481
1031158,505
1031159,503
1031160,490
1031161,484
1031162,489
1031163,531
1031164,550
1031166,524
1031168,519
1031169,539
1031170,547
1031171,529
1031172,520
1031173,520
1031174,522
1031175,545
1031176,538
1031177,520
1031178,510
1031179,505
1031180,491
1031181,472
1031182,491
1031183,516
1031185,564
1031186,566
1031187,565
1031188,566
1031189,561
1031190,563
1031191,563
1031192,553
1031193,543
1031195,538
1031196,562
1031197,577
1031198,572
1031199,584
1031200,609
1031201,639
1031202,604
1031204,529
1031205,543
1031206,544
1031207,539
1031208,540
1031209,542
1031211,527
1031212,522
1031213,541
1031215,555
1031216,558
1031216,552
1031217,546
1031218,544
1031219,545
1031220,541
1031221,548
1031223,561
1031224,567
1031225,573
1031226,566
1031227,559
1031228,556
1031229,565
1031230,567
1031231,561
1031233,571
1031234,576
1031235,566
1031236,558
1031237,543
1031238,517
1031239,520
1031240,540
1031241,556
1031243,549
1031244,574
1031245,580
1031246,566
1031247,571
1031248,506
1031249,470
1031250,488
1031251,533
1031254,548
1031255,532
1031256,527
1031257,508
1031258,492
1031259,487
1031259,490
1031260,486
1031262,497
1031263,499
1031264,517
1031265,539
1031266,532
1031267,522
1031268,513
1031269,489
1031271,470
1031272,482
1031273,485
1031274,481
1031275,481
1031276,491
1031277,490
1031278,472
1031279,460
1031281,468
1031282,486
1031283,503
1031284,502
1031285,485
1031286,466
1031287,473
1031288,454
1031289,453
1031291,427
1031292,425
1031293,420
1031294,413
1031296,413
1031297,412
1031298,416
1031299,406
1031300,400
1031302,401
1031302,402
1031303,412
1031304,416
1031305,425
1031306,437
1031307,446
1031308,448
1031310,425
1031311,406
1031312,398
1031313,378
1031314,399
1031315,424
1031316,428
1031317,419
1031318,409
1031320,432
1031321,419
1031322,409
1031323,397
1031324,410
1031325,428
1031326,426
1031327,421
1031329,428
1031330,421
1031331,448
1031332,462
1031333,444
1031334,422
1031335,409
1031336,406
1031337,396
1031340,382
1031341,377
1031342,370
1031343,364
1031344,392
1031344,409
1031345,420
1031346,440
1031348,430
1031349,432
1031350,423
1031351,423
1031352,433
1031353,433
1031354,435
1031355,441
1031356,440
1031358,408
1031359,411
1031360,424
1031361,445
1031362,437
1031363,425
1031364,444
1031365,456
1031366,453
1031368,433
1031369,415
1031370,425
1031371,443
1031372,460
1031373,466
1031374,470
1031375,469
1031376,454
1031378,447
1031379,449
1031380,444
1031382,441
1031383,437
1031384,436
1031385,456
1031386,470
1031387,495
1031388,494
1031389,469
1031390,433
1031391,415
1031392,428
1031393,450
1031394,468
1031396,503
1031397,497
1031398,486
1031399,469
1031400,435
1031401,432
1031402,445
1031403,461
1031404,486
1031406,479
1031407,482
1031408,485
1031409,472
1031410,460
1031411,466
1031412,465
1031413,468
1031414,475
1031416,470
1031417,481
1031418,485
1031419,482
1031420,467
1031421,471
1031422,474
1031424,461
1031425,452
1031427,463
1031428,493
1031429,514
1031430,502
1031430,473
1031431,456
1031432,473
1031433,465
1031435,488
1031436,505
1031437,508
1031438,517
1031439,498
1031440,456
1031441,478
1031442,456
1031443,420
1031445,472
1031446,496
1031447,504
1031448,487
1031449,464
1031450,431
1031451,427
1031452,445
1031454,480
1031455,485
1031456,479
1031457,477
1031458,462
1031459,436
1031460,422
1031461,431
1031462,443
1031464,459
1031465,459
1031467,462
1031468,470
1031469,467
1031470,467
1031471,467
1031472,476
1031472,480
1031474,506
1031475,517
1031476,491
1031477,479
1031478,472
1031479,470
1031480,466
1031481,458
1031483,496
1031484,498
1031485,472
1031486,475
1031487,474
1031488,468
1031489,470
1031490,472
1031491,472
1031493,521
1031494,543
1031495,545
1031496,524
1031497,504
1031498,474
1031499,448
1031500,456
1031501,470
1031503,491
1031504,498
1031505,489
1031506,494
1031507,496
1031508,499
1031510,486
1031511,469
1031513,464
1031514,453
1031515,456
1031515,465
1031516,476
1031517,484
1031518,488
1031519,496
1031521,492
1031522,483
1031523,477
1031524,479
1031525,474
1031526,477
1031527,478
1031528,459
1031529,451
1031531,468
1031532,476
1031533,480
1031534,510
1031535,523
1031536,524
1031537,532
1031538,512
1031539,508
1031541,524
1031542,507
1031543,470
1031544,469
1031545,458
1031546,472
1031547,476
1031548,469
1031549,475
1031552,480
1031553,463
1031554,462
1031555,477
1031556,483
1031557,481
1031558,471
1031558,470
1031560,469
1031561,479
1031562,492
1031563,497
1031564,502
1031565,485
1031566,473
1031567,458
1031568,463
1031570,495
1031571,493
1031572,516
1031573,526
1031574,509
1031575,494
1031576,494
1031577,488
1031579,494
1031580,485
1031581,485
1031582,492
1031583,498
1031584,504
1031585,490
1031586,480
1031587,463
1031589,484
1031590,476
1031591,480
1031592,484
1031593,481
1031595,498
1031596,502
1031597,501
1031598,498
1031600,486
1031600,473
1031601,472
1031602,480
1031603,475
1031604,471
1031605,482
1031606,502
1031608,502
1031609,513
1031610,509
1031611,491
1031612,493
1031613,513
1031614,523
1031615,519
1031616,512
1031618,490
1031619,461
1031620,459
1031621,486
1031622,495
1031623,508
1031624,517
1031625,466
1031626,442
1031628,481
1031629,503
1031630,517
1031631,509
1031632,489
1031633,491
1031634,484
1031635,491
1031638,482
1031639,463
1031640,471
1031641,490
1031642,504
1031643,526
1031643,504
1031644,493
1031646,512
1031647,484
1031648,473
1031649,488
1031650,483
1031651,494
1031652,516
1031653,520
1031654,518
1031656,505
1031657,507
1031658,498
1031659,477
1031660,462
1031661,469
1031662,464
1031663,472
1031664,503
1031666,521
1031667,508
1031668,496
1031669,486
1031670,483
1031671,487
1031672,490
1031673,515
1031674,522
1031676,492
1031677,493
1031678,492
1031680,502
1031681,516
1031682,507
1031683,492
1031684,493
1031686,523
1031686,532
1031687,532
1031688,526
1031689,527
1031690,530
1031691,511
1031692,511
1031693,524
1031695,539
1031696,582
1031697,605
1031698,603
1031699,560
1031700,518
1031701,513
1031702,522
1031704,502
1031705,510
1031706,527
1031707,520
1031708,525
1031709,542
1031710,539
1031711,529
1031712,496
1031714,471
1031715,500
1031716,517
1031717,511
1031718,501
1031719,496
1031720,488
1031721,478
1031723,476
1031725,497
1031726,486
1031727,450
1031728,431
1031728,428
1031729,442
1031730,450
1031731,473
1031733,486
1031734,489
1031735,476
1031736,470
1031737,468
1031738,458
1031739,445
1031740,446
1031741,450
1031743,467
1031744,466
1031745,465
1031746,475
1031747,488
1031748,502
1031749,507
1031750,495
1031751,500
1031753,476
1031754,470
1031755,456
1031756,455
1031757,473
1031758,504
1031759,505
1031760,484
1031762,454
1031763,452
1031764,473
1031766,489
1031767,490
1031768,488
1031769,493
1031770,495
1031771,479
1031772,477
1031773,490
1031774,503
1031775,482
1031776,452
1031777,460
1031778,466
1031779,468
1031781,464
1031782,469
1031783,488
1031784,491
1031785,481
1031786,473
1031787,476
1031788,488
1031789,499
1031791,494
1031792,504
1031793,504
1031794,486
1031795,502
1031796,525
1031797,535
1031798,540
1031799,544
1031801,574
1031802,600
1031803,636
1031804,641
1031805,624
1031806,626
1031808,654
1031809,674
1031811,717
1031812,756
1031813,759
1031814,761
1031814,784
1031815,824
1031816,874
1031817,912
1031818,930
1031820,953
1031821,975
1031822,986
1031823,990
1031824,989
1031825,990
1031826,989
1031827,960
1031829,862
1031830,797
1031831,723
1031832,628
1031833,539
1031834,476
1031835,419
1031836,378
1031837,354
1031839,303
1031840,294
1031841,289
1031842,289
1031843,308
1031844,316
1031845,326
1031846,326
1031847,322
1031849,329
1031851,312
1031852,322
1031853,347
1031854,342
1031855,359
1031856,379
1031856,402
1031858,417
1031859,397
1031860,411
1031861,428
1031862,439
1031863,456
1031864,444
1031865,442
1031866,458
1031868,396
1031869,390
1031870,427
1031871,435
1031872,428
1031873,421
1031874,425
1031875,430
1031876,444
1031878,410
1031879,382
1031880,394
1031881,419
1031882,446
1031883,461
1031884,442
1031885,443
1031887,455
1031888,455
1031889,450
1031890,439
1031891,441
1031892,450
1031894,457
1031895,454
1031896,453
1031898,463
1031899,456
1031899,440
1031900,429
1031901,431
1031902,439
1031903,443
1031904,450
1031906,476
1031907,478
1031908,474
1031909,474
1031910,486
1031911,490
1031912,489
1031913,466
1031914,450
1031916,465
1031917,465
1031918,455
1031919,453
1031920,465
1031921,480
1031922,480
1031923,483
1031924,473
1031926,477
1031927,481
1031928,503
1031929,493
1031930,477
1031931,471
1031932,471
1031933,480
1031936,504
1031937,498
1031938,484
1031939,484
1031940,493
1031941,496
1031942,495
1031942,496
1031943,507
1031945,491
1031946,482
1031947,483
1031948,503
1031949,509
1031950,512
1031951,527
1031952,517
1031954,454
1031955,454
1031956,464
1031957,489
1031958,488
1031959,511
1031960,510
1031961,489
1031962,487
1031964,517
1031965,530
1031966,532
1031967,516
1031968,500
1031969,503
1031970,499
1031971,488
1031972,494
1031974,542
1031975,521
1031976,499
1031977,510
1031979,500
1031980,503
1031981,515
1031982,522
1031983,521
1031984,530
1031985,526
1031986,528
1031987,526
1031988,507
1031989,493
1031990,489
1031991,495
1031993,533
1031994,552
1031995,556
1031996,545
1031997,548
1031998,533
1031999,506
1032000,504
1032001,515
1032003,523
1032004,535
1032005,538
1032006,544
1032007,546
1032008,531
1032009,527
1032010,536
1032012,540
1032013,543
1032014,547
1032015,547
1032016,546
1032017,553
1032018,544
1032019,532
1032020,531
1032023,541
1032024,544
1032025,548
1032026,552
1032027,562
1032027,580
1032028,584
1032029,567
1032031,530
1032032,526
1032033,532
1032034,553
1032035,585
1032036,581
1032037,546
1032038,524
1032039,527
1032041,537
1032042,549
1032043,557
1032044,555
1032045,532
1032046,508
1032047,488
1032048,503
1032049,533
1032051,545
1032052,540
1032053,554
1032054,563
1032055,533
1032056,517
1032057,497
1032058,491
1032060,478
1032061,500
1032062,515
1032064,519
1032065,500
1032066,482
1032067,471
1032068,462
1032069,468
1032070,469
1032071,468
1032072,476
1032073,482
1032074,467
1032075,458
1032076,448
1032077,459
1032079,472
1032080,466
1032081,447
1032082,440
1032083,458
1032084,468
1032085,448
1032086,432
1032087,416
1032089,407
1032090,414
1032091,425
1032092,440
1032093,445
1032094,438
1032095,434
1032096,422
1032097,407
1032099,392
1032100,390
1032101,391
1032102,402
1032103,403
1032104,390
1032105,374
1032107,382
1032108,376
1032110,375
1032111,385
1032112,396
1032112,403
1032113,405
1032114,398
1032115,366
1032116,348
1032118,367
1032119,370
1032120,370
1032121,359
1032122,359
1032123,358
1032124,373
1032125,418
1032126,442
1032128,414
1032129,386
1032130,365
1032131,363
1032132,364
1032133,364
1032134,371
1032135,385
1032137,384
1032138,361
1032139,347
1032140,363
1032141,384
1032142,393
1032143,393
1032144,392
1032145,386
1032147,371
1032148,379
1032150,390
1032151,387
1032152,373
1032153,371
1032154,380
1032155,384
1032156,423
1032157,431
1032158,439
1032159,432
1032160,414
1032161,419
1032162,445
1032163,423
1032164,408
1032166,397
1032167,404
1032168,401
1032169,393
1032170,395
1032171,404
1032172,410
1032173,406
1032174,403
1032176,399
1032177,403
1032178,406
1032179,382
1032180,365
1032181,389
1032182,429
1032183,437
1032185,443
1032186,432
1032187,416
1032188,416
1032189,415
1032190,429
1032192,433
1032193,423
1032194,422
1032196,442
1032197,455
1032197,448
1032198,435
1032199,430
1032200,434
1032201,441
1032202,442
1032204,443
1032205,458
1032206,450
1032207,445
1032208,426
1032209,418
1032210,424
1032211,429
1032212,440
1032214,460
1032215,447
1032216,429
1032217,412
1032218,413
1032219,419
1032220,425
1032221,426
1032222,443
1032224,471
1032225,465
1032226,441
1032227,425
1032228,411
1032229,417
1032230,424
1032231,426
1032232,429
1032235,436
1032236,423
1032237,435
1032238,449
1032239,433
1032240,438
1032240,453
1032241,459
1032243,462
1032244,457
1032245,470
1032246,473
1032247,451
1032248,420
1032249,424
1032250,450
1032251,459
1032253,454
1032254,451
1032255,459
1032256,468
1032257,473
1032258,470
1032259,456
1032260,451
1032262,491
1032263,484
1032264,481
1032265,470
1032266,445
1032267,444
1032268,466
1032269,464
1032270,448
1032272,404
1032273,443
1032274,462
1032275,450
1032276,445
1032278,441
1032279,429
1032280,427
1032281,432
1032283,470
1032283,477
1032284,475
1032285,462
1032286,439
1032287,414
1032288,399
1032289,412
1032291,438
1032292,428
1032293,453
1032294,471
1032295,458
1032296,455
1032297,451
1032298,446
1032299,446
1032301,455
1032302,481
1032303,471
1032304,452
1032305,434
1032306,422
1032307,422
1032308,403
1032310,411
1032311,460
1032312,490
1032313,484
1032314,478
1032315,456
1032316,449
1032317,448
1032318,455
1032321,477
1032322,489
1032323,485
1032324,468
1032325,461
1032326,455
1032326,453
1032327,447
1032329,448
1032330,444
1032331,444
1032332,463
1032333,471
1032334,474
1032335,470
1032336,462
1032337,453
1032339,436
1032340,437
1032341,448
1032342,464
1032343,455
1032344,466
1032345,482
1032346,491
1032347,472
1032349,454
1032350,462
1032351,477
1032352,461
1032353,450
1032354,447
1032355,417
1032356,412
1032357,435
1032359,483
1032360,484
1032361,458
1032363,436
1032364,432
1032365,444
1032366,445
1032367,450
1032368,442
1032369,456
1032370,468
1032371,474
1032372,478
1032373,474
1032374,470
1032375,473
1032376,483
1032378,486
1032379,488
1032380,493
1032381,469
1032382,454
1032383,444
1032384,442
1032385,433
1032387,459
1032388,451
1032389,445
1032390,446
1032391,466
1032392,492
1032393,497
1032394,492
1032395,472
1032397,445
1032398,462
1032399,476
1032400,473
1032401,458
1032402,457
1032403,455
1032404,469
1032406,453
1032408,430
1032409,422
1032410,431
1032411,434
1032411,448
1032412,456
1032413,462
1032414,443
1032416,497
1032417,518
1032418,498
1032419,483
1032420,479
1032421,494
1032422,493
1032423,489
1032424,497
1032426,506
1032427,486
1032428,451
1032429,450
1032430,440
1032431,461
1032432,465
1032433,456
1032435,450
1032436,454
1032437,466
1032438,462
1032439,472
1032440,471
1032441,466
1032442,470
1032443,475
1032445,477
1032446,463
1032448,456
1032449,471
1032450,473
1032451,464
1032452,451
1032453,432
1032454,419
1032455,413
1032456,429
1032457,471
1032458,490
1032459,491
1032460,493
1032461,483
1032462,483
1032464,493
1032465,496
1032466,493
1032467,483
1032468,465
1032469,449
1032470,449
1032471,471
1032472,493
1032474,471
1032475,466
1032476,468
1032477,462
1032478,465
1032479,465
1032480,460
1032481,464
1032482,474
1032484,507
1032485,513
1032486,486
1032487,452
1032488,455
1032489,498
1032491,523
1032492,529
1032494,439
1032495,420
1032496,432
1032496,441
1032497,427
1032498,427
1032499,442
1032500,437
1032501,441
1032503,445
1032504,452
1032505,463
1032506,459
1032507,459
1032508,461
1032509,476
1032510,492
1032512,481
1032513,470
1032514,470
1032515,471
1032516,476
1032517,475
1032518,483
1032519,498
1032520,509
1032522,482
1032523,466
1032524,459
1032525,457
1032526,458
1032527,443
1032528,441
1032529,451
1032530,462
1032532,465
1032534,464
1032535,477
1032536,482
1032537,478
1032538,474
1032539,467
1032539,476
1032541,513
1032542,532
1032543,507
1032544,494
1032545,485
1032546,483
1032547,497
1032548,512
1032549,547
1032551,549
1032552,539
1032553,514
1032554,489
1032555,495
1032556,493
1032557,474
1032558,434
1032560,475
1032561,503
1032562,517
1032563,523
1032564,507
1032565,483
1032566,487
1032567,499
1032568,514
1032570,515
1032571,503
1032572,500
1032573,506
1032574,507
1032576,508
1032577,517
1032578,508
1032579,484
1032581,495
1032582,501
1032582,494
1032583,494
1032584,501
1032585,515
1032586,502
1032587,481
1032589,472
1032590,479
1032591,487
1032592,482
1032593,479
1032594,483
1032595,474
1032596,468
1032597,464
1032599,444
1032600,456
1032601,479
1032602,507
1032603,514
1032604,491
1032605,454
1032606,450
1032607,447
1032609,443
1032610,451
1032611,457
1032612,429
1032613,391
1032614,380
1032615,404
1032616,419
1032619,454
1032620,453
1032621,448
1032622,466
1032623,457
1032624,453
1032624,463
1032625,473
1032626,472
1032628,462
1032629,458
1032630,473
1032631,491
1032632,503
1032633,499
1032634,480
1032635,466
1032637,457
1032638,459
1032639,460
1032640,463
1032641,465
1032642,449
1032643,470
1032644,473
1032645,470
1032647,459
1032648,470
1032649,482
1032650,479
1032651,482
1032652,483
1032653,468
1032654,470
1032655,487
1032657,518
1032658,500
1032659,464
1032660,438
1032662,468
1032663,482
1032664,477
1032665,492
1032667,471
1032667,469
1032668,469
1032669,470
1032670,484
1032671,486
1032672,496
1032673,522
1032674,549
1032676,569
1032677,564
1032678,583
1032679,606
1032680,635
1032681,672
1032682,688
1032683,704
1032685,724
1032686,739
1032687,756
1032688,778
1032689,831
1032690,875
1032691,909
1032692,931
1032693,953
1032695,990
1032696,989
1032697,990
1032698,990
1032699,989
1032700,989
1032701,989
1032702,972
1032704,905
1032706,763
1032707,657
1032708,563
1032709,507
1032709,463
1032710,420
1032711,373
1032712,332
1032714,274
1032715,256
1032716,250
1032717,236
1032718,235
1032719,237
1032720,249
1032721,286
1032722,317
1032724,358
1032725,364
1032726,363
1032727,364
1032728,376
1032729,387
1032730,410
1032731,413
1032732,415
1032734,395
1032735,391
1032736,381
1032737,378
1032738,395
1032739,412
1032740,423
1032741,425
1032743,412
1032744,417
1032745,430
1032747,454
1032748,452
1032749,425
1032750,425
1032751,432
1032752,438
1032753,408
1032754,421
1032755,418
1032756,399
1032757,393
1032758,411
1032759,429
1032760,425
1032762,447
1032763,459
1032764,450
1032765,449
1032766,446
1032767,419
1032768,413
1032769,446
1032770,468
1032772,422
1032773,416
1032774,420
1032775,433
1032776,447
1032777,456
1032778,463
1032779,471
1032780,493
1032782,491
1032783,451
1032784,445
1032785,476
1032786,477
1032787,451
1032788,428
1032790,421
1032791,434
1032793,484
1032794,491
1032795,479
1032795,469
1032796,435
1032797,427
1032798,443
1032799,470
1032801,487
1032802,486
1032803,490
1032804,489
1032805,500
1032806,491
1032807,477
1032808,475
1032810,472
1032811,476
1032812,486
1032813,492
1032814,495
1032815,490
1032816,478
1032817,455
1032818,448
1032820,490
1032821,487
1032822,475
1032823,473
1032824,479
1032825,474
1032826,473
1032827,479
1032828,476
1032830,516
1032832,531
1032833,541
1032834,535
1032835,529
1032836,504
1032837,489
1032837,479
1032839,453
1032840,467
1032841,502
1032842,535
1032843,550
1032844,547
1032845,542
1032846,501
1032847,457
1032849,494
1032850,498
1032851,482
1032852,459
1032853,485
1032854,519
1032855,541
1032856,535
1032857,530
1032859,528
1032860,510
1032861,510
1032862,519
1032863,511
1032864,523
1032865,547
1032866,552
1032868,544
1032869,531
1032870,531
1032871,539
1032872,551
1032873,560
1032875,563
1032876,566
1032877,563
1032879,513
1032880,520
1032880,515
1032881,505
1032882,521
1032883,539
1032884,547
1032885,551
1032887,551
1032888,553
1032889,534
1032890,517
1032891,525
1032892,535
1032893,546
1032894,552
1032895,559
1032897,564
1032898,564
1032899,548
1032900,556
1032901,532
1032902,527
1032903,541
1032904,539
1032905,532
1032907,559
1032908,553
1032909,531
1032910,521
1032911,523
1032912,548
1032913,558
1032914,542
1032915,529
1032918,528
1032919,540
1032920,539
1032921,542
1032922,534
1032923,537
1032923,531
1032924,525
1032926,524
1032927,530
1032928,535
1032929,529
1032930,533
1032931,508
1032932,500
1032933,505
1032935,507
1032936,512
1032937,515
1032938,524
1032939,519
1032940,523
1032941,521
1032942,520
1032943,509
1032945,463
1032946,457
1032947,484
1032948,509
1032949,527
1032950,522
1032951,468
1032952,462
1032953,466
1032955,470
1032956,476
1032957,481
1032958,462
1032960,459
1032961,476
1032962,460
1032963,443
1032964,431
1032966,424
1032966,398
1032967,404
1032968,416
1032969,442
1032970,451
1032971,432
1032972,432
1032974,437
1032975,441
1032976,423
1032977,410
1032978,414
1032979,416
1032980,414
1032981,412
1032982,417
1032984,432
1032985,424
1032986,404
1032987,404
1032988,414
1032989,422
1032990,439
1032991,443
1032993,410
1032994,395
1032995,395
1032996,393
1032997,384
1032998,367
1032999,384
1033000,410
1033001,386
1033004,400
1033005,397
1033006,381
1033007,369
1033008,362
1033008,378
1033009,386
1033010,396
1033012,411
1033013,410
1033014,410
1033015,420
1033016,409
1033017,394
1033018,385
1033019,389
1033020,406
1033022,454
1033023,444
1033024,413
1033025,398
1033026,397
1033027,401
1033028,425
1033029,439
1033030,448
1033032,435
1033033,424
1033034,428
1033035,425
1033036,414
1033037,410
1033038,412
1033039,437
1033040,478
1033042,468
1033043,456
1033044,443
1033046,420
1033047,409
1033048,419
1033049,437
1033050,446
1033051,442
1033052,443
1033053,457
1033054,449
1033055,440
1033056,410
1033057,412
1033058,419
1033060,415
1033061,425
1033062,436
1033063,450
1033064,466
1033065,465
1033066,457
1033067,453
1033068,450
1033070,475
1033071,511
1033072,507
1033073,465
1033074,455
1033075,472
1033076,450
1033077,437
1033078,432
1033080,445
1033081,453
1033082,471
1033083,475
1033084,457
1033085,457
1033086,463
1033088,456
1033089,452
1033091,458
1033092,460
1033093,467
1033094,480
1033094,476
1033095,453
1033096,445
1033097,463
1033099,470
1033100,465
1033101,464
1033102,452
1033103,479
1033104,509
1033105,503
1033106,485
1033107,478
1033109,458
1033110,462
1033111,461
1033112,465
1033113,479
1033114,491
1033115,493
1033116,462
1033118,465
1033119,464
1033120,443
1033121,424
1033122,412
1033123,428
1033124,457
1033125,471
1033126,490
1033128,489
1033129,489
1033131,486
1033132,474
1033133,474
1033134,475
1033135,461
1033136,460
1033136,470
1033138,483
1033139,489
1033140,492
1033141,483
1033142,475
1033143,466
1033144,462
1033145,465
1033147,496
1033148,502
1033149,502
1033150,498
1033151,501
1033152,489
1033153,472
1033154,463
1033155,468
1033157,531
1033158,560
1033159,577
1033160,578
1033161,555
1033162,545
1033163,434
1033164,343
1033165,354
1033167,467
1033168,487
1033169,483
1033170,484
1033171,479
1033172,472
1033174,463
1033175,455
1033177,451
1033178,442
1033179,451
1033179,451
1033180,475
1033181,485
1033182,489
1033183,496
1033185,498
1033186,496
1033187,486
1033188,480
1033189,478
1033190,480
1033191,483
1033192,486
1033193,483
1033195,479
1033196,483
1033197,485
1033198,496
1033199,498
1033200,502
1033201,497
1033202,479
1033203,462
1033205,502
1033206,499
1033207,501
1033208,506
1033209,512
1033210,504
1033211,493
1033212,484
1033213,482
1033216,484
1033217,472
1033218,476
1033219,485
1033220,487
1033221,483
1033222,483
1033222,480
1033224,461
1033225,467
1033226,476
1033227,489
1033228,500
1033229,501
1033230,503
1033231,520
1033232,494
1033234,470
1033235,469
1033236,473
1033237,494
1033238,505
1033239,509
1033240,503
1033241,501
1033243,471
1033244,453
1033245,447
1033246,445
1033247,462
1033248,479
1033249,487
1033250,502
1033251,504
1033253,496
1033254,489
1033255,501
1033256,501
1033257,497
1033259,493
1033260,500
1033261,503
1033262,502
1033264,506
1033264,504
1033265,507
1033266,517
1033267,512
1033268,482
1033269,456
1033270,469
1033272,491
1033273,490
1033274,493
1033275,492
1033276,488
1033277,482
1033278,482
1033279,508
1033280,515
1033282,493
1033283,495
1033284,500
1033285,496
1033286,479
1033287,469
1033288,474
1033289,497
1033290,497
1033292,479
1033293,469
1033294,463
1033295,457
1033296,472
1033297,511
1033298,522
1033299,506
1033302,492
1033303,496
1033304,491
1033305,485
1033306,474
1033307,472
1033307,483
1033308,496
1033310,507
1033311,496
1033312,485
1033313,480
1033314,482
1033315,478
1033316,473
1033317,475
1033318,478
1033320,510
1033321,529
1033322,543
1033323,508
1033324,469
1033325,465
1033326,496
1033327,509
1033328,502
1033330,483
1033331,483
1033332,492
1033333,499
1033334,499
1033335,487
1033336,474
1033337,467
1033338,466
1033340,467
1033341,464
1033342,469
1033344,476
1033345,490
1033346,496
1033347,496
1033348,502
1033350,492
1033350,475
1033351,478
1033352,500
1033353,492
1033354,509
1033355,517
1033356,528
1033357,555
1033359,503
1033360,478
1033361,498
1033362,501
1033363,498
1033364,497
1033365,503
1033366,509
1033367,521
1033369,516
1033370,509
1033371,515
1033372,484
1033373,488
1033374,504
1033375,482
1033376,477
1033378,467
1033379,478
1033380,487
1033381,493
1033382,482
1033383,475
1033384,482
1033385,497
1033387,502
1033389,515
1033390,513
1033391,529
1033392,540
1033392,537
1033393,483
1033394,471
1033395,487
1033397,505
1033398,501
1033399,502
1033400,482
1033401,479
1033402,481
1033403,487
1033404,481
1033405,480
1033407,484
1033408,485
1033409,486
1033410,484
1033411,506
1033412,511
1033413,508
1033414,510
1033415,502
1033417,486
1033418,481
1033419,510
1033420,517
1033421,504
1033422,492
1033423,488
1033424,489
1033426,504
1033427,509
1033428,503
1033430,505
1033431,502
1033432,513
1033433,518
1033434,516
1033435,525
1033436,498
1033437,531
1033438,532
1033439,527
1033440,508
1033441,494
1033442,497
1033443,478
1033445,483
1033446,475
1033447,479
1033448,514
1033449,524
1033450,511
1033451,488
1033452,490
1033453,511
1033455,480
1033456,492
1033457,498
1033458,501
1033459,500
1033460,487
1033461,474
1033462,467
1033463,474
1033465,498
1033466,509
1033467,510
1033468,513
1033469,515
1033470,520
1033472,521
1033473,510
1033474,505
1033476,512
1033477,520
1033478,506
1033478,495
1033479,511
1033480,500
1033481,491
1033482,507
1033484,467
1033485,473
1033486,504
1033487,513
1033488,534
1033489,532
1033490,509
1033491,495
1033493,462
1033494,495
1033495,516
1033496,529
1033497,529
1033498,528
1033499,543
1033500,537
1033501,523
1033503,513
1033504,521
1033505,533
1033506,538
1033507,530
1033508,528
1033509,528
1033510,525
1033511,521
1033513,529
1033515,531
1033516,538
1033517,552
1033518,547
1033519,545
1033520,552
1033520,553
1033522,538
1033523,499
1033524,476
1033525,510
1033526,561
1033527,580
1033528,569
1033529,528
1033530,513
1033532,511
1033533,512
1033534,518
1033535,536
1033536,543
1033537,539
1033538,531
1033539,534
1033540,534
1033542,503
1033543,493
1033544,489
1033545,482
1033546,496
1033547,495
1033548,495
1033549,480
1033551,457
1033552,468
1033553,467
1033554,462
1033555,458
1033556,461
1033558,475
1033559,486
1033560,499
1033562,480
1033563,469
1033563,490
1033564,506
1033565,495
1033566,465
1033567,461
1033568,479
1033570,496
1033571,502
1033572,507
1033573,486
1033574,473
1033575,463
1033576,451
1033577,457
1033578,467
1033580,475
1033581,473
1033582,464
1033583,469
1033584,486
1033585,500
1033586,519
1033587,533
1033588,524
1033590,501
1033591,486
1033592,467
1033593,449
1033594,473
1033595,480
1033596,478
1033597,477
1033600,500
1033601,500
1033602,510
1033603,481
1033604,473
1033605,474
1033605,480
1033606,485
1033607,471
1033609,478
1033610,486
1033611,496
1033612,501
1033613,492
1033614,486
1033615,492
1033616,506
1033618,539
1033619,529
1033620,505
1033621,493
1033622,508
1033623,525
1033624,533
1033625,536
1033626,543
1033628,569
1033629,582
1033630,605
1033631,628
1033632,645
1033633,671
1033634,683
1033635,687
1033636,705
1033638,761
1033639,783
1033640,789
1033641,789
1033643,810
1033644,841
1033645,880
1033646,921
1033647,956
1033648,990
1033649,989
1033650,989
1033651,989
1033652,989
1033653,989
1033654,989
1033655,990
1033657,921
1033658,862
1033659,763
1033660,672
1033661,589
1033662,496
1033663,440
1033664,395
1033665,364
1033667,332
1033668,314
1033669,310
1033670,318
1033671,309
1033672,294
1033673,294
1033674,300
1033676,326
1033677,343
1033678,364
1033679,373
1033680,382
1033681,408
1033682,425
1033683,431
1033684,425
1033687,377
1033688,416
1033689,444
1033690,454
1033691,444
1033691,422
1033692,412
1033693,418
1033695,427
1033696,438
1033697,448
1033698,452
1033699,441
1033700,421
1033701,407
1033702,408
1033703,434
1033705,442
1033706,447
1033707,427
1033708,414
1033709,412
1033710,418
1033711,430
1033712,438
1033713,441
1033715,436
1033716,439
1033717,445
1033718,456
1033719,451
1033720,440
1033721,434
1033722,449
1033724,456
1033725,454
1033726,458
1033728,465
1033729,479
1033730,480
1033731,479
1033732,478
1033733,475
1033734,479
1033735,483
1033736,492
1033737,502
1033738,513
1033739,511
1033740,503
1033741,494
1033743,497
1033744,492
1033745,496
1033746,482
1033747,460
1033748,476
1033749,470
1033750,460
1033751,468
1033753,460
1033754,459
1033755,462
1033756,472
1033757,468
1033758,480
1033759,484
1033760,480
1033761,467
1033763,464
1033764,486
1033765,488
1033766,497
1033767,505
1033768,514
1033769,524
1033771,509
1033772,505
1033774,448
1033775,445
1033776,468
1033777,490
1033777,502
1033778,518
1033779,526
1033780,528
1033782,500
1033783,505
1033784,510
1033785,516
1033786,512
1033787,519
1033788,540
1033789,559
1033790,571
1033792,512
1033793,499
1033794,483
1033795,466
1033796,496
1033797,533
1033798,563
1033799,557
1033800,540
1033802,539
1033803,525
1033804,512
1033805,512
1033806,511
1033807,521
1033808,525
1033809,502
1033810,500
1033812,555
1033814,549
1033815,525
1033816,514
1033817,486
1033818,508
1033819,545
1033819,553
1033821,539
1033822,537
1033823,545
1033824,528
1033825,511
1033826,526
1033827,556
1033828,583
1033829,595
1033831,550
1033832,558
1033833,545
1033834,540
1033835,549
1033836,564
1033837,572
1033838,585
1033840,515
1033841,527
1033842,545
1033843,552
1033844,546
1033845,553
1033846,557
1033847,563
1033848,575
1033850,564
1033851,564
1033852,562
1033853,562
1033854,552
1033856,550
1033857,553
1033858,552
1033859,567
1033861,574
1033862,578
1033862,576
1033863,564
1033864,559
1033865,572
1033866,582
1033867,577
1033869,526
1033870,529
1033871,546
1033872,548
1033873,544
1033874,545
1033875,558
1033876,560
1033877,568
1033879,546
1033880,552
1033881,549
1033882,512
1033883,494
1033884,510
1033885,519
1033886,531
1033887,540
1033889,563
1033890,522
1033891,480
1033892,471
1033893,497
1033894,505
1033895,513
1033896,506
1033899,511
1033900,518
1033901,512
1033902,500
1033903,495
1033904,497
1033904,501
1033905,499
1033906,508
1033908,475
1033909,452
1033910,453
1033911,459
1033912,454
1033913,448
1033914,441
1033915,465
1033917,507
1033918,502
1033919,477
1033920,468
1033921,455
1033922,457
1033923,448
1033924,445
1033925,450
1033927,455
1033928,428
1033929,406
1033930,419
1033931,428
1033932,429
1033933,424
1033934,399
1033935,386
1033937,416
1033938,406
1033939,380
1033940,384
1033942,380
1033943,386
1033944,421
1033945,421
1033947,415
1033947,420
1033948,433
1033949,425
1033950,417
1033951,407
1033952,395
1033953,384
1033954,400
1033956,420
1033957,437
1033958,455
1033959,455
1033960,438
1033961,409
1033962,397
1033963,430
1033965,427
1033966,455
1033967,468
1033968,476
1033969,486
1033970,472
1033971,472
1033972,456
1033973,395
1033975,362
1033976,385
1033977,404
1033978,410
1033979,403
1033980,407
1033981,424
1033982,429
1033984,433
1033986,447
1033987,448
1033988,435
1033989,418
1033990,421
1033990,441
1033991,467
1033992,473
1033994,428
1033995,437
1033996,443
1033997,454
1033998,471
1033999,460
1034000,425
1034001,405
1034002,402
1034004,438
1034005,465
1034006,474
1034007,467
1034008,472
1034009,476
1034010,459
1034011,462
1034012,462
1034014,444
1034015,426
1034016,418
1034017,443
1034018,466
1034019,456
1034020,445
1034021,443
1034023,442
1034024,442
1034025,453
1034027,440
1034028,427
1034029,435
1034030,459
1034031,466
1034032,489
1034033,482
1034034,449
1034035,444
1034036,467
1034037,479
1034038,466
1034039,454
1034040,457
1034042,464
1034043,459
1034044,466
1034045,478
1034046,485
1034047,479
1034048,465
1034049,479
1034050,496
1034052,489
1034053,477
1034054,476
1034055,469
1034056,459
1034057,456
1034058,457
1034059,459
1034060,472
1034062,491
1034063,496
1034064,494
1034065,466
1034066,457
1034067,474
1034068,486
1034070,492
1034071,493
1034073,490
1034074,467
1034075,472
1034075,491
1034076,509
1034077,518
1034078,510
1034079,448
1034081,453
1034082,453
1034083,448
1034084,449
1034085,454
1034086,470
1034087,488
1034088,482
1034090,488
1034091,505
1034092,514
1034093,505
1034094,490
1034095,456
1034096,449
1034097,477
1034098,473
1034100,464
1034101,479
1034102,483
1034103,474
1034104,468
1034105,474
1034106,471
1034107,484
1034108,470
1034110,486
1034112,492
1034113,489
1034114,495
1034115,490
1034116,475
1034117,472
1034117,482
1034119,475
1034120,475
1034121,474
1034122,467
1034123,467
1034124,491
1034125,506
1034126,511
1034127,508
1034129,478
1034130,492
1034131,483
1034132,462
1034133,458
1034134,463
1034135,473
1034136,466
1034137,475
1034139,488
1034140,470
1034141,475
1034142,480
1034143,488
1034144,485
1034145,486
1034146,482
1034148,463
1034149,454
1034150,453
1034151,466
1034152,481
1034153,492
1034155,495
1034156,498
1034157,504
1034159,505
1034160,513
1034160,507
1034161,501
1034162,492
1034163,487
1034164,486
1034165,491
1034167,495
1034168,468
1034169,447
1034170,448
1034171,458
1034172,462
1034173,430
1034174,440
1034175,473
1034177,482
1034178,505
1034179,517
1034180,526
1034181,508
1034182,498
1034183,508
1034184,515
1034185,517
1034187,516
1034188,499
1034189,512
1034190,503
1034191,493
1034192,480
1034193,454
1034194,459
1034195,462
1034198,479
1034199,482
1034200,475
1034201,460
1034202,464
1034203,479
1034203,494
1034204,495
1034206,479
1034207,484
1034208,503
1034209,523
1034210,509
1034211,492
1034212,471
1034213,462
1034215,485
1034216,491
1034217,502
1034218,497
1034219,497
1034220,489
1034221,467
1034222,463
1034223,474
1034225,528
1034226,534
1034227,521
1034228,506
1034229,487
1034230,485
1034231,495
1034232,502
1034233,508
1034235,473
1034236,467
1034237,484
1034238,494
1034240,491
1034241,493
1034242,506
1034243,504
1034244,497
1034245,537
1034246,515
1034247,526
1034248,514
1034249,480
1034250,485
1034251,497
1034252,495
1034254,488
1034255,493
1034256,498
1034257,513
1034258,503
1034259,494
1034260,498
1034261,500
1034262,483
1034264,463
1034265,456
1034266,453
1034267,459
1034268,447
1034269,452
1034270,452
1034271,474
1034273,500
1034274,493
1034275,501
1034276,512
1034277,531
1034278,538
1034279,531
1034280,507
1034281,487
1034284,485
1034285,484
1034286,485
1034287,487
1034288,490
1034288,515
1034289,519
1034290,511
1034292,552
1034293,561
1034294,533
1034295,525
1034296,485
1034297,453
1034298,437
1034299,434
1034300,465
1034302,481
1034303,443
1034304,430
1034305,447
1034306,490
1034307,504
1034308,480
1034309,465
1034310,476
1034312,501
1034313,506
1034314,511
1034315,512
1034316,500
1034317,497
1034318,484
1034319,475
1034320,492
1034322,492
1034323,485
1034324,475
1034326,479
1034327,493
1034328,512
1034329,519
1034330,512
1034331,456
1034332,456
1034333,462
1034334,498
1034335,512
1034336,518
1034337,531
1034338,525
1034340,478
1034341,492
1034342,487
1034343,487
1034344,496
1034345,504
1034346,496
1034347,486
1034348,498
1034350,507
1034351,492
1034352,473
1034353,485
1034354,517
1034355,520
1034356,518
1034357,524
1034358,497
1034360,482
1034361,488
1034362,487
1034363,470
1034364,487
1034365,503
1034366,506
1034368,506
1034369,473
1034371,489
1034372,495
1034373,490
1034373,487
1034374,489
1034375,483
1034376,478
1034377,498
1034379,500
1034380,485
1034381,465
1034382,450
1034383,455
1034384,473
1034385,499
1034386,520
1034387,527
1034389,505
1034390,504
1034391,508
1034392,501
1034393,481
1034394,461
1034395,465
1034396,507
1034398,524
1034399,516
1034400,496
1034401,453
1034402,448
1034403,476
1034404,475
1034405,478
1034406,498
1034408,510
1034409,493
1034411,476
1034412,478
1034413,495
1034414,503
1034415,501
1034416,489
1034416,483
1034418,501
1034419,517
1034420,502
1034421,485
1034422,478
1034423,483
1034424,501
1034425,509
1034427,499
1034428,476
1034429,491
1034430,509
1034431,544
1034432,537
1034433,523
1034434,537
1034435,534
1034437,484
1034438,446
1034439,482
1034440,527
1034441,529
1034442,518
1034443,504
1034444,498
1034445,485
1034447,483
1034448,475
1034449,478
1034450,487
1034451,493
1034452,505
1034454,497
1034455,493
1034457,497
1034458,511
1034459,510
1034459,511
1034460,511
1034461,523
1034462,530
1034463,516
1034465,534
1034466,509
1034467,497
1034468,507
1034469,516
1034470,518
1034471,517
1034472,513
1034473,517
1034475,502
1034476,504
1034477,484
1034478,471
1034479,484
1034480,497
1034481,524
1034482,572
1034483,550
1034485,537
1034486,530
1034487,542
1034488,551
1034489,544
1034490,522
1034491,511
1034492,509
1034493,514
1034496,522
1034497,550
1034498,565
1034499,559
1034500,556
1034501,541
1034502,518
1034502,485
1034504,488
1034505,495
1034506,498
1034507,523
1034508,520
1034509,500
1034510,489
1034511,502
1034512,507
1034514,467
1034515,478
1034516,509
1034517,496
1034518,474
1034519,472
1034520,477
1034521,478
1034523,472
1034524,472
1034525,477
1034526,491
1034527,493
1034528,490
1034529,484
1034530,496
1034531,502
1034533,490
1034534,471
1034535,470
1034536,481
1034537,466
1034539,473
1034540,477
1034541,487
1034542,488
1034544,490
1034544,493
1034545,491
1034546,490
1034547,464
1034548,444
1034549,443
1034550,483
1034552,473
1034553,459
1034554,448
1034555,445
1034556,465
1034557,480
1034558,498
1034559,509
1034560,512
1034562,493
1034563,490
1034564,476
1034565,476
1034566,495
1034567,487
1034568,479
1034569,483
1034570,501
1034572,518
1034573,487
1034574,469
1034575,464
1034576,477
1034577,467
1034578,465
1034579,473
1034582,504
1034583,506
1034584,498
1034585,481
1034586,462
1034587,469
1034587,492
1034588,510
1034590,514
1034591,527
1034592,533
1034593,551
1034594,564
1034595,564
1034596,578
1034597,577
1034598,595
1034600,646
1034601,651
1034602,667
1034603,709
1034604,744
1034605,742
1034606,746
1034607,753
1034608,788
1034610,841
1034611,876
1034612,894
1034613,902
1034614,946
1034615,983
1034616,990
1034617,990
1034618,989
1034620,989
1034621,989
1034622,990
1034624,986
1034625,955
1034626,909
1034627,855
1034628,753
1034630,566
1034630,495
1034631,424
1034632,374
1034633,352
1034634,322
1034635,320
1034636,316
1034637,289
1034639,286
1034640,283
1034641,281
1034642,296
1034643,334
1034644,377
1034645,379
1034646,377
1034648,387
1034649,397
1034650,399
1034651,383
1034652,387
1034653,382
1034654,391
1034655,407
1034656,433
1034658,432
1034659,413
1034660,410
1034661,411
1034662,422
1034663,448
1034664,462
1034665,465
1034667,457
1034669,412
1034670,415
1034671,425
1034672,422
1034672,410
1034673,400
1034674,411
1034675,428
1034677,423
1034678,424
1034679,436
1034680,432
1034681,421
1034682,437
1034683,460
1034684,469
1034685,468
1034687,457
1034688,446
1034689,451
1034690,467
1034691,486
1034692,485
1034693,473
1034694,462
1034695,473
1034697,478
1034698,464
1034699,457
1034700,452
1034701,452
1034702,436
1034703,431
1034704,463
1034706,510
1034707,504
1034708,493
1034710,496
1034711,525
1034712,502
1034713,454
1034714,440
1034715,446
1034716,499
1034717,503
1034718,486
1034719,479
1034720,482
1034721,479
1034722,446
1034723,453
1034725,474
1034726,507
1034727,533
1034728,515
1034729,509
1034730,489
1034731,474
1034732,480
1034733,492
1034735,508
1034736,511
1034737,497
1034738,482
1034739,472
1034740,480
1034741,503
1034742,524
1034743,540
1034745,521
1034746,521
1034747,502
1034748,486
1034749,475
1034750,494
1034752,523
1034753,531
1034755,465
1034756,477
1034757,496
1034758,496
1034758,504
1034759,513
1034760,522
1034761,526
1034762,531
1034764,549
1034765,527
1034766,512
1034767,521
1034768,535
1034769,545
1034770,526
1034771,529
1034773,516
1034774,507
1034775,499
1034776,515
1034777,525
1034778,533
1034779,531
1034780,529
1034781,518
1034783,500
1034784,515
1034785,531
1034786,533
1034787,546
1034788,567
1034789,566
1034790,544
1034791,538
1034793,515
1034795,529
1034796,540
1034797,559
1034798,534
1034799,524
1034800,560
1034800,571
1034802,523
1034803,525
1034804,548
1034805,579
1034806,602
1034807,601
1034808,575
1034809,561
1034810,553
1034812,539
1034813,549
1034814,565
1034815,509
1034816,487
1034817,509
1034818,551
1034819,569
1034820,561
1034822,578
1034823,587
1034824,563
1034825,552
1034826,555
1034827,539
1034828,542
1034829,576
1034831,621
1034832,622
1034833,587
1034834,540
1034835,531
1034836,568
1034838,562
1034839,541
1034840,537
1034842,495
1034843,505
1034843,526
1034844,544
1034845,551
1034846,543
1034847,538
1034848,553
1034850,466
1034851,441
1034852,491
1034853,551
1034854,590
1034855,616
1034856,587
1034857,552
1034858,490
1034860,459
1034861,499
1034862,514
1034863,512
1034864,527
1034865,554
1034866,545
1034867,547
1034868,544
1034870,513
1034871,514
1034872,489
1034873,484
1034874,442
1034875,462
1034876,481
1034877,450
1034880,431
1034881,464
1034882,495
1034883,522
1034884,532
1034885,505
1034886,481
1034886,402
1034887,411
1034889,459
1034890,446
1034891,432
1034892,428
1034893,437
1034894,439
1034895,483
1034896,475
1034898,453
1034899,447
1034900,443
1034901,433
1034902,412
1034903,410
1034904,423
1034905,441
1034906,451
1034908,420
1034909,396
1034910,405
1034911,407
1034912,408
1034913,411
1034914,410
1034915,399
1034916,398
1034918,372
1034919,378
1034920,404
1034921,448
1034923,453
1034924,446
1034925,443
1034926,434
1034927,419
1034928,417
1034929,422
1034930,417
1034931,407
1034932,418
1034933,394
1034934,376
1034935,399
1034937,438
1034938,441
1034939,440
1034940,440
1034941,447
1034942,426
1034943,408
1034944,409
1034945,380
1034947,386
1034948,391
1034949,377
1034950,393
1034951,402
1034952,424
1034953,440
1034954,448
1034956,438
1034957,427
1034958,438
1034959,449
1034960,453
1034961,455
1034962,439
1034963,431
1034964,391
1034967,413
1034968,439
1034969,444
1034970,429
1034971,418
1034971,395
1034972,389
1034973,430
1034975,478
1034976,489
1034977,475
1034978,450
1034979,423
1034980,415
1034981,426
1034982,443
1034983,464
1034985,444
1034986,423
1034987,428
1034988,436
1034989,425
1034990,432
1034991,443
1034992,443
1034993,448
1034995,499
1034996,500
1034997,495
1034998,476
1034999,470
1035000,454
1035001,453
1035002,468
1035004,490
1035005,471
1035006,429
1035008,450
1035009,468
1035010,490
1035011,506
1035012,486
1035013,465
1035014,458
1035015,482
1035016,496
1035017,477
1035018,507
1035019,508
1035020,472
1035021,454
1035023,410
1035024,419
1035025,446
1035026,461
1035027,483
1035028,501
1035029,512
1035030,517
1035031,522
1035033,499
1035034,490
1035035,498
1035036,470
1035037,439
1035038,410
1035039,420
1035040,448
1035041,463
1035043,479
1035044,499
1035045,488
1035046,462
1035047,452
1035048,461
1035049,470
1035051,474
1035052,468
1035054,465
1035055,477
1035056,471
1035056,482
1035057,500
1035058,502
1035059,485
1035060,478
1035062,465
1035063,456
1035064,447
1035065,452
1035066,468
1035067,471
1035068,471
1035069,467
1035070,480
1035072,496
1035073,491
1035074,478
1035075,459
1035076,454
1035077,464
1035078,479
1035079,499
1035081,487
1035082,474
1035083,481
1035084,493
1035085,498
1035086,491
1035087,475
1035088,465
1035089,457
1035091,486
1035092,486
1035094,468
1035095,461
1035096,478
1035097,480
1035098,475
1035099,479
1035100,467
1035101,475
1035102,483
1035103,497
1035104,487
1035105,475
1035106,474
1035107,482
1035108,498
1035110,488
1035111,467
1035112,475
1035113,480
1035114,480
1035115,480
1035116,469
1035117,465
1035118,471
1035120,486
1035121,486
1035122,479
1035123,499
1035124,520
1035125,518
1035126,509
1035127,479
1035129,454
1035130,435
1035131,455
1035132,473
1035133,464
1035134,486
1035136,503
1035137,498
1035138,483
1035140,468
1035141,463
1035141,483
1035142,482
1035143,466
1035144,458
1035145,464
1035146,482
1035148,457
1035149,484
1035150,491
1035151,464
1035152,464
1035153,470
1035154,478
1035155,475
1035156,452
1035158,462
1035159,474
1035160,491
1035161,488
1035162,481
1035163,500
1035164,501
1035165,504
1035166,499
1035168,476
1035169,486
1035170,493
1035171,497
1035172,500
1035173,490
1035174,491
1035175,503
1035176,517
1035179,538
1035180,517
1035181,464
1035182,431
1035183,464
1035184,473
1035184,462
1035185,456
1035187,476
1035188,482
1035189,485
1035190,481
1035191,479
1035192,475
1035193,476
1035194,482
1035195,486
1035197,482
1035198,485
1035199,492
1035200,491
1035201,481
1035202,470
1035203,461
1035204,477
1035206,500
1035207,498
1035208,484
1035209,473
1035210,486
1035211,497
1035212,505
1035213,478
1035214,452
1035216,487
1035217,509
1035218,529
1035219,506
1035220,471
1035222,469
1035223,460
1035224,463
1035225,490
1035227,494
1035227,524
1035228,524
1035229,484
1035230,469
1035231,490
1035232,494
1035233,470
1035235,482
1035236,505
1035237,496
1035238,483
1035239,479
1035240,479
1035241,478
1035242,483
1035243,447
1035245,467
1035246,487
1035247,507
1035248,498
1035249,477
1035250,448
1035251,443
1035252,448
1035254,498
1035255,524
1035256,517
1035257,488
1035258,478
1035259,487
1035260,494
1035261,497
1035262,496
1035265,505
1035266,514
1035267,515
1035268,506
1035269,485
1035269,458
1035270,447
1035271,464
1035273,509
1035274,524
1035275,522
1035276,500
1035277,480
1035278,476
1035279,490
1035280,498
1035281,488
1035283,496
1035284,475
1035285,479
1035286,489
1035287,476
1035288,465
1035289,470
1035290,468
1035291,460
1035293,484
1035294,505
1035295,534
1035296,538
1035297,504
1035298,461
1035299,415
1035300,420
1035301,455
1035303,515
1035304,515
1035305,512
1035307,512
1035308,517
1035309,511
1035310,519
1035311,510
1035312,496
1035313,486
1035314,488
1035315,494
1035316,501
1035317,497
1035318,500
1035319,487
1035320,478
1035322,461
1035323,473
1035324,477
1035325,492
1035326,497
1035327,490
1035328,475
1035329,472
1035331,493
1035332,508
1035333,494
1035334,478
1035335,469
1035336,468
1035337,480
1035338,500
1035339,522
1035341,546
1035342,531
1035343,513
1035344,503
1035345,493
1035346,501
1035347,510
1035348,518
1035350,507
1035352,497
1035353,503
1035354,498
1035355,498
1035355,497
1035356,499
1035357,503
1035358,496
1035360,495
1035361,502
1035362,500
1035363,497
1035364,507
1035365,509
1035366,497
1035367,487
1035368,492
1035370,487
1035371,495
1035372,503
1035373,501
1035374,521
1035375,545
1035376,543
1035377,531
1035379,553
1035380,549
1035381,546
1035382,543
1035383,539
1035384,540
1035385,533
1035386,532
1035387,534
1035389,531
1035390,510
1035392,521
1035393,528
1035394,528
1035395,532
1035396,516
1035397,520
1035398,522
1035399,508
1035400,500
1035401,464
1035402,479
1035403,544
1035404,578
1035405,546
1035406,453
1035408,435
1035409,450
1035410,460
1035411,463
1035412,458
1035413,461
1035414,493
1035415,502
1035416,518
1035418,491
1035419,482
1035420,478
1035421,466
1035422,464
1035423,463
1035424,449
1035425,438
1035426,445
1035428,460
1035429,458
1035430,457
1035431,462
1035432,458
1035433,452
1035435,460
1035436,469
1035438,498
1035439,505
1035440,495
1035440,496
1035441,479
1035442,491
1035443,495
1035444,500
1035445,487
1035447,462
1035448,468
1035449,480
1035450,479
1035451,486
1035452,501
1035453,502
1035454,511
1035455,510
1035457,493
1035458,463
1035459,451
1035460,459
1035461,480
1035462,496
1035463,482
1035464,465
1035466,458
1035467,472
1035468,474
1035469,460
1035470,456
1035471,455
1035472,469
1035473,494
1035474,511
1035476,495
1035478,481
1035479,467
1035480,464
1035481,499
1035482,526
1035483,549
1035483,544
1035485,506
1035486,515
1035487,555
1035488,588
1035489,615
1035490,615
1035491,612
1035492,639
1035493,661
1035495,716
1035496,734
1035497,717
1035498,674
1035499,688
1035500,733
1035501,770
1035502,802
1035503,851
1035505,888
1035506,899
1035507,921
1035508,974
1035509,989
1035510,989
1035511,990
1035512,990
1035513,988
1035515,990
1035516,945
1035517,866
1035518,794
1035520,713
1035521,624
1035522,555
1035523,503
1035525,377
1035526,352
1035526,343
1035527,336
1035528,327
1035529,323
1035530,313
1035531,309
1035532,301
1035534,300
1035535,332
1035536,377
1035537,371
1035538,338
1035539,331
1035540,342
1035541,383
1035543,391
1035544,386
1035545,391
1035546,407
1035547,419
1035548,423
1035549,429
1035550,419
1035551,415
1035553,414
1035554,419
1035555,422
1035556,437
1035557,435
1035558,427
1035559,415
1035560,398
1035561,418
1035564,378
1035565,389
1035566,431
1035567,446
1035568,431
1035569,425
1035569,437
1035570,451
1035572,451
1035573,481
1035574,491
1035575,448
1035576,416
1035577,423
1035578,449
1035579,473
1035580,481
1035582,409
1035583,438
1035584,472
1035585,478
1035586,467
1035587,475
1035588,475
1035589,457
1035590,459
1035592,454
1035593,458
1035594,480
1035595,478
1035596,471
1035597,473
1035598,476
1035599,475
1035601,499
1035602,495
1035603,465
1035604,466
1035606,467
1035607,463
1035608,458
1035609,476
1035610,483
1035611,507
1035612,495
1035613,492
1035614,502
1035615,494
1035616,479
1035617,478
1035618,493
1035620,485
1035621,486
1035622,492
1035623,494
1035624,503
1035625,519
1035626,525
1035627,522
1035628,511
1035630,494
1035631,481
1035632,488
1035633,513
1035634,521
1035635,503
1035636,473
1035637,450
1035638,459
1035640,484
1035641,501
1035642,507
1035643,513
1035644,518
1035645,513
1035646,509
1035648,505
1035649,515
1035651,525
1035652,529
1035653,530
1035654,537
1035654,533
1035655,511
1035656,501
1035657,507
1035659,507
1035660,509
1035661,512
1035662,513
1035663,518
1035664,533
1035665,541
1035666,532
1035667,499
1035669,488
1035670,502
1035671,523
1035672,559
1035673,556
1035674,564
1035675,575
1035676,579
1035678,561
1035679,543
1035680,529
1035681,524
1035682,526
1035683,506
1035684,506
1035685,515
1035686,544
1035688,513
1035689,522
1035691,546
1035692,560
1035693,566
1035694,554
1035695,541
1035696,530
1035696,523
1035698,530
1035699,540
1035700,542
1035701,566
1035702,569
1035703,578
1035704,577
1035705,572
1035707,545
1035708,536
1035709,530
1035710,530
1035711,532
1035712,552
1035713,557
1035714,568
1035715,556
1035717,539
1035718,538
1035719,541
1035720,563
1035721,569
1035722,570
1035723,574
1035724,582
1035725,586
1035727,557
1035728,539
1035729,521
1035730,526
1035731,541
1035732,550
1035734,558
1035735,578
1035737,580
1035738,596
1035739,610
1035739,586
1035740,558
1035741,527
1035742,482
1035743,507
1035745,558
1035746,552
1035747,548
1035748,521
1035749,499
1035750,511
1035751,520
1035752,523
1035753,523
1035755,546
1035756,545
1035757,538
1035758,530
1035759,484
1035760,474
1035761,489
1035762,492
1035763,482
1035765,456
1035766,443
1035767,445
1035768,464
1035769,466
1035770,460
1035771,449
1035772,452
1035773,463
1035776,477
1035777,463
1035778,446
1035779,448
1035780,443
1035781,430
1035781,415
1035782,418
1035784,476
1035785,466
1035786,451
1035787,432
1035788,420
1035789,410
1035790,404
1035791,408
1035792,423
1035794,441
1035795,458
1035796,444
1035797,403
1035798,359
1035799,386
1035800,411
1035801,426
1035803,416
1035804,412
1035805,402
1035806,387
1035807,372
1035808,336
1035809,345
1035810,384
1035811,412
1035813,431
1035814,435
1035815,426
1035816,413
1035817,399
1035819,395
1035820,391
1035821,395
1035822,398
1035824,409
1035824,412
1035825,420
1035826,428
1035827,411
1035828,374
1035829,364
1035830,377
1035832,405
1035833,424
1035834,430
1035835,429
1035836,403
1035837,389
1035838,410
1035839,407
1035840,393
1035842,398
1035843,415
1035844,432
1035845,433
1035846,433
1035847,441
1035848,458
1035849,435
1035850,421
1035852,456
1035853,474
1035854,463
1035855,452
1035856,440
1035857,420
1035858,393
1035859,395
1035862,408
1035863,422
1035864,435
1035865,439
1035866,428
1035867,410
1035867,409
1035868,427
1035870,447
1035871,444
1035872,444
1035873,453
1035874,456
1035875,447
1035876,430
1035877,442
1035878,440
1035880,430
1035881,431
1035882,439
1035883,453
1035884,443
1035885,424
1035886,426
1035887,447
1035888,450
1035890,442
1035891,439
1035892,459
1035893,478
1035894,481
1035895,494
1035896,508
1035897,493
1035898,458
1035900,396
1035901,416
1035902,436
1035904,461
1035905,474
1035906,479
1035907,485
1035908,478
1035910,437
1035910,434
1035911,448
1035912,471
1035913,487
1035914,489
1035915,494
1035916,496
1035917,491
1035919,473
1035920,468
1035921,440
1035922,439
1035923,473
1035924,479
1035925,472
1035926,475
1035928,458
1035929,463
1035930,471
1035931,469
1035932,469
1035933,485
1035934,479
1035935,471
1035936,474
1035938,477
1035939,482
1035940,502
1035941,503
1035942,483
1035943,447
1035944,448
1035945,477
1035947,479
1035949,446
1035950,434
1035951,446
1035952,439
1035952,445
1035953,456
1035954,490
1035955,480
1035957,480
1035958,456
1035959,480
1035960,517
1035961,528
1035962,508
1035963,508
1035964,501
1035965,472
1035967,464
1035968,470
1035969,476
1035970,469
1035971,461
1035972,463
1035973,480
1035974,492
1035975,506
1035977,461
1035978,436
1035979,441
1035980,448
1035981,470
1035982,475
1035983,472
1035984,467
1035986,494
1035987,500
1035988,494
1035990,477
1035991,463
1035992,465
1035993,471
1035994,473
1035995,476
1035996,476
1035997,462
1035998,466
1035999,477
1036000,466
1036001,479
1036002,492
1036003,498
1036005,497
1036006,490
1036007,462
1036008,471
1036009,488
1036010,488
1036011,495
1036012,494
1036013,497
1036015,455
1036016,454
1036017,474
1036018,504
1036019,500
1036020,490
1036021,491
1036022,468
1036023,455
1036025,486
1036026,485
1036027,477
1036028,475
1036029,468
1036030,478
1036032,498
1036033,519
1036035,503
1036036,499
1036037,520
1036038,520
1036038,488
1036039,455
1036040,442
1036041,453
1036042,466
1036044,483
1036045,487
1036046,493
1036047,498
1036048,507
1036049,481
1036050,475
1036051,486
1036053,483
1036054,459
1036055,429
1036056,444
1036057,486
1036058,503
1036059,500
1036060,501
1036061,508
1036063,456
1036064,449
1036065,457
1036066,472
1036067,491
1036068,484
1036069,485
1036070,498
1036071,509
1036073,556
1036075,543
1036076,508
1036077,492
1036078,472
1036079,462
1036080,475
1036080,475
1036082,478
1036083,480
1036084,483
1036085,473
1036086,479
1036087,497
1036088,499
1036089,456
1036090,464
1036092,446
1036093,447
1036094,493
1036095,524
1036096,515
1036097,480
1036098,485
1036099,468
1036100,458
1036102,516
1036103,527
1036104,526
1036105,515
1036106,512
1036107,514
1036108,503
1036109,485
1036111,462
1036112,474
1036113,502
1036114,505
1036115,478
1036116,460
1036118,472
1036119,471
1036120,471
1036122,491
1036123,497
1036123,501
1036124,504
1036125,505
1036126,494
1036127,487
1036128,482
1036129,486
1036131,519
1036132,534
1036133,530
1036134,533
1036135,500
1036136,455
1036137,473
1036138,480
1036140,464
1036141,465
1036142,484
1036143,502
1036144,506
1036145,495
1036146,481
1036147,477
1036148,458
1036150,469
1036151,478
1036152,483
1036153,485
1036154,477
1036155,469
1036156,471
1036157,474
1036158,463
1036161,479
1036162,488
1036163,476
1036164,486
1036165,502
1036166,510
1036166,538
1036167,538
1036169,474
1036170,473
1036171,500
1036172,526
1036173,549
1036174,541
1036175,523
1036176,479
1036177,462
1036179,490
1036180,487
1036181,470
1036182,464
1036183,460
1036184,482
1036185,501
1036186,508
1036187,514
1036189,451
1036190,442
1036191,458
1036192,489
1036193,526
1036194,543
1036195,516
1036196,478
1036198,484
1036199,496
1036200,513
1036201,509
1036203,476
1036204,456
1036205,462
1036206,489
1036207,493
1036209,486
1036209,485
1036210,479
1036211,473
1036212,481
1036213,495
1036214,499
1036215,473
1036217,476
1036218,492
1036219,483
1036220,481
1036221,492
1036222,512
1036223,527
1036224,531
1036225,528
1036227,491
1036228,474
1036229,471
1036230,477
1036231,489
1036232,494
1036233,494
1036234,493
1036235,478
1036237,488
1036238,494
1036239,510
1036240,502
1036241,513
1036242,544
1036243,527
1036244,515
1036246,513
1036248,497
1036249,495
1036250,487
1036251,483
1036251,488
1036252,508
1036253,513
1036254,500
1036256,520
1036257,518
1036258,507
1036259,495
1036260,509
1036261,532
1036262,553
1036263,551
1036264,560
1036266,607
1036267,558
1036268,538
1036269,543
1036270,534
1036271,523
1036272,540
1036273,543
1036275,533
1036276,527
1036277,543
1036278,545
1036279,534
1036280,516
1036281,499
1036282,499
1036283,504
1036285,507
1036286,495
1036288,483
1036289,468
1036290,450
1036291,465
1036292,473
1036293,475
1036294,488
1036295,518
1036296,486
1036297,464
1036298,422
1036299,437
1036300,459
1036301,457
1036302,479
1036304,495
1036305,488
1036306,476
1036307,457
1036308,439
1036309,447
1036310,474
1036311,494
1036312,505
1036314,483
1036315,480
1036316,474
1036317,459
1036318,467
1036319,498
1036320,475
1036321,459
1036322,463
1036324,495
1036325,488
1036326,472
1036327,471
1036328,476
1036329,482
1036331,472
1036332,475
1036334,482
1036335,475
1036336,486
1036336,503
1036337,511
1036338,486
1036339,483
1036340,484
1036341,486
1036343,495
1036344,490
1036345,471
1036346,470
1036347,475
1036348,474
1036349,473
1036350,479
1036352,486
1036353,471
1036354,453
1036355,453
1036356,482
1036357,516
1036358,538
1036359,507
1036360,433
1036362,481
1036363,519
1036364,541
1036365,535
1036366,486
1036367,476
1036368,478
1036369,482
1036370,483
1036372,580
1036374,586
1036375,563
1036376,559
1036377,563
1036378,581
1036379,610
1036379,630
1036381,616
1036382,659
1036383,710
1036384,739
1036385,758
1036386,769
1036387,745
1036388,728
1036389,754
1036391,865
1036392,927
1036393,953
1036394,973
1036395,990
1036396,990
1036397,990
1036398,989
1036400,989
1036401,989
1036402,990
1036403,987
1036404,947
1036405,884
1036406,805
1036407,722
1036408,632
1036410,482
1036411,434
1036412,393
1036413,352
1036414,332
1036416,313
1036417,300
1036418,288
1036419,280
1036421,281
1036422,298
1036422,322
1036423,344
1036424,335
1036425,338
1036426,334
1036427,324
1036429,408
1036430,413
1036431,416
1036432,421
1036433,401
1036434,400
1036435,401
1036436,407
1036437,405
1036439,421
1036440,445
1036441,459
1036442,462
1036443,458
1036444,445
1036445,423
1036446,408
1036447,400
1036449,398
1036450,401
1036451,420
1036452,461
1036453,471
1036454,463
1036455,454
1036456,428
1036459,379
1036460,400
1036461,420
1036462,450
1036463,459
1036464,461
1036464,461
1036465,457
1036466,451
1036468,440
1036469,436
1036470,434
1036471,439
1036472,440
1036473,418
1036474,418
1036475,428
1036477,458
1036478,464
1036479,478
1036480,490
1036481,487
1036482,482
1036483,474
1036484,469
1036485,483
1036487,472
1036488,453
1036489,454
1036490,460
1036491,462
1036492,486
1036493,500
1036494,486
1036495,456
1036497,455
1036498,447
1036499,440
1036500,446
1036502,487
1036503,510
1036504,504
1036505,495
1036507,478
1036507,475
1036508,463
1036509,471
1036510,470
1036511,481
1036512,512
1036513,509
1036514,496
1036516,479
1036517,497
1036518,511
1036519,516
1036520,529
1036521,530
1036522,474
1036523,446
1036525,511
1036526,531
1036527,552
1036528,548
1036529,512
1036530,494
1036531,488
1036532,461
1036533,467
1036535,469
1036536,489
1036537,492
1036538,506
1036539,519
1036540,518
1036541,513
1036542,506
1036544,504
1036546,514
1036547,519
1036548,527
1036549,524
1036550,518
1036550,529
1036551,520
1036552,520
1036554,537
1036555,540
1036556,552
1036557,544
1036558,534
1036559,537
1036560,540
1036561,531
1036562,519
1036564,510
1036565,526
1036566,543
1036567,554
1036568,541
1036569,553
1036570,567
1036571,562
1036572,567
1036574,576
1036575,570
1036576,580
1036577,566
1036578,532
1036579,538
1036580,547
1036581,552
1036583,559
1036584,562
1036585,573
1036587,575
1036588,567
1036589,559
1036590,552
1036591,543
1036592,552
1036593,551
1036594,549
1036595,553
1036596,569
1036597,570
1036598,558
1036599,549
1036600,531
1036602,567
1036603,586
1036604,585
1036605,559
1036606,526
1036607,504
1036608,522
1036609,538
1036610,550
1036612,558
1036613,552
1036614,579
1036615,583
1036616,571
1036617,565
1036618,570
1036619,557
1036620,578
1036622,546
1036623,517
1036624,529
1036625,515
1036626,508
1036627,512
1036628,526
1036630,536
1036631,535
1036633,530
1036634,531
1036635,528
1036635,537
1036636,519
1036637,507
1036638,489
1036639,496
1036641,539
1036642,539
1036643,540
1036644,524
1036645,498
1036646,497
1036647,500
1036648,508
1036650,528
1036651,527
1036652,511
1036653,513
1036654,503
1036655,471
1036656,461
1036657,466
1036658,453
1036660,450
1036661,422
1036662,416
1036663,461
1036664,496
1036665,497
1036666,463
1036667,437
1036668,430
1036670,376
1036672,403
1036673,432
1036674,401
1036675,376
1036676,383
1036677,415
1036678,437
1036679,451
1036680,432
1036681,427
1036682,412
1036683,384
1036684,379
1036685,411
1036686,433
1036687,428
1036689,371
1036690,361
1036691,384
1036692,414
1036693,429
1036694,441
1036695,464
1036696,444
1036697,389
1036699,333
1036700,328
1036701,345
1036702,378
1036703,401
1036704,409
1036705,403
1036706,407
1036708,404
1036709,406
1036710,388
1036711,370
1036712,395
1036713,423
1036715,429
1036716,407
1036717,385
1036719,363
1036720,376
1036720,405
1036721,418
1036722,422
1036723,431
1036724,433
1036725,398
1036727,409
1036728,408
1036729,421
1036730,447
1036731,457
1036732,452
1036733,433
1036734,411
1036735,406
1036737,391
1036738,392
1036739,415
1036740,418
1036741,419
1036742,448
1036743,480
1036744,489
1036745,461
1036747,390
1036748,371
1036749,385
1036750,413
1036751,439
1036752,430
1036753,409
1036754,400
1036755,410
1036758,441
1036759,417
1036760,434
1036761,457
1036762,470
1036763,484
1036763,473
1036764,445
1036766,446
1036767,438
1036768,419
1036769,427
1036770,442
1036771,459
1036772,458
1036773,458
1036775,455
1036776,451
1036777,425
1036778,423
1036779,433
1036780,446
1036781,453
1036782,460
1036783,478
1036785,480
1036786,492
1036787,459
1036788,418
1036789,428
1036790,447
1036791,466
1036792,467
1036793,477
1036795,457
1036796,449
1036797,461
1036798,480
1036800,493
1036801,479
1036802,470
1036803,438
1036804,441
1036806,471
1036806,462
1036807,440
1036808,428
1036809,452
1036810,478
1036811,497
1036812,497
1036814,501
1036815,485
1036816,460
1036817,446
1036818,470
1036819,485
1036820,492
1036821,498
1036822,467
1036824,440
1036825,470
1036826,490
1036827,480
1036828,476
1036829,470
1036830,468
1036831,486
1036833,494
1036834,486
1036835,443
1036836,413
1036837,433
1036838,471
1036839,485
1036840,465
1036841,463
1036844,464
1036845,482
1036846,495
1036847,495
1036848,495
1036848,501
1036849,497
1036850,478
1036852,464
1036853,493
1036854,502
1036855,479
1036856,469
1036857,468
1036858,467
1036859,454
1036860,442
1036862,481
1036863,490
1036864,492
1036865,483
1036866,467
1036867,459
1036868,457
1036869,468
1036870,478
1036872,508
1036873,503
1036874,500
1036875,495
1036876,495
1036877,494
1036878,490
1036879,429
1036880,452
1036882,478
1036883,476
1036884,477
1036886,489
1036887,469
1036888,458
1036889,456
1036890,453
1036891,474
1036892,469
1036893,461
1036894,465
1036895,479
1036896,473
1036897,472
1036898,467
1036900,477
1036901,495
1036902,517
1036903,518
1036904,508
1036905,496
1036906,490
1036907,485
1036908,484
1036910,492
1036911,508
1036912,510
1036913,504
1036914,485
1036915,460
1036916,440
1036917,443
1036918,464
1036920,472
1036921,486
1036922,494
1036923,495
1036924,492
1036925,495
1036926,492
1036928,477
1036929,466
1036931,478
1036932,484
1036933,480
1036933,491
1036934,515
1036935,508
1036936,476
1036937,465
1036939,465
1036940,480
1036941,495
1036942,513
1036943,512
1036944,511
1036945,500
1036946,483
1036947,468
1036949,504
1036950,518
1036951,517
1036952,494
1036953,471
1036954,451
1036955,428
1036956,412
1036958,459
1036959,488
1036960,503
1036961,517
1036962,533
1036963,523
1036964,493
1036965,476
1036966,459
1036968,455
1036969,473
1036971,484
1036972,500
1036973,493
1036974,492
1036975,493
1036976,468
1036976,462
1036978,448
1036979,457
1036980,466
1036981,478
1036982,497
1036983,518
1036984,523
1036985,516
1036987,467
1036988,476
1036989,486
1036990,483
1036991,517
1036992,535
1036993,502
1036994,469
1036995,461
1036997,450
1036998,467
1036999,480
1037000,494
1037001,507
1037002,507
1037003,531
1037004,547
1037005,517
1037007,465
1037008,441
1037009,435
1037010,461
1037011,497
1037012,510
1037014,513
1037015,486
1037017,493
1037018,485
1037019,489
1037019,489
1037020,472
1037021,490
1037022,491
1037023,489
1037025,501
1037026,487
1037027,473
1037028,457
1037029,460
1037030,482
1037031,513
1037032,501
1037033,465
1037035,478
1037036,501
1037037,526
1037038,539
1037039,544
1037040,530
1037041,477
1037042,442
1037043,448
1037045,482
1037046,490
1037047,488
1037048,491
1037049,476
1037050,466
1037051,482
