93154,522
93155,502
93156,502
93157,517
93158,526
93159,524
93160,533
93161,534
93162,536
93163,559
93164,576
93165,574
93166,548
93167,552
93168,551
93169,536
93170,551
93171,553
93172,569
93173,569
93174,552
93175,558
93176,562
93177,547
93178,517
93179,522
93180,557
93181,593
93182,616
93184,615
93185,613
93186,581
93187,557
93188,557
93189,544
93190,543
93190,568
93191,579
93192,574
93193,533
93194,567
93195,577
93196,578
93197,554
93198,538
93199,528
93200,536
93201,551
93202,575
93203,581
93204,591
93205,569
93206,535
93207,525
93208,544
93209,582
93210,613
93211,596
93212,597
93213,600
93214,607
93215,584
93216,572
93217,576
93218,568
93219,550
93220,551
93221,574
93222,561
93223,556
93224,536
93225,531
93227,537
93228,540
93229,538
93230,552
93231,573
93232,573
93233,564
93233,545
93234,535
93235,516
93236,510
93237,500
93238,505
93239,514
93240,534
93241,556
93242,557
93243,549
93244,518
93245,502
93246,496
93247,512
93248,526
93249,507
93250,514
93251,525
93252,502
93253,470
93254,471
93255,449
93256,417
93257,424
93258,461
93259,475
93260,500
93261,515
93262,492
93263,457
93264,456
93265,418
93266,418
93267,406
93268,401
93270,430
93271,469
93272,460
93273,459
93274,461
93275,475
93275,476
93276,474
93277,466
93278,467
93279,446
93280,438
93281,427
93282,413
93283,425
93284,420
93285,420
93286,411
93287,404
93288,401
93289,408
93290,407
93291,427
93292,439
93293,434
93294,412
93295,410
93296,412
93297,409
93298,418
93299,423
93300,416
93301,402
93302,411
93303,418
93304,420
93305,429
93306,442
93307,446
93308,456
93309,460
93310,456
93312,441
93313,434
93314,417
93315,407
93316,417
93317,398
93318,393
93318,387
93319,392
93320,408
93321,446
93322,453
93323,435
93324,432
93325,424
93326,408
93327,417
93328,423
93329,441
93330,438
93331,435
93332,454
93333,452
93334,458
93335,484
93336,471
93337,478
93338,485
93339,497
93340,465
93341,435
93342,452
93343,458
93344,452
93345,448
93346,458
93347,472
93348,463
93349,445
93350,450
93351,440
93352,435
93353,449
93355,458
93356,462
93357,456
93358,460
93359,452
93360,466
93361,470
93361,469
93362,451
93363,457
93364,450
93365,461
93366,474
93367,493
93368,481
93369,457
93370,468
93371,472
93372,476
93373,466
93374,462
93375,462
93376,462
93377,416
93378,423
93379,460
93380,476
93381,491
93382,499
93383,491
93384,497
93385,483
93386,488
93387,486
93388,496
93389,497
93390,502
93391,493
93392,480
93393,461
93394,448
93395,468
93396,464
93398,457
93399,455
93400,452
93401,495
93402,524
93403,512
93403,507
93404,513
93405,512
93406,465
93407,451
93408,475
93409,485
93410,526
93411,505
93412,496
93413,507
93414,508
93415,502
93416,485
93417,457
93418,484
93419,511
93420,509
93421,511
93422,523
93423,533
93424,522
93425,507
93426,491
93427,493
93428,473
93429,480
93430,485
93431,486
93432,469
93433,479
93434,483
93435,462
93436,457
93437,477
93438,455
93440,451
93441,479
93442,493
93443,541
93444,510
93445,506
93446,505
93446,481
93447,477
93448,473
93449,490
93450,491
93451,501
93452,505
93453,508
93454,503
93455,485
93456,483
93457,494
93458,490
93459,487
93460,524
93461,519
93462,497
93463,484
93464,505
93465,487
93466,469
93467,488
93468,502
93469,512
93470,515
93471,487
93472,472
93473,499
93474,481
93475,466
93476,482
93477,507
93478,509
93479,514
93480,523
93481,511
93483,520
93484,515
93485,484
93486,473
93487,468
93488,473
93489,465
93489,488
93490,505
93491,498
93492,488
93493,471
93494,465
93495,479
93496,466
93497,492
93498,508
93499,502
93500,495
93501,484
93502,490
93503,488
93504,491
93505,498
93506,485
93507,476
93508,479
93509,478
93510,480
93511,496
93512,514
93513,509
93514,503
93515,493
93516,503
93517,515
93518,512
93519,508
93520,499
93521,487
93522,488
93523,489
93524,484
93526,483
93527,484
93528,483
93529,484
93530,507
93531,503
93531,507
93532,495
93533,480
93534,482
93535,495
93536,504
93537,525
93538,522
93539,538
93540,524
93541,522
93542,522
93543,510
93544,508
93545,521
93546,518
93547,520
93548,517
93549,519
93550,505
93551,503
93552,502
93553,510
93554,506
93555,508
93556,508
93557,488
93558,484
93559,492
93560,504
93561,510
93562,507
93563,499
93564,500
93565,508
93566,494
93568,488
93569,476
93570,494
93571,504
93572,508
93573,518
93574,525
93574,519
93575,507
93576,507
93577,506
93578,518
93579,515
93580,511
93581,513
93582,529
93583,535
93584,510
93585,482
93586,474
93587,497
93588,517
93589,524
93590,531
93591,516
93592,500
93593,507
93594,513
93595,522
93596,528
93597,529
93598,533
93599,537
93600,539
93601,536
93602,531
93603,515
93604,509
93605,511
93606,501
93607,513
93608,516
93609,536
93611,544
93612,543
93613,533
93614,527
93615,533
93616,533
93617,516
93617,491
93618,501
93619,510
93620,507
93621,500
93622,501
93623,495
93624,489
93625,492
93626,500
93627,501
93628,509
93629,534
93630,523
93631,505
93632,487
93633,476
93634,474
93635,463
93636,462
93637,464
93638,478
93639,492
93640,506
93641,520
93642,512
93643,499
93644,492
93645,484
93646,478
93647,488
93648,493
93649,502
93650,507
93651,505
93652,486
93654,476
93655,465
93656,493
93657,494
93658,476
93659,480
93659,480
93660,469
93661,476
93662,484
93663,491
93664,501
93665,500
93666,479
93667,468
93668,492
93669,507
93670,514
93671,502
93672,489
93673,483
93674,463
93675,460
93676,472
93677,481
93678,491
93679,489
93680,489
93681,484
93682,472
93683,476
93684,499
93685,509
93686,496
93687,516
93688,536
93689,531
93690,505
93691,507
93692,498
93693,502
93694,516
93696,525
93697,528
93698,523
93699,524
93700,530
93701,537
93702,549
93702,558
93703,553
93704,547
93705,554
93706,565
93707,586
93708,602
93709,615
93710,622
93711,621
93712,634
93713,651
93714,672
93715,669
93716,669
93717,668
93718,683
93719,711
93720,743
93721,765
93722,780
93723,789
93724,795
93725,813
93726,822
93727,838
93728,864
93729,889
93730,887
93731,880
93732,840
93733,803
93734,771
93735,732
93736,677
93737,607
93739,551
93740,505
93741,462
93742,434
93743,414
93744,384
93745,361
93745,357
93746,364
93747,366
93748,360
93749,348
93750,345
93751,345
93752,346
93753,374
93754,391
93755,402
93756,420
93757,422
93758,431
93759,442
93760,469
93761,465
93762,465
93763,469
93764,458
93765,451
93766,452
93767,448
93768,457
93769,462
93770,457
93771,450
93772,439
93773,446
93774,457
93775,466
93776,490
93777,507
93778,497
93779,494
93780,472
93782,462
93783,470
93784,469
93785,464
93786,454
93787,472
93787,477
93788,461
93789,466
93790,459
93791,460
93792,466
93793,479
93794,481
93795,484
93796,496
93797,508
93798,502
93799,507
93800,511
93801,502
93802,496
93803,484
93804,464
93805,459
93806,470
93807,458
93808,470
93809,483
93810,479
93811,493
93812,505
93813,510
93814,500
93815,509
93816,520
93817,516
93818,503
93819,499
93820,493
93821,479
93822,487
93824,506
93825,509
93826,499
93827,469
93828,459
93829,473
93830,490
93830,513
93831,517
93832,511
93833,522
93834,525
93835,516
93836,493
93837,487
93838,490
93839,499
93840,512
93841,526
93842,536
93843,545
93844,535
93845,527
93846,518
93847,513
93848,525
93849,536
93850,534
93851,517
93852,516
93853,509
93854,498
93855,496
93856,500
93857,500
93858,511
93859,526
93860,514
93861,510
93862,519
93863,529
93864,529
93865,536
93867,536
93868,532
93869,543
93870,533
93871,524
93872,518
93873,526
93873,530
93874,511
93875,504
93876,500
93877,508
93878,548
93879,561
93880,551
93881,538
93882,521
93883,522
93884,527
93885,529
93886,531
93887,545
93888,543
93889,539
93890,531
93891,530
93892,538
93893,544
93894,549
93895,531
93896,529
93897,548
93898,560
93899,560
93900,551
93901,546
93902,534
93903,522
93904,512
93905,522
93906,533
93907,536
93908,546
93910,552
93911,555
93912,553
93913,556
93914,561
93915,562
93915,569
93916,574
93917,586
93918,595
93919,590
93920,583
93921,569
93922,559
93923,558
93924,568
93925,560
93926,567
93927,568
93928,581
93929,567
93930,560
93931,548
93932,539
93933,546
93934,552
93935,558
93936,564
93937,567
93938,571
93939,554
93940,548
93941,567
93942,579
93943,568
93944,569
93945,567
93946,566
93947,568
93948,583
93949,584
93950,580
93952,552
93953,544
93954,540
93955,523
93956,530
93957,536
93958,547
93958,560
93959,553
93960,566
93961,567
93962,556
93963,554
93964,551
93965,538
93966,530
93967,529
93968,531
93969,523
93970,532
93971,538
93972,513
93973,506
93974,511
93975,498
93976,477
93977,481
93978,478
93979,476
93980,484
93981,498
93982,510
93983,504
93984,498
93985,501
93986,490
93987,489
93988,489
93989,479
93990,474
93991,487
93992,510
93993,511
93995,504
93996,489
93997,478
93998,477
93999,476
94000,465
94001,449
94001,439
94002,419
94003,419
94004,425
94005,445
94006,452
94007,466
94008,466
94009,448
94010,439
94011,426
94012,417
94013,428
94014,432
94015,434
94016,422
94017,403
94018,386
94019,393
94020,403
94021,419
94022,425
94023,427
94024,426
94025,425
94026,421
94027,409
94028,423
94029,425
94030,428
94031,433
94032,428
94033,419
94034,419
94035,414
94036,422
94038,428
94039,434
94040,433
94041,432
94042,439
94043,434
94043,437
94044,423
94045,421
94046,417
94047,423
94048,426
94049,405
94050,409
94051,400
94052,388
94053,399
94054,408
94055,424
94056,438
94057,445
94058,451
94059,445
94060,430
94061,428
94062,444
94063,448
94064,442
94065,446
94066,453
94067,456
94068,460
94069,462
94070,475
94071,483
94072,474
94073,446
94074,423
94075,412
94076,424
94077,441
94078,455
94080,465
94081,468
94082,461
94083,460
94084,458
94085,451
94086,462
94086,473
94087,472
94088,473
94089,459
94090,447
94091,440
94092,438
94093,437
94094,435
94095,443
94096,463
94097,475
94098,470
94099,461
94100,466
94101,474
94102,471
94103,461
94104,458
94105,472
94106,472
94107,475
94108,477
94109,474
94110,475
94111,468
94112,454
94113,441
94114,430
94115,430
94116,458
94117,481
94118,493
94119,487
94120,496
94121,495
94123,480
94124,469
94125,461
94126,471
94127,481
94128,484
94129,487
94129,495
94130,497
94131,496
94132,488
94133,468
94134,459
94135,459
94136,477
94137,490
94138,491
94139,488
94140,486
94141,481
94142,481
94143,473
94144,454
94145,446
94146,460
94147,484
94148,501
94149,498
94150,513
94151,517
94152,519
94153,513
94154,512
94155,508
94156,509
94157,500
94158,496
94159,500
94160,508
94161,506
94162,489
94163,461
94164,464
94166,477
94167,484
94168,500
94169,503
94170,487
94171,464
94171,451
94172,440
94173,439
94174,454
94175,477
94176,499
94177,509
94178,519
94179,508
94180,498
94181,494
94182,475
94183,469
94184,470
94185,465
94186,456
94187,456
94188,472
94189,475
94190,488
94191,504
94192,511
94193,504
94194,493
94195,486
94196,486
94197,484
94198,487
94199,490
94200,479
94201,479
94202,489
94203,483
94204,479
94205,484
94206,481
94208,490
94209,505
94210,497
94211,486
94212,471
94213,473
94214,489
94214,493
94215,494
94216,486
94217,467
94218,455
94219,463
94220,483
94221,491
94222,501
94223,509
94224,504
94225,493
94226,485
94227,487
94228,488
94229,475
94230,471
94231,488
94232,488
94233,485
94234,473
94235,467
94236,467
94237,478
94238,483
94239,478
94240,471
94241,476
94242,480
94243,481
94244,482
94245,496
94246,498
94247,505
94248,502
94249,507
94251,508
94252,509
94253,507
94254,487
94255,486
94256,482
94257,483
94257,492
94258,501
94259,503
94260,490
94261,467
94262,449
94263,451
94264,470
94265,487
94266,501
94267,514
94268,517
94269,510
94270,494
94271,495
94272,496
94273,489
94274,484
94275,481
94276,501
94277,507
94278,509
94279,509
94280,505
94281,491
94282,494
94283,495
94284,508
94285,501
94286,504
94287,517
94288,527
94289,531
94290,514
94291,501
94292,498
94294,503
94295,501
94296,506
94297,498
94298,491
94299,486
94299,479
94300,478
94301,479
94302,473
94303,467
94304,462
94305,480
94306,499
94307,528
94308,537
94309,542
94310,537
94311,522
94312,497
94313,494
94314,500
94315,503
94316,502
94317,505
94318,508
94319,508
94320,513
94321,517
94322,519
94323,515
94324,511
94325,512
94326,520
94327,530
94328,530
94329,532
94330,543
94331,544
94332,539
94333,535
94334,542
94336,540
94337,511
94338,512
94339,519
94340,526
94341,519
94342,502
94342,496
94343,499
94344,487
94345,483
94346,488
94347,499
94348,502
94349,493
94350,487
94351,484
94352,482
94353,480
94354,493
94355,490
94356,490
94357,490
94358,502
94359,506
94360,504
94361,495
94362,494
94363,483
94364,479
94365,476
94366,475
94367,485
94368,484
94369,484
94370,488
94371,490
94372,484
94373,476
94374,469
94375,476
94376,488
94377,492
94379,482
94380,477
94381,477
94382,491
94383,495
94384,493
94385,478
94385,477
94386,475
94387,472
94388,457
94389,456
94390,468
94391,480
94392,476
94393,465
94394,450
94395,459
94396,479
94397,491
94398,486
94399,490
94400,498
94401,489
94402,476
94403,469
94404,465
94405,473
94406,475
94407,482
94408,486
94409,488
94410,493
94411,499
94412,496
94413,487
94414,485
94415,489
94416,497
94417,495
94418,506
94419,509
94420,499
94422,503
94423,504
94424,497
94425,489
94426,480
94427,480
94427,496
94428,484
94429,483
94430,482
94431,491
94432,505
94433,517
94434,542
94435,558
94436,565
94437,579
94438,586
94439,581
94440,598
94441,616
94442,648
94443,663
94444,679
94445,702
94446,715
94447,731
94448,738
94449,761
94450,775
94451,813
94452,841
94453,862
94454,875
94455,908
94456,934
94457,960
94458,975
94459,987
94460,990
94461,990
94462,987
94464,963
94465,938
94466,888
94467,829
94468,777
94469,713
94470,631
94470,548
94471,478
94472,429
94473,382
94474,352
94475,333
94476,323
94477,304
94478,304
94479,319
94480,334
94481,337
94482,338
94483,344
94484,350
94485,358
94486,369
94487,380
94488,393
94489,407
94490,403
94491,397
94492,401
94493,414
94494,420
94495,427
94496,433
94497,434
94498,430
94499,433
94500,436
94501,428
94502,420
94503,412
94504,406
94505,397
94507,413
94508,431
94509,428
94510,422
94511,424
94512,436
94513,441
94513,441
94514,453
94515,454
94516,446
94517,452
94518,456
94519,447
94520,443
94521,440
94522,443
94523,454
94524,461
94525,460
94526,459
94527,470
94528,473
94529,463
94530,455
94531,449
94532,452
94533,453
94534,462
94535,463
94536,456
94537,463
94538,473
94539,478
94540,471
94541,468
94542,469
94543,473
94544,470
94545,464
94546,456
94547,457
94548,452
94550,452
94551,463
94552,472
94553,465
94554,467
94555,478
94555,490
94556,505
94557,506
94558,473
94559,458
94560,470
94561,479
94562,483
94563,499
94564,506
94565,504
94566,497
94567,495
94568,477
94569,467
94570,477
94571,474
94572,468
94573,477
94574,488
94575,486
94576,477
94577,488
94578,498
94579,490
94580,482
94581,487
94582,492
94583,480
94584,488
94585,491
94586,490
94587,497
94588,503
94589,503
94590,504
94592,505
94593,507
94594,504
94595,505
94596,495
94597,490
94598,489
94598,506
94599,521
94600,535
94601,533
94602,526
94603,515
94604,524
94605,543
94606,559
94607,548
94608,516
94609,487
94610,464
94611,480
94612,486
94613,488
94614,497
94615,503
94616,514
94617,511
94618,515
94619,515
94620,510
94621,500
94622,493
94623,488
94624,506
94625,535
94626,556
94627,552
94628,540
94629,523
94630,519
94631,521
94632,531
94633,533
94635,537
94636,547
94637,548
94638,542
94639,543
94640,544
94641,540
94641,533
94642,525
94643,508
94644,511
94645,519
94646,532
94647,541
94648,549
94649,546
94650,553
94651,548
94652,540
94653,538
94654,549
94655,547
94656,550
94657,549
94658,548
94659,558
94660,556
94661,543
94662,543
94663,556
94664,559
94665,556
94666,563
94667,558
94668,553
94669,548
94670,548
94671,541
94672,530
94673,531
94674,540
94675,553
94676,570
94678,576
94679,568
94680,556
94681,550
94682,542
94683,533
94683,536
94684,545
94685,551
94686,557
94687,544
94688,525
94689,515
94690,515
94691,521
94692,517
94693,518
94694,520
94695,518
94696,518
94697,517
94698,510
94699,503
94700,504
94701,500
94702,489
94703,485
94704,494
94705,499
94706,508
94707,507
94708,501
94709,492
94710,467
94711,461
94712,466
94713,487
94714,495
94715,485
94716,486
94717,495
94718,489
94720,467
94721,457
94722,448
94723,445
94724,450
94725,451
94726,448
94726,457
94727,451
94728,460
94729,466
94730,468
94731,450
94732,439
94733,427
94734,424
94735,410
94736,407
94737,425
94738,432
94739,428
94740,414
94741,417
94742,408
94743,382
94744,379
94745,397
94746,423
94747,427
94748,419
94749,412
94750,407
94751,410
94752,404
94753,396
94754,397
94755,399
94756,403
94757,402
94758,397
94759,392
94760,384
94761,383
94763,390
94764,392
94765,384
94766,392
94767,411
94768,407
94769,395
94769,374
94770,367
94771,367
94772,371
94773,377
94774,385
94775,407
94776,421
94777,412
94778,402
94779,399
94780,409
94781,420
94782,428
94783,443
94784,442
94785,440
94786,436
94787,422
94788,417
94789,416
94790,400
94791,397
94792,406
94793,423
94794,434
94795,445
94796,457
94797,446
94798,426
94799,424
94800,438
94801,433
94802,419
94803,419
94804,420
94806,413
94807,429
94808,426
94809,416
94810,418
94811,422
94811,425
94812,442
94813,461
94814,468
94815,465
94816,471
94817,462
94818,455
94819,433
94820,425
94821,407
94822,395
94823,412
94824,445
94825,453
94826,453
94827,453
94828,447
94829,445
94830,454
94831,458
94832,454
94833,448
94834,453
94835,455
94836,459
94837,446
94838,446
94839,448
94840,446
94841,444
94842,449
94843,450
94844,457
94845,461
94846,464
94848,452
94849,452
94850,457
94851,462
94852,456
94853,462
94854,464
94854,456
94855,458
94856,465
94857,476
94858,485
94859,484
94860,473
94861,459
94862,447
94863,446
94864,459
94865,466
94866,466
94867,462
94868,472
94869,486
94870,480
94871,484
94872,484
94873,478
94874,469
94875,466
94876,460
94877,465
94878,461
94879,457
94880,454
94881,456
94882,460
94883,455
94884,452
94885,448
94886,452
94887,451
94888,450
94889,455
94891,462
94892,455
94893,447
94894,451
94895,450
94896,452
94897,449
94897,452
94898,441
94899,435
94900,450
94901,469
94902,470
94903,468
94904,483
94905,488
94906,481
94907,469
94908,467
94909,476
94910,482
94911,480
94912,474
94913,488
94914,500
94915,492
94916,483
94917,486
94918,489
94919,488
94920,473
94921,460
94922,453
94923,442
94924,439
94925,454
94926,469
94927,473
94928,481
94929,484
94930,474
94931,456
94932,441
94934,446
94935,458
94936,461
94937,464
94938,480
94939,491
94939,490
94940,484
94941,480
94942,470
94943,452
94944,448
94945,450
94946,467
94947,479
94948,497
94949,505
94950,495
94951,475
94952,459
94953,455
94954,451
94955,451
94956,446
94957,456
94958,469
94959,470
94960,455
94961,453
94962,464
94963,473
94964,483
94965,480
94966,483
94967,481
94968,477
94969,473
94970,473
94971,470
94972,480
94973,478
94974,475
94976,470
94977,478
94978,486
94979,485
94980,485
94981,482
94982,473
94982,465
94983,473
94984,474
94985,473
94986,475
94987,466
94988,453
94989,452
94990,471
94991,486
94992,485
94993,481
94994,480
94995,485
94996,478
94997,462
94998,451
94999,457
95000,453
95001,464
95002,488
95003,483
95004,484
95005,478
95006,457
95007,465
95008,466
95009,461
95010,467
95011,477
95012,484
95013,487
95014,486
95015,489
95016,497
95017,488
95019,480
95020,476
95021,476
95022,465
95023,453
95024,459
95025,462
95025,468
95026,473
95027,479
95028,485
95029,474
95030,464
95031,460
95032,460
95033,462
95034,464
95035,471
95036,483
95037,489
95038,498
95039,484
95040,473
95041,479
95042,488
95043,499
95044,506
95045,514
95046,508
95047,511
95048,500
95049,493
95050,492
95051,480
95052,476
95053,479
95054,485
95055,483
95056,477
95057,468
95058,457
95059,466
95060,483
95062,480
95063,476
95064,464
95065,452
95066,456
95067,457
95067,458
95068,470
95069,471
95070,476
95071,480
95072,485
95073,484
95074,481
95075,466
95076,461
95077,463
95078,462
95079,469
95080,473
95081,475
95082,474
95083,471
95084,467
95085,481
95086,479
95087,477
95088,480
95089,486
95090,485
95091,475
95092,469
95093,465
95094,468
95095,464
95096,464
95097,473
95098,480
95099,472
95100,464
95101,470
95102,481
95104,497
95105,506
95106,500
95107,468
95108,453
95109,463
95110,481
95110,486
95111,476
95112,473
95113,467
95114,466
95115,470
95116,487
95117,486
95118,478
95119,473
95120,466
95121,461
95122,453
95123,453
95124,453
95125,464
95126,466
95127,475
95128,478
95129,485
95130,491
95131,491
95132,486
95133,486
95134,477
95135,460
95136,464
95137,482
95138,493
95139,493
95140,488
95141,495
95142,507
95143,509
95144,500
95145,491
95147,479
95148,472
95149,468
95150,467
95151,466
95152,458
95153,465
95153,478
95154,480
95155,470
95156,467
95157,466
95158,470
95159,471
95160,474
95161,466
95162,462
95163,456
95164,461
95165,478
95166,480
95167,484
95168,492
95169,490
95170,477
95171,464
95172,463
95173,465
95174,472
95175,486
95176,495
95177,497
95178,496
95179,497
95180,485
95181,467
95182,459
95183,465
95184,475
95185,487
95186,478
95187,468
95188,466
95190,477
95191,488
95192,489
95193,482
95194,468
95195,467
95195,468
95196,476
95197,480
95198,478
95199,476
95200,461
95201,456
95202,450
95203,448
95204,458
95205,472
95206,488
95207,494
95208,488
95209,474
95210,472
95211,467
95212,460
95213,465
95214,472
95215,477
95216,483
95217,479
95218,478
95219,475
95220,473
95221,478
95222,484
95223,486
95224,478
95225,467
95226,457
95227,471
95228,485
95229,485
95230,477
95232,467
95233,467
95234,479
95235,480
95236,483
95237,491
95238,496
95238,491
95239,489
95240,474
95241,480
95242,483
95243,468
95244,457
95245,471
95246,485
95247,489
95248,492
95249,489
95250,478
95251,471
95252,469
95253,468
95254,469
95255,473
95256,473
95257,477
95258,476
95259,479
95260,466
95261,457
95262,466
95263,475
95264,472
95265,487
95266,499
95267,488
95268,485
95269,497
95270,503
95271,477
95272,463
95273,467
95275,478
95276,476
95277,472
95278,466
95279,471
95280,483
95281,482
95281,473
95282,480
95283,490
95284,496
95285,495
95286,487
95287,482
95288,481
95289,489
95290,497
95291,489
95292,478
95293,467
95294,467
95295,466
95296,472
95297,473
95298,470
95299,475
95300,480
95301,474
95302,469
95303,459
95304,459
95305,466
95306,451
95307,453
95308,467
95309,489
95310,515
95311,518
95312,526
95313,521
95314,508
95315,503
95316,516
95318,527
95319,527
95320,519
95321,502
95322,495
95323,507
95323,513
95324,516
95325,516
95326,509
95327,501
95328,491
95329,483
95330,478
95331,484
95332,496
95333,517
95334,534
95335,540
95336,533
95337,522
95338,518
95339,523
95340,519
95341,513
95342,513
95343,515
95344,512
95345,510
95346,508
95347,496
95348,479
95349,478
95350,478
95351,474
95352,474
95353,475
95354,476
95355,473
95356,473
95357,464
95358,447
95360,446
95361,443
95362,437
95363,443
95364,447
95365,457
95366,465
95366,461
95367,457
95368,459
95369,456
95370,453
95371,456
95372,465
95373,471
95374,472
95375,462
95376,450
95377,444
95378,433
95379,429
95380,424
95381,419
95382,438
95383,459
95384,490
95385,504
95386,506
95387,501
95388,488
95389,480
95390,468
95391,468
95392,464
95393,467
95394,479
9534
222119
222109,467
222110,457
222111,457
222112,459
222113,460
222114,461
222115,463
222116,467
222117,471
222118,485
222119,489
222120
222110,457
222111,457
222112,459
222113,460
222114,461
222115,463
222116,467
222117,471
222118,485
222119,489
222120,489
222123,454
222124,448
222125,457
222126,462
222127,465
222128,479
222128,498
222129,506
222130,501
222131,485
222132,476
222133,485
222134,537
222135,591
222136,611
222137,612
222138,619
222139,603
222140,608
222141,642
222142,667
222143,693
222144,729
222145,759
222146,774
222147,798
222148,821
222149,861
222150,911
222151,949
222152,976
222153,990
222154,990
222156,989
222157,989
222158,989
222159,989
222160,989
222161,989
222162,990
222163,918
222164,810
222166,716
222167,621
222168,527
222169,457
222170,392
222171,348
222171,317
222172,293
222173,269
222174,241
222175,233
222176,247
222177,257
222178,266
222179,280
222180,284
222181,291
222182,318
222183,341
222184,347
222185,343
222186,332
222187,339
222189,361
222190,361
222191,358
222192,371
222193,377
222194,393
222195,413
222196,418
222197,415
222198,408
222199,413
222200,410
222201,389
222202,369
222203,356
222204,351
222205,374
222206,397
222208,417
222209,421
222210,416
222211,414
222212,406
222213,401
222214,392
222214,390
222215,413
222216,444
222217,462
222218,461
222219,446
222220,421
222221,411
222222,405
222223,409
222225,409
222226,403
222227,408
222228,423
222229,434
222230,431
222231,420
222232,408
222233,392
222234,381
222235,377
222236,389
222237,412
222238,416
222239,416
222240,426
222241,422
222242,427
222243,438
222244,452
222245,463
222246,468
222247,460
222248,449
222249,443
222251,453
222252,448
222253,440
222254,437
222255,442
222256,436
222256,434
222257,439
222259,441
222260,443
222261,445
222262,447
222263,448
222264,455
222265,472
222266,471
222267,473
222268,488
222269,492
222270,483
222271,466
222272,454
222273,455
222274,467
222275,476
222276,489
222277,508
222278,498
222279,492
222280,481
222281,480
222282,481
222283,479
222284,483
222285,494
222286,503
222287,507
222288,498
222289,479
222290,467
222291,449
222292,447
222294,448
222296,473
222297,484
222298,503
222299,510
222299,505
222300,495
222301,494
222302,489
222303,486
222304,488
222305,485
222306,475
222307,481
222308,480
222309,473
222310,470
222311,463
222312,467
222313,464
222314,457
222315,456
222316,462
222317,481
222318,500
222319,527
222320,537
222321,534
222322,535
222323,527
222324,511
222325,499
222326,502
222327,515
222329,518
222330,507
222331,510
222332,517
222333,519
222334,513
222336,504
222337,500
222338,515
222339,516
222340,518
222341,504
222341,505
222342,505
222343,514
222344,533
222345,557
222346,569
222347,561
222348,555
222349,545
222350,538
222351,542
222352,551
222353,548
222354,542
222355,540
222356,543
222357,558
222358,557
222359,560
222360,552
222361,544
222363,534
222364,518
222365,513
222366,531
222367,543
222368,549
222369,551
222370,544
222371,543
222372,543
222373,535
222374,539
222375,541
222376,541
222377,540
222379,527
222380,521
222381,525
222382,515
222383,507
222384,502
222384,498
222385,489
222386,490
222387,490
222388,505
222389,514
222390,514
222391,539
222392,549
222393,536
222394,520
222395,511
222397,519
222398,513
222399,531
222400,541
222401,536
222402,525
222403,507
222404,510
222405,512
222406,504
222407,513
222408,518
222409,503
222410,477
222411,465
222412,449
222413,429
222414,424
222415,424
222416,426
222417,443
222418,435
222419,436
222420,448
222422,449
222423,436
222424,424
222425,412
222426,400
222427,410
222427,425
222428,434
222430,411
222431,408
222432,405
222433,401
222434,401
222435,409
222436,428
222437,456
222438,474
222439,469
222440,444
222441,430
222442,417
222443,403
222444,395
222445,397
222446,383
222447,367
222448,350
222449,329
222450,323
222451,315
222452,313
222453,317
222454,331
222455,348
222456,371
222457,384
222458,378
222459,371
222460,374
222461,375
222462,368
222464,367
222465,366
222467,363
222468,375
222469,385
222470,376
222470,358
222471,363
222472,371
222473,378
222474,385
222475,388
222476,387
222477,378
222478,374
222479,371
222480,365
222481,361
222482,361
222483,376
222484,398
222485,408
222486,403
222487,395
222488,384
222489,369
222490,364
222491,367
222492,360
222493,357
222494,372
222495,384
222496,389
222497,391
222498,396
222500,399
222501,392
222502,386
222503,384
222504,394
222505,402
222507,418
222508,428
222509,420
222510,413
222511,407
222512,410
222512,415
222513,428
222514,433
222515,426
222516,427
222517,428
222518,433
222519,441
222520,446
222521,450
222522,447
222523,442
222524,442
222525,437
222526,439
222527,434
222528,411
222529,407
222530,420
222531,435
222532,428
222534,374
222535,371
222536,401
222537,416
222538,422
222539,400
222540,393
222541,383
222542,389
222543,402
222544,422
222545,443
222546,458
222547,459
222548,449
222550,433
222551,419
222552,409
222553,412
222554,430
222555,441
222555,455
222556,462
222557,451
222558,436
222559,441
222560,456
222561,460
222562,453
222563,463
222564,478
222565,474
222567,485
222568,471
222569,451
222570,441
222571,443
222572,445
222573,446
222574,441
222575,435
222576,441
222577,440
222578,446
222579,439
222580,438
222581,448
222582,445
222583,434
222584,431
222585,444
222586,448
222587,446
222588,453
222589,463
222590,473
222592,460
222593,447
222594,451
222595,463
222596,465
222597,469
222598,475
222598,481
222599,487
222601,451
222602,434
222603,429
222604,438
222605,448
222606,466
222607,482
222608,478
222609,475
222610,463
222611,442
222612,444
222613,455
222614,460
222615,469
222616,483
222617,475
222618,457
222619,452
222620,438
222621,428
222622,420
222623,416
222624,421
222625,430
222626,451
222627,471
222628,488
222629,499
222630,491
222631,463
222632,440
222633,441
222635,445
222636,439
222638,442
222639,443
222640,443
222640,451
222641,450
222642,451
222643,468
222644,485
222645,487
222646,487
222647,475
222648,467
222649,470
222650,477
222651,461
222652,442
222653,444
222654,450
222655,455
222656,456
222657,442
222658,443
222659,449
222660,452
222661,450
222662,448
222663,454
222664,460
222665,467
222666,472
222667,479
222668,479
222669,477
222671,470
222672,461
222673,451
222674,437
222675,439
222676,452
222678,467
222679,479
222680,486
222681,487
222682,471
222683,462
222683,467
222684,488
222685,511
222686,521
222687,521
222688,499
222689,471
222690,439
222691,416
222692,421
222693,456
222694,470
222695,459
222696,451
222697,461
222698,467
222699,459
222700,450
222701,447
222702,445
222704,443
222705,460
222706,474
222707,479
222708,478
222709,475
222710,477
222711,464
222712,465
222713,487
222714,504
222715,499
222716,490
222717,480
222718,475
222720,466
222721,457
222722,455
222723,460
222724,461
222725,462
222726,478
222726,478
222727,463
222728,462
222729,471
222730,478
222731,465
222732,458
222733,464
222734,467
222735,476
222736,495
222738,492
222739,472
222740,471
222741,476
222742,472
222743,474
222744,482
222745,487
222746,484
222747,482
222748,475
222749,476
222750,483
222751,471
222752,448
222753,453
222754,467
222755,483
222756,491
222757,497
222758,501
222759,496
222760,492
222761,491
222763,496
222764,481
222765,459
222766,449
222767,456
222768,475
222768,479
222769,473
222770,466
222772,468
222773,469
222774,476
222775,482
222776,481
222777,476
222778,471
222779,469
222780,473
222781,484
222782,497
222783,510
222784,512
222785,503
222786,496
222787,497
222788,504
222789,508
222790,497
222791,474
222792,450
222793,436
222794,452
222795,477
222796,474
222797,467
222798,464
222799,457
222800,452
222801,456
222802,468
222803,477
222804,475
222806,484
222807,497
222809,491
222810,494
222811,494
222811,488
222812,482
222813,484
222814,495
222815,502
222816,491
222817,467
222818,452
222819,458
222820,465
222821,475
222822,492
222823,504
222824,505
222825,502
222826,499
222827,494
222828,485
222829,489
222830,494
222831,482
222832,480
222833,479
222834,471
222835,475
222836,474
222837,479
222838,482
222839,485
222841,459
222842,451
222843,451
222844,458
222845,473
222846,484
222848,495
222849,493
222850,481
222851,471
222852,468
222853,477
222853,484
222854,482
222855,491
222856,488
222857,490
222858,499
222859,497
222860,489
222861,488
222862,472
222863,474
222864,481
222865,484
222866,491
222867,492
222868,507
222869,531
222870,545
222871,525
222872,495
222873,486
222875,500
222876,495
222877,500
222878,517
222879,525
222880,522
222881,522
222882,529
222883,518
222884,489
222885,489
222886,490
222887,481
222888,472
222889,470
222891,481
222892,480
222893,487
222894,496
222895,500
222896,512
222896,512
222897,511
222898,505
222899,496
222900,486
222901,478
222902,486
222903,504
222904,519
222905,524
222906,521
222907,521
222909,533
222910,545
222911,549
222912,543
222913,524
222914,518
222915,516
222916,504
222917,509
222918,520
222919,535
222920,545
222921,548
222922,542
222923,538
222924,532
222925,531
222926,532
222927,535
222928,548
222929,554
222930,548
222931,545
222932,545
222934,541
222935,514
222936,493
222937,471
222938,458
222939,460
222939,464
222940,467
222942,474
222943,471
222944,469
222945,474
222946,477
222947,482
222948,485
222949,474
222950,466
222951,464
222952,477
222953,476
222954,469
222955,485
222956,506
222957,507
222958,486
222959,457
222960,435
222961,433
222962,444
222963,454
222964,463
222965,480
222966,491
222967,490
222968,489
222969,483
222970,459
222971,450
222972,453
222973,462
222974,471
222976,493
222977,507
222979,485
222980,481
222981,481
222982,477
222982,470
222983,485
222984,493
222985,467
222986,457
222987,448
222988,449
222989,457
222990,463
222991,466
222992,468
222993,466
222994,462
222995,471
222996,480
222997,492
222998,498
222999,491
223000,479
223001,471
223002,478
223003,501
223004,528
223005,537
223006,536
223007,526
223008,511
223009,506
223010,490
223012,487
223013,509
223014,518
223015,501
223016,476
223017,467
223019,476
223020,483
223021,492
223022,500
223023,522
223024,554
223024,579
223025,600
223026,609
223027,616
223028,635
223029,654
223030,672
223031,701
223032,737
223033,768
223034,794
223035,819
223036,847
223037,873
223038,893
223039,924
223040,965
223041,989
223042,990
223043,989
223044,989
223046,988
223047,988
223048,988
223049,988
223050,989
223051,989
223052,990
223053,927
223054,848
223055,761
223056,661
223057,562
223058,482
223059,419
223060,374
223062,353
223063,333
223064,315
223065,306
223066,300
223067,296
223067,300
223068,309
223069,308
223070,305
223071,305
223072,307
223073,306
223074,331
223075,360
223076,375
223077,370
223079,379
223080,403
223081,418
223082,434
223083,427
223084,419
223085,416
223086,416
223087,433
223088,450
223089,453
223090,442
223091,431
223092,433
223093,420
223094,414
223095,411
223096,417
223097,424
223098,422
223099,417
223100,411
223101,417
223102,422
223104,417
223105,413
223106,412
223107,429
223108,446
223109,447
223110,441
223110,441
223111,446
223113,438
223114,450
223115,448
223116,456
223117,457
223118,470
223119,472
223120,451
223121,424
223122,418
223123,437
223124,458
223125,460
223126,450
223127,441
223128,449
223129,459
223130,464
223131,471
223132,478
223133,479
223134,471
223135,459
223136,463
223137,474
223138,476
223139,464
223140,449
223141,444
223142,456
223143,470
223144,481
223145,492
223147,496
223148,489
223150,459
223151,446
223152,442
223152,444
223153,452
223154,481
223155,483
223156,482
223157,472
223158,472
223159,484
223160,500
223161,502
223162,504
223163,501
223164,502
223165,506
223166,504
223167,504
223168,503
223169,512
223170,502
223171,498
223172,522
223173,534
223174,556
223175,554
223176,548
223177,542
223178,534
223179,526
223180,521
223181,516
223183,497
223184,489
223185,491
223186,492
223187,484
223188,480
223190,478
223191,479
223192,481
223193,480
223194,492
223195,513
223195,523
223196,527
223197,522
223198,523
223199,528
223200,531
223201,548
223202,571
223203,576
223204,576
223205,588
223206,592
223207,570
223208,548
223209,533
223210,525
223211,519
223212,522
223213,532
223214,543
223216,518
223217,504
223218,505
223219,503
223220,497
223221,509
223222,533
223223,543
223224,552
223225,555
223226,550
223227,545
223228,540
223229,529
223230,526
223232,530
223233,536
223234,549
223235,556
223236,550
223237,535
223237,533
223238,548
223239,569
223240,575
223241,588
223242,594
223243,582
223244,556
223245,556
223246,568
223247,583
223248,592
223250,592
223251,593
223252,573
223253,539
223254,542
223255,563
223256,589
223257,600
223258,588
223259,566
223260,559
223261,572
223262,591
223263,592
223264,582
223265,564
223266,560
223267,562
223268,563
223269,561
223270,555
223271,541
223272,535
223273,530
223275,534
223276,535
223277,537
223278,538
223279,539
223280,534
223280,525
223281,532
223282,535
223284,535
223285,523
223286,519
223287,531
223288,540
223289,526
223290,519
223291,523
223292,523
223293,520
223294,524
223295,526
223296,519
223297,523
223298,542
223299,549
223300,541
223301,532
223302,525
223303,523
223304,520
223305,512
223306,495
223307,487
223308,481
223309,471
223310,467
223311,461
223312,451
223313,445
223314,445
223315,444
223316,443
223318,443
223319,444
223321,450
223322,455
223323,456
223323,453
223324,443
223325,435
223326,428
223327,429
223328,433
223329,422
223330,413
223331,418
223332,424
223333,435
223334,440
223335,430
223336,418
223337,415
223338,424
223339,433
223340,435
223341,438
223342,444
223343,453
223344,448
223345,439
223346,436
223347,428
223348,411
223349,393
223350,383
223351,393
223353,434
223354,430
223355,421
223356,406
223357,400
223358,391
223360,385
223361,388
223362,399
223363,405
223364,418
223365,421
223366,416
223366,419
223367,423
223368,419
223369,413
223370,411
223371,414
223372,420
223373,429
223374,416
223375,412
223376,418
223377,432
223378,435
223379,423
223380,418
223381,429
223382,440
223383,453
223384,451
223385,447
223387,434
223388,439
223389,448
223390,465
223391,474
223392,472
223393,464
223394,444
223395,434
223396,427
223397,423
223398,421
223399,422
223400,428
223401,443
223403,450
223404,452
223405,441
223406,426
223407,415
223408,414
223408,419
223409,410
223410,411
223411,431
223412,444
223413,464
223414,473
223415,481
223416,480
223417,470
223418,454
223419,438
223421,440
223422,451
223423,452
223424,447
223425,445
223426,442
223427,436
223428,428
223429,423
223430,432
223431,445
223432,446
223433,459
223434,460
223435,459
223436,467
223437,476
223438,471
223439,460
223440,448
223441,451
223442,459
223443,463
223444,468
223446,481
223447,479
223448,465
223449,451
223450,447
223451,453
223451,461
223452,464
223454,455
223455,458
223456,464
223457,472
223458,490
223459,487
223460,469
223461,470
223462,464
223463,476
223464,498
223465,505
223466,497
223467,478
223468,464
223469,471
223470,480
223471,480
223472,458
223473,469
223474,484
223475,498
223476,498
223477,489
223478,471
223479,457
223480,457
223481,459
223482,473
223483,486
223484,488
223485,490
223486,499
223488,503
223489,502
223491,513
223492,519
223493,510
223494,509
223494,502
223495,493
223496,493
223497,490
223498,492
223499,493
223500,496
223501,507
223502,516
223503,511
223504,496
223505,478
223506,465
223507,446
223508,421
223509,412
223510,423
223511,439
223512,452
223513,478
223514,492
223515,486
223516,486
223517,491
223518,491
223519,492
223520,493
223521,494
223522,499
223524,516
223525,519
223526,523
223527,518
223528,500
223529,497
223531,500
223532,503
223533,492
223534,476
223535,470
223536,466
223536,470
223537,492
223538,497
223539,480
223540,468
223541,473
223542,506
223543,524
223544,502
223545,480
223546,486
223547,492
223548,482
223549,474
223550,466
223551,468
223552,486
223553,499
223554,483
223555,461
223556,446
223558,468
223559,492
223560,520
223561,533
223562,528
223563,516
223564,511
223565,510
223566,518
223567,515
223568,498
223569,476
223570,474
223571,483
223572,490
223574,486
223575,484
223576,492
223577,507
223578,508
223579,499
223579,492
223580,487
223581,493
223582,504
223583,502
223584,494
223585,492
223586,500
223587,502
223588,495
223589,480
223591,475
223592,496
223593,511
223594,512
223595,505
223596,508
223597,516
223598,518
223599,512
223600,516
223601,502
223602,471
223603,455
223604,475
223605,504
223606,506
223607,494
223608,476
223609,470
223610,460
223611,468
223612,489
223613,501
223614,506
223616,505
223617,488
223618,493
223619,489
223620,480
223621,467
223622,473
223622,498
223623,526
223625,545
223626,503
223627,467
223628,461
223629,457
223630,456
223631,458
223632,482
223633,500
223634,510
223635,516
223636,501
223637,483
223638,474
223639,468
223640,479
223641,494
223642,506
223643,518
223644,517
223645,508
223646,489
223647,478
223648,487
223649,491
223650,481
223651,479
223652,488
223653,486
223654,485
223655,497
223656,502
223657,504
223659,506
223660,505
223662,495
223663,506
223664,511
223664,513
223665,527
223666,530
223667,520
223668,506
223669,500
223670,499
223671,496
223672,506
223673,511
223674,506
223675,488
223676,474
223677,476
223678,486
223679,494
223680,498
223681,507
223682,514
223683,511
223684,493
223685,491
223686,495
223687,497
223688,496
223689,509
223690,512
223691,511
223692,506
223693,503
223695,497
223696,497
223697,503
223698,513
223699,511
223700,499
223702,506
223703,506
223704,490
223705,473
223706,467
223707,482
223707,497
223708,501
223709,510
223710,504
223711,493
223712,513
223713,532
223714,530
223715,512
223716,506
223717,508
223718,506
223719,498
223720,501
223721,516
223722,523
223723,516
223724,504
223725,500
223726,496
223728,489
223729,487
223730,488
223731,497
223732,504
223733,505
223734,527
223735,540
223736,525
223737,495
223738,474
223739,476
223740,501
223741,507
223742,486
223744,465
223745,470
223746,491
223747,504
223748,509
223749,507
223750,517
223750,535
223751,530
223752,526
223753,505
223754,489
223755,481
223756,479
223757,494
223758,507
223759,516
223760,509
223762,478
223763,500
223764,519
223765,528
223766,529
223767,523
223768,501
223769,491
223770,492
223771,497
223772,506
223773,501
223774,485
223775,465
223776,456
223777,453
223778,451
223779,465
223780,495
223781,512
223782,508
223783,495
223784,493
223785,499
223787,503
223788,507
223789,513
223790,518
223791,520
223792,513
223792,506
223793,499
223794,499
223796,502
223797,491
223798,483
223799,491
223800,496
223801,491
223802,496
223803,505
223804,506
223805,507
223806,501
223807,504
223808,511
223809,504
223810,489
223811,498
223812,520
223813,523
223814,501
223815,494
223816,475
223817,462
223818,474
223819,487
223820,497
223821,509
223822,515
223823,515
223824,507
223825,497
223826,494
223827,488
223828,478
223830,484
223831,497
223833,509
223834,502
223835,493
223835,496
223836,495
223837,478
223838,485
223839,513
223840,516
223841,503
223842,510
223843,530
223844,562
223845,574
223846,551
223847,517
223848,498
223849,499
223850,498
223851,499
223852,505
223853,506
223854,523
223855,527
223856,521
223857,510
223858,497
223859,496
223860,499
223861,518
223862,523
223863,533
223865,565
223866,569
223867,562
223868,555
223869,557
223870,551
223872,543
223873,541
223874,547
223875,552
223876,548
223877,543
223878,547
223878,547
223879,550
223880,539
223881,539
223882,537
223883,537
223884,547
223885,552
223886,538
223887,511
223888,500
223889,507
223890,517
223891,529
223892,529
223893,516
223894,505
223895,492
223896,480
223897,473
223899,500
223900,518
223901,530
223902,552
223903,562
223904,555
223905,546
223906,540
223907,533
223908,524
223909,524
223910,517
223911,519
223912,528
223913,518
223915,512
223916,511
223917,498
223918,482
223919,467
223920,457
223920,456
223921,474
223922,488
223923,496
223924,503
223925,496
223926,474
223927,461
223928,457
223929,463
223930,481
223931,492
223933,481
223934,474
223935,467
223936,473
223937,492
223938,499
223939,503
223940,514
223941,537
223942,541
223943,536
223944,529
223945,515
223946,503
223947,497
223948,487
223949,476
223950,479
223951,494
223952,502
223953,500
223954,487
223955,472
223956,468
223958,471
223959,464
223960,472
223961,498
223962,518
223963,523
223963,523
223964,524
223966,484
223967,476
223968,479
223969,484
223970,476
223971,484
223972,478
223973,470
223974,462
223975,464
223976,473
223977,485
223978,503
223979,526
223980,525
223981,517
223982,511
223983,508
223984,502
223985,492
223986,492
223987,512
223988,518
223989,518
223990,521
223991,540
223992,559
223993,574
223994,590
223995,616
223996,641
223997,664
223998,677
224000,699
224001,731
224003,793
224004,819
224005,843
224006,858
224006,869
224007,887
224008,932
224009,985
224010,989
224011,989
224012,989
224013,989
224014,988
224015,988
224016,988
224017,988
224018,988
224019,988
224020,989
224021,990
224022,911
224023,803
224024,704
224025,615
224026,551
224027,495
224028,451
224029,422
224030,378
224031,336
224032,301
224033,288
224034,291
224036,311
224037,310
224038,293
224039,296
224040,294
224041,292
224043,305
224044,324
224045,344
224046,367
224047,392
224048,418
224048,432
224049,436
224050,439
224051,438
224052,425
224053,415
224054,412
224055,399
224056,388
224057,390
224058,393
224059,404
224060,406
224061,400
224062,396
224063,404
224064,407
224065,413
224066,417
224067,413
224068,418
224070,427
224071,442
224072,443
224073,451
224074,462
224075,458
224076,447
224077,452
224078,452
224079,466
224080,481
224081,493
224082,498
224083,492
224084,487
224086,486
224087,460
224088,444
224089,447
224090,447
224091,445
224091,447
224092,439
224093,428
224094,432
224095,436
224096,443
224097,458
224098,464
224099,462
224100,463
224101,477
224103,506
224104,506
224105,499
224106,482
224107,465
224108,459
224109,465
224110,478
224111,490
224112,494
224113,487
224114,468
224115,475
224116,509
224117,536
224118,545
224119,544
224120,529
224121,512
224122,502
224123,509
224124,526
224125,536
224126,523
224128,497
224129,481
224130,476
224131,485
224132,500
224133,499
224134,498
224134,499
224135,496
224137,488
224138,503
224139,508
224140,492
224141,476
224142,496
224143,512
224144,503
224145,480
224146,466
224147,469
224148,476
224149,480
224150,501
224151,505
224152,487
224153,490
224154,493
224155,501
224156,509
224157,514
224158,517
224159,527
224160,547
224161,549
224162,552
224163,555
224164,550
224165,536
224166,518
224167,515
224168,487
224169,479
224171,507
224172,531
224174,532
224175,527
224176,534
224176,543
224177,562
224178,577
224179,571
224180,564
224181,557
224182,543
224183,540
224184,542
224185,540
224186,536
224187,550
224188,559
224189,562
224190,568
224191,565
224192,562
224193,557
224194,560
224195,556
224196,537
224197,529
224198,539
224199,540
224200,534
224201,537
224202,547
224203,556
224204,570
224205,562
224207,538
224208,550
224209,551
224210,557
224211,568
224212,570
224214,570
224215,577
224216,582
224217,569
224218,553
224219,550
224219,556
224220,552
224221,549
224222,557
224223,564
224224,577
224225,593
224226,589
224227,579
224228,573
224229,576
224230,578
224231,565
224232,563
224233,575
224234,579
224235,578
224236,569
224237,562
224238,564
224240,572
224241,561
224242,548
224243,553
224244,551
224245,560
224246,560
224247,552
224248,547
224249,537
224250,536
224251,536
224252,536
224253,537
224254,537
224256,536
224257,538
224258,527
224259,513
224260,509
224261,519
224261,526
224262,533
224263,536
224264,534
224265,536
224266,530
224267,511
224268,493
224269,483
224270,499
224271,493
224272,502
224274,510
224275,518
224276,511
224277,500
224278,487
224279,477
224280,496
224281,508
224282,506
224283,493
224284,475
224285,470
224286,467
224287,471
224288,477
224289,483
224290,482
224291,460
224292,458
224293,435
224294,405
224295,385
224296,393
224297,396
224299,405
224300,422
224301,427
224302,427
224303,424
224304,438
224304,449
224305,438
224306,411
224307,394
224308,384
224310,378
224311,357
224312,369
224313,385
224314,385
224315,380
224316,386
224317,405
224318,420
224319,429
224320,417
224321,405
224322,415
224323,430
224324,425
224325,419
224326,423
224327,425
224328,428
224329,437
224330,435
224331,422
224332,422
224333,412
224334,398
224335,386
224336,385
224337,389
224338,393
224339,392
224340,392
224342,393
224343,402
224344,406
224345,408
224347,423
224347,426
224348,431
224349,432
224350,441
224351,426
224352,424
224353,426
224354,440
224355,454
224356,456
224357,451
224358,430
224359,405
224360,398
224361,411
224362,437
224363,444
224364,451
224365,447
224366,424
224367,412
224368,416
224369,426
224370,443
224371,449
224372,448
224373,447
224374,458
224375,466
224376,474
224377,495
224378,506
224380,506
224381,497
224382,489
224384,474
224385,460
224386,440
224387,438
224388,446
224389,451
224389,460
224390,476
224391,478
224392,478
224393,467
224394,458
224395,463
224396,462
224397,451
224398,453
224399,470
224400,464
224401,464
224402,460
224403,464
224404,473
224405,462
224406,456
224407,484
224408,526
224409,538
224410,524
224411,501
224412,481
224414,445
224415,424
224416,431
224417,459
224418,479
224419,478
224420,465
224421,465
224422,471
224423,468
224424,475
224425,491
224427,484
224428,471
224429,464
224430,457
224431,452
224432,451
224432,451
224433,449
224434,438
224435,426
224436,425
224437,443
224438,478
224439,496
224440,494
224441,474
224442,445
224443,433
224444,434
224445,438
224446,450
224448,498
224449,501
224450,500
224451,503
224452,513
224453,516
224454,506
224455,484
224456,468
224457,469
224458,468
224459,477
224460,482
224461,485
224462,501
224463,504
224464,508
224465,500
224466,492
224467,492
224468,498
224470,508
224471,514
224472,504
224473,505
224474,504
224475,497
224475,491
224476,489
224477,488
224478,487
224479,484
224481,455
224482,461
224483,462
224484,449
224485,444
224486,447
224487,455
224488,478
224489,503
224490,510
224491,487
224492,483
224493,489
224494,482
224495,483
224496,483
224497,495
224498,494
224499,493
224500,499
224501,506
224502,497
224503,495
224504,497
224505,489
224506,491
224507,497
224508,498
224509,486
224510,468
224512,469
224513,471
224514,472
224515,477
224516,481
224518,495
224518,501
224519,518
224520,529
224521,530
224522,524
224523,515
224524,493
224525,468
224526,472
224527,482
224528,487
224529,496
224530,503
224531,509
224532,504
224533,493
224534,480
224535,473
224536,475
224537,490
224538,503
224539,505
224540,502
224541,484
224542,452
224543,446
224544,453
224545,458
224546,465
224547,481
224548,499
224549,514
224551,492
224552,485
224553,507
224555,527
224556,531
224557,520
224558,505
224559,496
224560,497
224560,494
224561,497
224562,487
224563,471
224564,456
224565,451
224566,463
224567,471
224568,466
224569,467
224570,478
224571,477
224572,464
224573,462
224574,475
224575,483
224576,483
224577,484
224578,498
224579,515
224580,522
224581,538
224582,568
224583,576
224585,539
224586,523
224587,507
224588,498
224589,511
224590,512
224591,492
224592,450
224593,426
224594,429
224595,438
224596,453
224598,456
224599,465
224600,470
224601,480
224602,490
224603,495
224603,490
224604,485
224605,487
224606,489
224607,501
224608,515
224609,519
224610,512
224611,504
224612,484
224613,478
224614,462
224615,458
224616,462
224618,487
224619,513
224620,523
224621,526
224622,524
224623,524
224624,516
224625,504
224626,495
224627,482
224628,484
224629,507
224630,519
224631,515
224632,497
224633,495
224634,491
224635,488
224636,484
224637,479
224638,488
224640,496
224641,487
224642,495
224643,499
224644,499
224645,487
224646,473
224646,472
224647,477
224648,487
224649,521
224650,528
224652,491
224653,489
224654,484
224655,486
224656,496
224657,502
224658,503
224659,498
224660,486
224661,487
224662,507
224663,526
224664,535
224665,531
224666,524
224667,523
224668,526
224669,532
224670,512
224671,488
224672,481
224673,472
224674,460
224675,466
224676,483
224677,494
224678,498
224679,493
224680,490
224681,501
224683,518
224684,534
224685,524
224686,502
224687,496
224688,502
224689,519
224690,513
224691,499
224692,482
224693,473
224694,468
224695,490
224696,502
224697,496
224698,489
224699,498
224700,500
224701,491
224702,476
224703,468
224704,466
224705,470
224706,474
224707,465
224708,469
224709,492
224710,499
224711,495
224712,496
224713,496
224714,480
224715,463
224716,463
224717,473
224718,492
224719,515
224720,529
224722,523
224723,520
224724,509
224726,495
224727,495
224728,510
224729,524
224730,533
224731,515
224731,503
224732,510
224733,521
224734,528
224735,519
224736,514
224737,523
224738,511
224739,506
224740,503
224741,520
224742,535
224743,542
224744,537
224745,527
224746,509
224747,505
224748,503
224749,488
224750,447
224751,430
224752,446
224753,459
224755,475
224756,487
224757,510
224758,528
224759,524
224760,527
224761,536
224762,548
224763,555
224764,532
224765,510
224766,507
224768,504
224769,497
224770,503
224771,518
224772,523
224773,518
224774,526
224774,526
224775,512
224776,516
224777,537
224778,550
224779,553
224780,536
224781,520
224782,516
224783,529
224784,524
224785,515
224786,507
224787,499
224789,506
224790,520
224791,530
224792,539
224793,539
224794,552
224795,563
224796,560
224797,543
224798,556
224799,572
224800,559
224801,521
224802,495
224803,475
224804,460
224805,450
224806,450
224807,467
224808,486
224809,500
224811,509
224812,514
224813,516
224814,519
224815,521
224816,507
224816,501
224817,500
224818,513
224819,516
224820,505
224821,488
224823,441
224824,430
224825,435
224826,442
224827,430
224828,441
224829,452
224830,451
224831,462
224832,471
224833,467
224834,462
224835,478
224836,496
224837,495
224838,498
224839,496
224840,489
224841,487
224842,487
224843,495
224844,496
224845,503
224846,509
224847,485
224848,474
224849,469
224850,468
224851,468
224852,458
224854,454
224855,463
224856,455
224857,465
224859,486
224859,480
224860,476
224861,464
224862,461
224863,467
224864,460
224865,448
224866,465
224867,495
224868,530
224869,532
224870,534
224871,533
224872,523
224873,520
224874,514
224875,505
224876,504
224877,505
224878,512
224879,524
224880,520
224881,521
224882,519
224883,519
224884,530
224885,537
224886,545
224887,546
224888,569
224889,578
224890,579
224892,623
224893,643
224894,665
224896,681
224897,697
224898,713
224899,747
224900,784
224901,816
224901,847
224902,862
224903,895
224904,928
224905,949
224906,974
224907,990
224908,989
224909,989
224910,989
224911,989
224912,989
224913,989
224914,989
224915,990
224916,990
224917,943
224918,882
224919,800
224920,704
224921,600
224922,516
224923,433
224924,370
224926,328
224927,317
224928,326
224929,313
224930,296
224931,280
224932,282
224933,289
224934,291
224935,300
224936,321
224937,351
224939,381
224940,405
224941,413
224942,411
224943,410
224944,407
224944,402
224945,400
224946,411
224947,406
224948,409
224949,402
224950,396
224951,395
224952,414
224953,416
224954,410
224955,415
224956,431
224957,444
224958,441
224960,411
224961,419
224962,427
224963,426
224964,444
224965,455
224966,443
224967,435
224968,431
224969,424
224970,434
224971,439
224972,434
224973,437
224974,442
224975,446
224976,447
224977,449
224978,455
224979,466
224980,470
224982,466
224983,460
224984,453
224985,453
224986,463
224987,463
224987,453
224988,460
224989,446
224990,441
224991,452
224993,452
224994,452
224995,450
224996,453
224997,459
224998,476
224999,492
225000,495
225001,497
225002,488
225003,464
225004,445
225005,445
225006,461
225007,470
225008,488
225009,497
225010,517
225011,537
225012,539
225013,535
225014,527
225015,533
225016,538
225017,528
225018,523
225019,519
225020,504
225021,489
225022,480
225024,480
225025,473
225026,479
225027,491
225028,496
225030,486
225030,475
225031,474
225032,488
225033,488
225034,471
225035,466
225036,465
225037,474
225038,480
225039,495
225040,506
225041,512
225042,523
225043,522
225044,533
225045,541
225046,531
225047,517
225048,527
225049,520
225050,513
225051,512
225052,514
225053,509
225054,504
225055,510
225056,521
225057,529
225058,533
225059,527
225060,519
225061,517
225063,495
225064,498
225065,503
225067,513
225068,533
225069,551
225070,544
225071,535
225072,535
225072,540
225073,542
225074,542
225075,541
225076,531
225077,534
225078,536
225079,551
225080,559
225081,563
225082,555
225083,545
225084,540
225085,543
225086,546
225087,553
225088,561
225089,563
225090,558
225091,561
225092,564
225093,554
225094,540
225095,546
225097,574
225098,598
225099,595
225100,588
225101,587
225102,578
225103,565
225104,563
225105,559
225106,546
225107,547
225108,552
225110,548
225111,541
225112,535
225113,529
225114,521
225115,516
225115,523
225116,530
225117,543
225118,549
225119,563
225120,577
225121,588
225122,597
225123,595
225124,587
225125,582
225126,585
225127,600
225128,588
225130,572
225131,560
225132,551
225133,555
225134,556
225135,566
225136,567
225137,549
225138,545
225139,559
225140,565
225141,561
225142,556
225143,550
225144,551
225145,557
225146,559
225147,577
225148,579
225149,571
225150,567
225152,571
225153,565
225154,544
225155,537
225156,540
225157,521
225158,508
225158,514
225159,515
225160,518
225161,506
225162,489
225164,496
225165,497
225166,498
225167,511
225168,494
225169,479
225170,468
225171,463
225172,469
225173,468
225174,465
225175,465
225176,455
225177,465
225178,479
225179,476
225180,477
225181,478
225182,471
225183,454
225184,443
225185,446
225186,447
225187,459
225188,462
225189,465
225190,459
225191,462
225192,445
225193,428
225195,403
225196,383
225197,386
225198,404
225199,411
225200,399
225201,377
225202,373
225203,375
225204,370
225205,376
225206,390
225207,406
225208,409
225209,412
225210,408
225211,400
225212,403
225213,408
225214,411
225215,409
225216,411
225217,415
225218,417
225219,415
225220,417
225221,421
225222,432
225223,443
225224,439
225225,430
225226,415
225227,415
225228,420
225229,421
225230,420
225231,428
225232,427
225234,400
225235,404
225236,408
225238,406
225239,405
225240,400
225241,393
225242,387
225243,383
225243,380
225244,371
225245,360
225246,361
225247,365
225248,355
225249,362
225250,377
225251,398
225252,417
225253,412
225254,408
225255,405
225256,412
225257,434
225258,462
225259,471
225260,470
225261,460
225262,438
225263,427
225264,426
225265,430
225267,430
225268,429
225269,441
225270,446
225271,443
225272,437
225273,426
225274,414
225275,416
225276,427
225277,433
225278,446
225280,457
225281,450
225282,429
225283,411
225284,415
225285,420
225286,423
225286,428
225287,448
225288,466
225289,448
225290,428
225291,428
225292,434
225293,442
225294,460
225295,477
225296,479
225297,473
225298,468
225299,481
225301,482
225302,471
225303,461
225304,462
225305,465
225306,468
225307,481
225308,475
225309,463
225310,458
225311,460
225312,466
225313,475
225314,484
225315,495
225316,491
225317,478
225318,463
225319,467
225320,480
225321,491
225323,488
225324,490
225325,497
225326,502
225327,505
225328,498
225328,478
225329,459
225330,445
225331,437
225332,441
225333,453
225335,470
225336,479
225337,481
225338,473
225339,465
225340,461
225341,464
225342,462
225343,455
225344,454
225345,444
225346,450
225347,460
225348,454
225349,450
225350,443
225351,445
225352,461
225353,476
225354,491
225355,497
225356,495
225357,491
225358,491
225359,488
225360,471
225361,452
225362,441
225363,455
225364,471
225366,474
225367,489
225368,491
225369,493
225371,497
225371,488
225372,469
225373,461
225374,478
225375,494
225376,500
225377,503
225378,511
225379,502
225380,497
225381,498
225382,487
225383,490
225384,493
225385,480
225386,466
225387,465
225388,470
225389,488
225390,491
225391,488
225392,473
225393,452
225394,448
225395,453
225396,461
225397,469
225398,480
225399,487
225400,491
225401,487
225402,468
225404,480
225405,483
225406,497
225408,515
225409,520
225410,521
225411,528
225412,538
225413,532
225413,524
225414,503
225415,472
225416,444
225417,429
225418,439
225419,460
225420,482
225421,481
225422,484
225423,489
225424,494
225425,475
225426,459
225427,449
225428,455
225429,463
225430,461
225431,467
225432,457
225433,455
225434,463
225435,474
225436,472
225438,470
225439,459
225440,452
225441,457
225442,467
225443,476
225444,492
225445,508
225446,524
225447,535
225448,542
225449,526
225451,501
225452,481
225453,467
225454,463
225455,470
225456,502
225456,526
225457,516
225458,498
225459,482
225460,472
225461,465
225462,464
225463,457
225464,459
225465,473
225466,496
225467,509
225468,518
225469,513
225470,501
225472,477
225473,470
225474,478
225475,494
225476,511
225477,523
225478,522
225479,520
225480,506
225481,490
225482,470
225483,457
225484,464
225485,493
225486,517
225487,506
225488,498
225489,504
225490,492
225491,486
225492,487
225494,484
225495,484
225496,476
225497,476
225498,466
225499,466
225499,463
225500,462
225501,465
225502,460
225503,482
225505,517
225506,534
225507,535
225508,522
225509,498
225510,483
225511,479
225512,480
225513,483
225514,497
225515,515
225516,524
225517,519
225518,511
225519,507
225520,507
225521,496
225522,477
225523,468
225524,479
225525,488
225526,507
225527,501
225528,488
225529,473
225530,475
225531,474
225532,467
225533,469
225534,474
225536,478
225537,484
225538,478
225539,473
225540,461
225542,476
225542,476
225543,483
225544,495
225545,507
225546,518
225547,507
225548,502
225549,499
225550,485
225551,462
225552,453
225553,480
225554,503
225555,507
225556,507
225557,508
225558,501
225559,505
225560,502
225561,494
225562,481
225563,478
225564,483
225565,493
225566,508
225567,507
225568,505
225569,498
225570,496
225571,504
225572,513
225573,518
225575,506
225576,510
225577,513
225579,517
225580,513
225581,498
225582,487
225583,481
225584,491
225584,501
225585,502
225586,503
225587,489
225588,487
225589,487
225590,499
225591,502
225592,494
225593,485
225594,487
225595,479
225596,470
225597,472
225598,464
225599,452
225600,455
225601,469
225602,493
225603,511
225604,518
225605,516
225606,524
225607,521
225609,511
225610,516
225611,511
225612,504
225613,513
225614,522
225615,504
225616,478
225617,462
225618,459
225619,459
225620,455
225622,449
225623,445
225624,451
225625,457
225626,469
225627,488
225627,496
225628,499
225629,497
225630,497
225631,504
225632,511
225633,520
225634,525
225635,518
225636,504
225637,506
225638,514
225639,520
225640,521
225642,507
225643,510
225644,508
225645,496
225646,510
225647,519
225648,513
225649,514
225650,516
225651,511
225652,500
225653,501
225654,509
225655,508
225656,510
225657,506
225658,504
225659,501
225660,500
225661,497
225662,491
225664,489
225665,495
225666,504
225667,516
225668,511
225669,506
225669,501
225670,493
225671,488
225672,484
225673,487
225674,493
225676,516
225677,523
225678,520
225679,519
225680,537
225681,552
225682,545
225683,523
225684,493
225685,475
225686,479
225687,487
225688,489
225689,492
225690,502
225691,500
225692,495
225693,509
225694,534
225695,539
225696,547
225697,557
225698,564
225699,565
225700,577
225701,581
225702,569
225703,547
225704,531
225705,537
225707,557
225708,559
225709,558
225710,555
225711,535
225712,489
225713,501
225714,516
225715,525
225716,523
225717,516
225718,523
225719,527
225720,519
225721,512
225722,513
225723,514
225724,504
225725,489
225726,475
225727,466
225728,465
225729,465
225730,461
225731,454
225732,457
225733,461
225734,458
225735,459
225736,463
225737,471
225738,484
225739,498
225740,482
225741,467
225742,461
225743,462
225744,482
225746,508
225747,499
225748,501
225750,498
225751,479
225752,464
225753,447
225754,447
225755,464
225755,477
225756,477
225757,482
225758,485
225759,495
225760,502
225761,493
225762,477
225763,479
225764,482
225765,476
225766,476
225767,479
225768,490
225769,502
225770,500
225771,489
225772,484
225773,476
225774,472
225775,471
225776,485
225777,489
225779,484
225780,491
225781,489
225782,495
225783,520
225784,522
225785,504
225786,471
225787,462
225788,464
225789,471
225790,482
225792,479
225793,477
225794,489
225795,491
225796,498
225797,493
225798,512
225798,527
225799,533
225800,540
225801,538
225802,536
225803,549
225804,571
225805,596
225806,612
225807,629
225808,641
225809,658
225810,684
225811,713
225813,815
225814,849
225815,841
225816,815
225817,814
225818,831
225819,871
225820,914
225821,951
225822,990
225823,989
225824,988
225825,988
225826,988
225827,988
225828,988
225829,988
225830,988
225831,989
225832,989
225833,943
225835,859
225836,774
225837,684
225838,604
225839,525
225840,461
225840,412
225841,368
225842,327
225843,302
225844,273
225845,273
225847,264
225848,254
225849,257
225850,271
225851,285
225852,307
225853,320
225854,331
225855,348
225856,359
225857,367
225858,385
225859,398
225860,418
225861,432
225862,434
225863,426
225864,411
225865,414
225866,407
225867,401
225868,397
225869,406
225870,417
225871,427
225872,435
225873,438
225874,440
225875,450
225876,444
225878,428
225879,408
225880,405
225881,426
225883,437
225883,440
225884,432
225885,430
225886,420
225887,407
225888,395
225889,393
225890,410
225891,431
225892,449
225893,446
225894,423
225895,410
225896,421
225897,443
225898,459
225899,467
225900,457
225901,437
225902,430
225903,438
225904,451
225905,465
225906,463
225907,464
225908,470
225909,474
225910,469
225911,461
225912,450
225913,444
225914,453
225916,499
225917,507
225918,493
225920,478
225921,473
225922,456
225923,442
225924,434
225925,437
225926,462
225926,482
225927,490
225928,496
225929,500
225930,491
225931,488
225932,491
225933,495
225934,499
225935,501
225936,502
225937,503
225938,506
225939,501
225940,480
225941,478
225942,481
225943,465
225944,466
225945,482
225946,489
225947,497
225948,504
225950,504
225951,501
225952,491
225953,483
225954,488
225955,490
225956,490
225957,493
225958,501
225959,507
225960,514
225961,512
225963,505
225964,503
225965,499
225966,501
225967,501
225968,510
225968,506
225969,517
225970,540
225971,553
225972,541
225973,535
225974,526
225975,513
225976,505
225977,507
225978,502
225979,501
225980,503
225981,495
225982,484
225983,481
225985,512
225986,515
225987,512
225988,511
225989,504
225990,494
225991,515
225992,553
225993,564
225994,563
225995,555
225996,570
225997,577
225998,568
225999,565
226000,562
226001,545
226002,538
226003,531
226004,520
226006,534
226007,536
226008,545
226009,553
226010,560
226011,568
226011,566
226012,559
226013,548
226014,556
226015,571
226016,579
226017,572
226019,559
226020,544
226021,554
226022,570
226023,576
226024,581
226025,587
226026,574
226027,556
226028,534
226029,524
226030,519
226031,520
226032,539
226033,553
226034,565
226035,577
226036,567
226037,557
226038,559
226039,561
226040,553
226041,553
226042,547
226043,567
226044,585
226045,594
226046,580
226048,561
226049,545
226050,535
226051,539
226052,550
226053,559
226054,599
226055,617
226056,622
226057,601
226058,560
226059,520
226060,497
226061,489
226062,488
226063,495
226064,517
226065,528
226066,525
226067,515
226068,509
226069,509
226070,501
226071,494
226072,503
226073,519
226074,529
226075,529
226076,534
226077,528
226078,510
226079,506
226080,508
226081,507
226082,508
226083,513
226084,518
226085,501
226086,493
226087,489
226089,469
226091,449
226092,422
226093,415
226094,423
226095,429
226096,442
226097,449
226097,440
226098,440
226099,463
226100,470
226101,474
226102,481
226103,467
226104,465
226105,463
226106,466
226107,469
226108,464
226109,464
226110,451
226111,442
226112,450
226113,464
226114,467
226115,440
226116,419
226117,412
226118,412
226119,412
226120,395
226121,392
226123,377
226124,378
226125,373
226126,380
226127,383
226128,393
226129,402
226130,401
226131,409
226132,419
226134,424
226135,428
226136,421
226137,401
226138,389
226139,373
226139,373
226140,372
226141,364
226142,348
226143,348
226144,369
226145,377
226146,397
226147,405
226148,414
226149,412
226150,397
226151,393
226152,402
226153,409
226154,420
226155,437
226157,437
226158,425
226159,421
226160,403
226161,398
226162,403
226163,410
226164,409
226165,403
226166,414
226167,430
226168,427
226169,402
226170,388
226171,396
226172,415
226173,419
226174,424
226176,422
226177,414
226178,415
226179,423
226180,425
226181,429
226182,437
226182,438
226183,449
226184,467
226185,464
226186,467
226187,471
226188,486
226189,480
226191,462
226192,469
226193,468
226194,461
226195,449
226196,444
226197,420
226198,415
226199,427
226200,433
226201,447
226202,449
226203,434
226204,439
226205,449
226206,464
226207,471
226208,473
226209,476
226210,469
226211,462
226212,453
226213,443
226214,438
226215,432
226216,434
226217,441
226219,445
226220,445
226221,433
226222,421
226223,412
226224,416
226224,447
226226,476
226227,487
226228,486
226229,485
226230,487
226231,485
226232,476
226233,478
226234,473
226235,476
226236,475
226237,474
226238,459
226239,442
226240,450
226241,451
226242,457
226243,450
226244,459
226245,465
226246,477
226247,479
226248,480
226249,477
226250,469
226251,467
226252,454
226253,439
226254,444
226255,459
226256,469
226257,475
226258,479
226259,478
226262,473
226263,465
226264,456
226265,457
226266,464
226267,477
226267,477
226268,479
226269,493
226270,501
226271,498
226272,510
226273,520
226274,500
226275,484
226276,464
226277,449
226278,440
226279,427
226280,421
226281,430
226282,439
226283,448
226284,465
226285,472
226286,480
226287,489
226288,496
226289,484
226290,472
226291,467
226292,472
226294,487
226295,495
226296,501
226297,519
226298,523
226299,504
226300,477
226301,466
226302,453
226304,457
226305,481
226306,504
226307,513
226308,500
226309,487
226310,473
226310,453
226311,449
226312,449
226313,460
226314,467
226315,489
226316,510
226317,509
226318,504
226319,486
226320,487
226321,512
226322,519
226323,512
226324,490
226325,450
226326,433
226328,426
226329,433
226330,455
226331,484
226332,504
226333,516
226334,505
226335,494
226336,487
226337,494
226338,501
226339,506
226340,490
226341,490
226342,489
226343,491
226344,495
226345,501
226347,501
226348,502
226349,491
226350,467
226351,462
226352,465
226352,469
226353,480
226354,480
226355,484
226356,493
226357,501
226358,501
226359,488
226360,468
226362,466
226363,474
226364,498
226365,510
226366,506
226367,495
226368,483
226369,479
226370,469
226371,475
226372,483
226373,487
226374,484
226375,480
226376,475
226377,489
226378,502
226379,497
226380,479
226381,474
226382,486
226383,492
226384,496
226385,486
226386,466
226387,454
226388,457
226390,449
226391,436
226392,453
226393,480
226394,504
226395,519
226396,502
226397,493
226398,484
226399,483
226400,492
226401,522
226402,534
226403,536
226404,518
226405,492
226406,479
226407,487
226408,486
226409,479
226410,491
226411,505
226412,512
226413,524
226414,537
226415,536
226416,521
226417,505
226418,496
226419,482
226420,470
226421,484
226422,492
226423,483
226424,466
226425,468
226426,481
226427,479
226428,474
226429,468
226432,444
226433,456
226434,487
226435,503
226436,496
226437,484
226438,485
226438,485
226439,471
226440,477
226441,485
226442,484
226443,500
226444,509
226445,514
226446,518
226447,511
226448,501
226449,495
226450,491
226451,496
226452,502
226453,502
226454,499
226455,498
226456,487
226457,473
226458,473
226459,468
226460,456
226461,451
226462,444
226463,449
226465,468
226466,487
226467,493
226468,501
226469,510
226470,504
226471,505
226472,507
226473,510
226475,513
226476,514
226477,522
226478,529
226479,523
226480,513
226480,518
226481,528
226482,523
226483,520
226484,518
226485,503
226486,478
226487,467
226488,487
226489,477
226490,478
226491,486
226492,480
226493,491
226494,493
226495,498
226496,506
226497,502
226499,475
226500,464
226501,468
226502,470
226503,489
226504,502
226505,504
226506,502
226507,505
226508,503
226509,501
226510,503
226511,501
226512,487
226513,483
226514,487
226515,500
226516,501
226518,501
226519,504
226520,494
226521,490
226522,480
226523,473
226523,488
226524,485
226525,485
226526,494
226527,489
226528,474
226529,473
226530,477
226532,477
226533,485
226534,494
226535,509
226536,513
226537,504
226538,495
226539,476
226540,474
226541,485
226542,494
226543,512
226544,527
226545,538
226546,536
226547,531
226548,519
226549,504
226550,481
226551,459
226552,469
226553,485
226554,506
226555,506
226556,504
226557,516
226558,518
226560,507
226561,514
226562,518
226563,506
226564,510
226565,506
226566,496
226566,488
226568,518
226569,512
226570,501
226571,501
226572,499
226573,502
226574,495
226575,500
226576,521
226577,518
226578,493
226579,459
226580,468
226581,489
226582,481
226583,484
226584,481
226585,480
226586,483
226587,489
226588,482
226589,494
226590,497
226591,488
226592,482
226593,482
226594,490
226595,508
226596,507
226597,495
226598,490
226599,492
226600,505
226601,521
226603,536
226605,525
226606,528
226607,531
226608,529
226609,536
226609,544
226610,543
226611,538
226612,545
226613,544
226614,538
226615,541
226616,544
226617,550
226618,538
226619,520
226620,511
226621,518
226622,528
226623,531
226624,523
226625,520
226626,524
226627,531
226628,520
226629,498
226630,483
226631,496
226632,518
226633,536
226634,541
226635,543
226636,537
226638,521
226639,524
226640,517
226641,504
226642,491
226643,493
226644,485
226646,469
226647,456
226648,454
226649,448
226650,436
226651,443
226651,463
226652,479
226653,488
226654,490
226655,474
226656,456
226657,456
226658,467
226659,479
226660,489
226661,495
226662,475
226663,482
226664,483
226665,489
226666,480
226667,486
226668,486
226669,493
226670,497
226672,472
226673,476
226674,482
226675,478
226676,473
226677,455
226678,436
226679,450
226680,459
226681,464
226682,470
226683,472
226684,493
226685,509
226686,519
226688,527
226689,530
226690,549
226691,558
226692,545
226693,534
226694,530
226694,508
226695,481
226696,449
226697,425
226698,396
226699,398
226700,405
226701,433
226702,471
226703,493
226704,491
226706,515
226707,520
226708,513
226709,502
226710,485
226711,467
226712,463
226713,476
226714,483
226715,494
226716,499
226717,502
226718,511
226719,534
226720,545
226721,547
226722,558
226723,579
226724,608
226725,640
226726,664
226727,689
226728,712
226729,719
226731,741
226732,761
226733,784
226734,797
226735,825
226736,856
226736,891
226737,913
226738,948
226740,990
226741,989
226742,989
226743,989
226744,989
226745,989
226746,989
226747,989
226748,990
226749,968
226750,926
226751,875
226752,818
226753,735
226754,645
226755,578
226756,503
226757,444
226758,412
226759,379
226760,338
226761,308
226762,325
226763,349
226764,357
226765,354
226766,330
226767,311
226768,307
226769,319
226770,338
226771,346
226772,336
226774,325
226775,347
226777,391
226778,397
226779,390
226779,377
226780,367
226781,359
226782,376
226783,391
226784,387
226785,394
226786,410
226787,421
226788,429
226789,423
226790,424
226791,438
226792,458
226793,459
226794,450
226795,440
226796,445
226797,450
226798,432
226799,414
226800,398
226801,380
226802,397
226803,411
226804,425
226805,441
226806,455
226807,450
226809,437
226810,433
226811,429
226812,433
226813,454
226814,474
226816,475
226817,471
226818,455
226819,432
226820,405
226821,399
226822,397
226822,425
226823,449
226824,456
226825,461
226826,466
226827,461
226828,447
226829,443
226830,468
226831,496
226832,519
226833,526
226834,516
226835,500
226836,484
226837,478
226838,476
226839,489
226840,504
226841,508
226843,477
226844,467
226845,462
226846,458
226847,455
226848,452
226849,456
226850,470
226851,484
226852,505
226853,500
226854,494
226855,491
226856,492
226857,498
226859,490
226860,493
226861,495
226862,482
226863,489
226864,487
226864,487
226865,480
226866,486
226867,493
226868,488
226869,485
226870,497
226871,511
226872,519
226873,517
226874,513
226875,504
226877,499
226878,496
226879,490
226880,487
226881,485
226882,496
226883,513
226884,522
226885,525
226886,520
226887,509
226888,496
226889,512
226890,520
226891,520
226892,520
226893,510
226894,491
226895,492
226896,495
226897,501
226898,513
226899,531
226900,536
226902,536
226903,539
226904,530
226905,522
226906,509
226907,508
226907,514
226908,521
226910,527
226911,533
226912,535
226913,536
226914,542
226915,536
226916,548
226917,559
226918,550
226919,548
226920,570
226921,583
226922,595
226923,579
226924,551
226925,538
226926,544
226927,551
226928,540
226929,538
226930,552
226931,555
226932,552
226933,550
226934,570
226935,602
226936,607
226937,584
226938,535
226939,501
226940,512
226941,539
226942,573
226944,582
226945,577
226947,569
226948,577
226949,590
226949,597
226950,590
226951,577
226952,554
226953,544
226954,537
226955,542
226956,546
226957,561
226958,574
226959,570
226960,550
226961,539
226962,543
226963,551
226964,571
226965,587
226966,587
226967,578
226968,570
226969,569
226970,568
226971,565
226972,560
226973,553
226974,542
226975,540
226976,556
226977,572
226978,563
226980,546
226981,540
226982,524
226983,504
226984,506
226985,502
226987,522
226988,529
226989,533
226990,535
226991,543
226992,527
226992,521
226993,521
226994,525
226995,531
226996,521
226997,492
226998,487
226999,497
227000,512
227001,509
227002,506
227003,484
227004,473
227005,470
227006,472
227007,464
227008,471
227009,477
227010,471
227011,465
227012,460
227014,476
227015,482
227016,469
227017,446
227018,428
227019,422
227020,425
227021,429
227022,438
227023,423
227024,421
227025,434
227026,440
227027,433
227028,413
227030,407
227031,415
227032,422
227033,423
227034,430
227035,429
227035,418
227036,419
227037,425
227038,427
227039,433
227040,437
227041,434
227042,437
227043,425
227044,403
227045,387
227047,375
227048,366
227049,367
227050,371
227051,373
227052,391
227053,413
227054,413
227055,403
227056,391
227057,382
227058,394
227059,398
227060,395
227061,388
227062,394
227063,386
227064,400
227065,411
227066,417
227067,411
227068,405
227069,402
227070,406
227072,402
227073,386
227074,382
227075,394
227076,410
227077,414
227077,405
227078,403
227079,400
227081,390
227082,394
227083,404
227084,414
227085,413
227086,414
227087,417
227088,429
227089,446
227090,440
227091,432
227092,425
227093,443
227094,473
227095,485
227096,482
227097,473
227098,452
227099,438
227100,430
227101,421
227102,425
227103,430
227104,432
227105,431
227106,448
227107,464
227108,476
227109,486
227110,475
227111,459
227112,443
227113,450
227115,463
227116,442
227118,382
227119,388
227120,422
227120,449
227121,456
227122,447
227123,431
227124,427
227125,430
227126,432
227127,432
227128,436
227129,451
227130,469
227131,466
227132,438
227133,434
227134,429
227135,439
227136,444
227137,446
227138,459
227139,480
227140,483
227141,489
227142,488
227143,494
227144,487
227145,485
227146,477
227147,473
227148,466
227149,459
227151,445
227152,460
227153,472
227154,476
227155,469
227156,459
227158,448
227159,444
227160,454
227161,455
227162,446
227163,445
227163,455
227164,461
227165,473
227166,472
227167,464
227168,453
227169,447
227170,454
227171,479
227172,491
227173,488
227174,493
227175,486
227176,486
227177,496
227178,495
227179,489
227180,494
227181,506
227182,508
227184,478
227185,455
227186,432
227187,400
227188,389
227189,417
227190,454
227191,473
227192,482
227193,475
227194,460
227195,448
227196,439
227197,431
227198,438
227200,465
227201,492
227202,517
227203,523
227204,513
227205,499
227206,503
227206,513
227207,506
227208,495
227209,498
227210,508
227211,507
227212,487
227213,475
227214,478
227215,461
227216,450
227218,464
227219,472
227220,472
227221,480
227222,473
227223,469
227224,481
227225,491
227226,503
227227,498
227228,478
227229,462
227230,451
227231,448
227232,454
227233,449
227234,446
227235,456
227236,466
227237,467
227238,466
227239,472
227240,465
227241,466
227243,458
227244,461
227245,472
227246,469
227247,459
227248,462
227248,468
227249,486
227250,500
227252,503
227253,505
227254,506
227255,494
227256,478
227257,456
227258,454
227259,459
227260,447
227261,453
227262,451
227263,454
227264,448
227265,440
227266,444
227267,443
227268,465
227269,495
227270,515
227271,519
227272,520
227273,515
227274,508
227275,491
227276,478
227277,462
227278,460
227279,453
227280,452
227281,474
227282,489
227283,492
227284,479
227286,466
227287,468
227289,476
227290,489
227291,494
227291,490
227292,487
227293,497
227294,498
227295,498
227296,503
227297,503
227298,491
227299,469
227300,468
227301,473
227302,457
227303,447
227304,452
227305,459
227306,467
227307,476
227308,484
227309,486
227310,480
227311,470
227312,460
227313,451
227314,453
227315,468
227316,467
227317,463
227318,474
227319,480
227321,480
227322,469
227323,475
227324,479
227325,478
227326,480
227328,480
227329,489
227330,493
227331,492
227332,495
227333,502
227334,498
227334,489
227335,477
227336,468
227337,456
227338,445
227339,451
227340,460
227341,455
227342,451
227343,453
227344,458
227345,475
227346,489
227347,492
227348,494
227349,495
227350,491
227351,490
227352,483
227353,478
227355,462
227356,448
227357,449
227358,453
227359,456
227360,468
227361,492
227362,483
227363,473
227364,474
227365,473
227366,459
227367,456
227368,463
227369,460
227371,459
227372,476
227373,486
227374,476
227375,460
227376,456
227376,454
227377,455
227378,462
227379,469
227380,474
227381,492
227382,501
227383,516
227384,505
227385,483
227386,458
227387,430
227389,452
227390,473
227391,474
227392,477
227393,492
227394,506
227395,498
227396,475
227397,459
227398,451
227399,453
227400,457
227401,466
227402,476
227403,487
227404,491
227405,493
227406,488
227407,489
227408,491
227409,492
227410,489
227411,482
227412,496
227414,512
227415,511
227416,505
227417,486
227418,467
227419,459
227419,463
227420,473
227422,468
227423,464
227424,457
227425,457
227426,451
227427,436
227428,428
227429,436
227430,444
227431,452
227432,465
227433,488
227434,501
227435,503
227436,505
227437,513
227438,506
227439,491
227440,487
227441,494
227442,487
227443,479
227444,470
227445,465
227446,475
227447,491
227448,497
227449,492
227450,475
227451,459
227452,462
227453,486
227454,496
227456,477
227457,466
227459,468
227460,466
227461,467
227462,482
227462,498
227463,514
227464,521
227465,519
227466,504
227467,489
227468,494
227469,495
227470,501
227471,509
227472,521
227473,530
227474,535
227475,530
227476,536
227477,538
227478,540
227479,542
227480,548
227481,546
227482,522
227483,497
227484,491
227485,493
227486,490
227487,472
227488,462
227489,463
227490,476
227492,478
227493,478
227494,481
227495,461
227496,437
227497,427
227499,419
227500,426
227501,446
227502,456
227503,464
227504,475
227504,481
227505,492
227506,486
227507,467
227508,450
227509,446
227510,441
227511,452
227512,473
227513,481
227514,459
227515,435
227516,409
227517,397
227518,396
227519,389
227520,391
227521,385
227522,403
227523,418
227524,429
227526,442
227527,458
227528,465
227529,459
227530,460
227531,447
227532,450
227533,454
227534,460
227535,464
227536,459
227537,452
227538,450
227539,438
227540,432
227542,438
227543,449
227544,457
227545,455
227546,452
227547,445
227547,447
227548,460
227549,479
227550,494
227551,498
227552,506
227553,516
227554,506
227555,475
227556,451
227557,440
227559,424
227560,408
227561,401
227562,415
227563,432
227564,454
227565,467
227566,462
227567,456
227568,450
227569,450
227570,464
227571,478
227572,485
227573,484
227574,480
227575,476
227576,476
227577,492
227578,509
227579,526
227580,554
227581,562
227582,578
227584,584
227585,618
227586,645
227587,653
227588,669
227589,696
227589,726
227590,748
227591,770
227593,824
227594,856
227595,879
227596,908
227597,937
227598,968
227599,990
227600,990
227601,989
227602,990
227603,989
227604,990
227605,990
227606,988
227607,963
227608,909
227609,845
227610,771
227611,688
227612,590
227613,507
227614,429
227615,370
227616,325
227617,307
227618,303
227619,293
227620,292
227621,285
227622,288
227623,277
227624,271
227625,260
227627,251
227628,260
227630,296
227631,305
227632,329
227632,335
227633,330
227634,331
227635,345
227636,350
227637,360
227638,390
227639,402
227640,384
227641,355
227642,350
227643,350
227644,350
227645,351
227646,357
227647,372
227648,381
227649,387
227650,391
227651,403
227652,404
227653,408
227654,417
227655,411
227656,383
227657,364
227658,368
227659,375
227660,398
227661,405
227663,405
227664,399
227665,387
227666,389
227667,391
227668,402
227670,409
227671,405
227672,397
227673,402
227674,416
227675,412
227675,397
227676,382
227677,387
227678,399
227679,416
227680,430
227681,449
227682,450
227683,450
227684,441
227685,426
227686,423
227687,420
227688,421
227689,424
227690,418
227691,427
227692,451
227693,455
227694,447
227696,461
227697,464
227698,458
227699,467
227700,484
227701,466
227702,445
227703,429
227704,430
227705,441
227706,452
227707,448
227708,435
227709,428
227710,421
227712,411
227713,409
227714,424
227715,439
227716,446
227717,443
227718,438
227718,430
227719,431
227720,429
227721,432
227722,445
227723,462
227724,469
227725,447
227726,426
227727,433
227728,446
227730,454
227731,461
227732,465
227733,467
227734,475
227735,473
227736,466
227737,472
227738,477
227739,483
227740,482
227741,464
227742,461
227743,460
227744,449
227745,428
227746,440
227747,468
227748,491
227749,500
227750,495
227751,488
227752,486
227753,481
227755,476
227756,471
227757,464
227758,471
227759,480
227760,488
227760,498
227761,491
227762,480
227764,477
227765,482
227766,493
227767,504
227768,510
227769,519
227770,522
227771,519
227772,522
227773,517
227774,499
227775,476
227776,470
227777,477
227778,491
227779,497
227780,504
227781,500
227782,495
227783,503
227784,517
227785,512
227786,492
227787,501
227788,515
227789,524
227790,522
227791,511
227792,494
227793,487
227794,498
227795,498
227796,495
227798,503
227799,512
227801,541
227802,534
227803,530
227803,527
227804,519
227805,520
227806,508
227807,508
227808,518
227809,523
227810,535
227811,552
227812,557
227813,546
227814,531
227815,513
227816,507
227817,528
227818,529
227819,530
227820,536
227821,537
227822,537
227823,539
227824,541
227825,536
227826,521
227827,508
227828,515
227829,503
227830,491
227831,486
227833,520
227834,530
227835,525
227836,507
227837,496
227838,480
227840,488
227841,491
227842,480
227843,468
227844,447
227845,431
227846,416
227846,420
227847,436
227848,450
227849,464
227850,478
227851,485
227852,494
227853,502
227854,511
227855,522
227856,523
227857,511
227858,489
227859,472
227860,463
227861,453
227862,453
227863,456
227864,464
227865,457
227867,446
227868,425
227869,406
227870,397
227871,389
227872,386
227873,381
227874,371
227875,352
227876,351
227877,372
227878,384
227879,384
227880,373
227881,372
227883,374
227884,374
227885,377
227886,372
227887,378
227888,389
227888,395
227889,384
227890,380
227891,380
227892,376
227893,370
227894,351
227895,330
227896,327
227897,339
227898,355
227899,374
227901,370
227902,359
227903,361
227904,368
227905,370
227906,363
227907,348
227908,322
227909,300
227910,295
227911,302
227912,302
227913,302
227914,313
227915,324
227916,345
227917,347
227918,339
227919,353
227920,351
227921,345
227922,346
227923,345
227924,349
227926,341
227927,347
227928,380
227929,373
227930,378
227931,382
227931,397
227932,413
227934,382
227935,369
227936,371
227937,371
227938,368
227939,381
227940,379
227941,376
227942,385
227943,399
227944,401
227945,396
227946,393
227947,392
227948,383
227949,374
227950,368
227951,373
227952,380
227953,370
227954,360
227955,339
227956,331
227957,350
227958,368
227959,401
227960,417
227961,409
227962,389
227963,388
227964,385
227965,377
227966,371
227968,370
227969,372
227971,394
227972,415
227973,420
227973,406
227974,394
227975,392
227976,398
227977,411
227978,396
227979,400
227980,404
227981,405
227982,399
227983,391
227984,392
227985,386
227986,402
227987,424
227988,434
227989,434
227990,433
227991,405
227992,389
227993,386
227994,386
227995,390
227996,400
227997,412
227998,419
227999,422
228000,424
228001,436
228002,443
228004,433
228005,436
228006,441
228007,442
228008,430
228009,427
228011,431
228012,427
228013,423
228014,436
228015,448
228016,439
228016,433
228017,449
228018,459
228019,468
228020,457
228021,441
228022,422
228023,403
228024,397
228025,409
228026,430
228027,445
228028,441
228029,432
228030,433
228031,428
228032,429
228033,432
228034,437
228035,431
228036,423
228038,408
228039,417
228040,421
228041,425
228042,415
228043,419
228044,439
228045,442
228046,443
228047,444
228048,431
228049,426
228050,440
228051,453
228052,450
228054,447
228055,437
228056,427
228057,423
228058,422
228059,424
228059,437
228060,434
228061,429
228062,431
228063,435
228064,445
228065,443
228066,436
228067,426
228068,417
228069,419
228071,419
228072,428
228073,433
228074,431
228075,431
228076,435
228077,432
228078,444
228079,458
228080,450
228081,447
228082,457
228083,468
228084,463
228085,452
228086,453
228087,460
228088,464
228089,462
228090,459
228091,451
228092,450
228093,438
228094,419
228096,396
228097,391
228098,403
228099,406
228100,428
228101,446
228101,464
228102,460
228103,458
228105,453
228106,449
228107,457
228108,468
228109,479
228110,491
228111,496
228112,483
228113,460
228114,437
228115,434
228116,434
228117,441
228118,450
228119,457
228120,449
228121,429
228122,415
228123,405
228124,408
228125,426
228126,453
228127,447
228128,431
228129,406
228130,397
228131,413
228132,433
228133,437
228134,435
228135,434
228136,432
228137,433
228139,455
228140,477
228142,475
228143,468
228144,456
228144,434
228145,418
228146,412
228147,421
228148,442
228149,445
228150,452
228151,457
228152,456
228153,453
228154,453
228155,451
228156,450
228157,449
228158,441
228159,442
228160,441
228161,439
228162,433
228163,449
228164,461
228165,438
228166,433
228167,439
228168,447
228169,450
228170,460
228171,460
228172,465
228173,472
228175,471
228176,471
228177,465
228178,474
228179,495
228180,504
228182,501
228183,499
228184,492
228185,479
228186,473
228187,475
228187,480
228188,490
228189,490
228190,478
228191,468
228192,458
228193,449
228194,442
228195,454
228196,460
228197,457
228198,459
228199,455
228200,448
228201,441
228202,431
228203,413
228204,377
228205,357
228206,355
228208,399
228209,427
228210,452
228211,464
228212,465
228213,460
228214,455
228215,454
228216,463
228217,471
228218,489
228219,499
228220,508
228221,517
228222,517
228224,509
228225,496
228226,484
228227,472
228228,471
228229,463
228229,454
228230,442
228231,440
228232,441
228233,444
228234,441
228235,439
228236,435
228237,433
228238,445
228239,441
228240,431
228242,430
228243,450
228244,472
228245,492
228246,497
228247,494
228248,497
228249,504
228250,499
228251,497
228252,479
228253,462
228254,459
228255,457
228256,456
228257,447
228258,456
228259,473
228260,484
228261,485
228262,482
228263,469
228264,459
228265,436
228267,430
228268,442
228269,460
228270,476
228271,485
228272,480
228272,472
228273,469
228274,464
228276,467
228277,476
228278,506
228279,519
228280,517
228281,499
228282,479
228283,464
228284,434
228285,419
228286,433
228287,454
228288,460
228289,453
228290,447
228291,451
228292,461
228293,469
228294,467
228295,464
228296,466
228297,466
228298,480
228299,473
228300,465
228301,461
228302,458
228303,452
228304,445
228305,441
228306,441
228307,447
228308,469
228310,493
228311,508
228313,479
228314,461
228315,455
228315,450
228316,450
228317,456
228318,482
228319,490
228320,486
228321,473
228322,471
228323,478
228324,478
228325,456
228326,456
228327,457
228328,457
228329,460
228330,467
228331,479
228332,493
228333,511
228334,504
228335,488
228336,467
228337,460
228338,473
228339,472
228340,475
228341,470
228342,474
228343,481
228344,481
228346,484
228347,498
228348,503
228349,504
228350,507
228352,511
228353,504
228354,480
228355,471
228356,472
228357,479
228358,488
228358,504
228359,505
228360,489
228361,462
228362,448
228363,442
228364,451
228365,470
228366,482
228367,494
228368,511
228369,525
228370,528
228371,535
228372,545
228373,533
228374,498
228375,467
228376,473
228377,486
228379,490
228380,489
228381,490
228382,481
228383,487
228384,490
228385,494
228386,498
228387,498
228388,497
228389,497
228390,502
228391,516
228392,526
228393,517
228395,512
228396,524
228397,515
228398,493
228399,493
228400,500
228400,511
228401,517
228402,513
228403,510
228404,505
228405,500
228406,498
228407,493
228408,497
228409,497
228410,493
228411,485
228413,487
228414,482
228415,488
228416,500
228417,514
228418,529
228419,515
228420,498
228421,481
228422,469
228423,464
228424,460
228425,454
228426,459
228427,475
228428,481
228429,481
228430,472
228431,464
228432,449
228433,427
228434,409
228435,408
228436,413
228438,418
228439,438
228440,428
228441,420
228442,434
228443,464
228443,486
228444,485
228446,496
228447,497
228448,498
228449,487
228450,486
228451,491
228452,483
228453,470
228454,477
228455,496
228456,502
228457,493
228458,482
228459,470
228460,479
228461,482
228462,458
228463,434
228464,422
228465,422
228466,440
228467,453
228468,459
228469,466
228470,459
228471,448
228472,455
228473,455
228474,440
228475,442
228476,457
228477,476
228478,488
228480,485
228481,478
228483,478
228484,495
228485,492
228486,484
228486,494
228487,505
228488,493
228489,498
228490,522
228491,550
228492,562
228493,558
228494,554
228495,555
228496,563
228497,568
228498,564
228499,554
228500,562
228501,584
228502,595
228503,608
228504,632
228505,669
228506,703
228507,729
228508,750
228509,773
228510,810
228511,844
228512,872
228513,911
228514,958
228516,990
228517,989
228518,988
228519,989
228520,988
228521,988
228523,988
228524,988
228525,989
228526,989
228527,990
228528,911
228528,825
228529,743
228530,642
228531,547
228532,473
228533,414
228534,366
228535,329
228536,308
228537,296
228538,282
228539,271
228540,271
228541,259
228542,242
228543,233
228544,249
228545,296
228546,330
228547,346
228548,364
228550,366
228551,374
228552,381
228553,400
228554,420
228555,445
228556,464
228557,460
228558,456
228559,431
228560,409
228561,394
228562,387
228563,396
228564,409
228566,418
228567,414
228568,410
228569,423
228570,419
228571,408
228571,402
228572,408
228573,404
228574,411
228575,419
228576,406
228577,396
228578,393
228579,399
228580,403
228581,403
228583,383
228584,376
228585,385
228586,407
228587,431
228588,445
228589,442
228590,435
228591,433
228592,434
228593,433
228594,436
228595,440
228596,454
228597,466
228598,472
228599,469
228600,452
228601,441
228602,438
228603,430
228604,440
228605,456
228606,466
228608,487
228609,493
228610,480
228611,464
228612,450
228613,438
228613,448
228614,465
228615,469
228617,482
228618,483
228619,476
228620,465
228621,469
228622,474
228623,479
228624,484
228625,478
228626,464
228627,461
228628,460
228629,456
228630,462
228631,469
228632,475
228633,478
228634,487
228635,495
228636,500
228637,508
228638,513
228639,519
228640,514
228641,503
228642,486
228643,475
228644,487
228645,496
228646,481
228647,493
228648,510
228649,506
228651,498
228652,508
228654,496
228655,467
228656,460
228656,472
228657,500
228658,508
228659,510
228660,501
228661,498
228662,506
228663,504
228664,493
228665,495
228666,502
228667,519
228668,530
228669,529
228670,531
228671,536
228672,524
228673,501
228674,489
228675,485
228676,493
228677,515
228678,527
228679,530
228680,529
228681,514
228682,506
228683,513
228684,538
228685,552
228687,564
228688,566
228689,569
228690,573
228691,567
228692,552
228694,530
228695,524
228696,528
228697,528
228698,545
228699,534
228699,519
228700,509
228701,520
228702,529
228703,520
228704,522
228705,534
228706,551
228707,575
228708,580
228709,569
228710,558
228711,544
228712,522
228713,528
228714,553
228715,566
228716,569
228717,590
228718,594
228720,595
228721,591
228722,563
228723,553
228724,573
228725,590
228726,591
228727,570
228728,556
228729,559
228730,558
228731,551
228732,551
228733,560
228734,563
228736,558
228737,553
228738,552
228739,542
228740,530
228741,518
228742,516
228742,520
228743,518
228744,522
228745,524
228746,533
228747,551
228748,566
228749,572
228750,574
228751,573
228752,562
228754,564
228755,562
228756,563
228757,573
228758,565
228759,564
228760,549
228761,521
228762,501
228763,501
228764,511
228765,525
228766,520
228767,517
228768,509
228769,508
228770,515
228771,516
228772,508
228773,504
228774,513
228775,522
228776,521
228777,521
228779,502
228780,483
228781,476
228782,469
228783,457
228784,449
228784,441
228785,452
228786,478
228788,503
228789,497
228790,482
228791,450
228792,418
228793,411
228794,419
228795,427
228796,444
228797,460
228798,453
228799,448
228800,440
228801,441
228802,445
228803,444
228804,450
228805,448
228806,459
228807,463
228808,455
228809,438
228810,421
228811,410
228812,379
228813,352
228814,343
228815,354
228816,374
228817,402
228818,409
228819,413
228820,422
228822,414
228823,391
228825,381
228826,402
228827,417
228827,410
228828,402
228829,412
228830,419
228831,422
228832,409
228833,398
228834,384
228835,380
228836,391
228837,407
228838,408
228839,400
228840,400
228841,413
228842,414
228843,414
228844,424
228845,432
228846,433
228847,432
228848,438
228849,447
228850,444
228851,429
228852,408
228853,400
228854,404
228855,405
228856,405
228857,419
228859,426
228860,415
228861,411
228862,404
228864,400
228865,402
228866,405
228867,418
228868,434
228869,448
228870,442
228870,426
228871,416
228872,412
228873,406
228874,416
228875,435
228876,455
228877,485
228878,489
228879,471
228880,455
228881,457
228882,453
228883,446
228884,470
228885,483
228886,479
228887,472
228888,466
228889,461
228890,446
228891,435
228893,428
228894,429
228895,420
228896,416
228897,424
228898,434
228899,439
228900,444
228901,432
228902,419
228903,415
228904,425
228905,432
228907,457
228908,474
228909,473
228910,467
228911,459
228912,460
228913,478
228913,493
228914,493
228915,495
228916,496
228917,497
228918,490
228919,491
228920,486
228921,480
228922,465
228923,463
228924,481
228925,485
228927,481
228928,484
228929,487
228930,475
228931,476
228932,471
228933,466
228934,475
228935,485
228936,477
228937,471
228938,467
228939,460
228940,459
228941,462
228942,450
228943,441
228944,446
228945,460
228946,473
228947,483
228948,481
228950,477
228951,475
228952,481
228953,481
228954,483
228955,483
228955,488
228956,497
228957,493
228958,490
228959,490
228961,473
228962,464
228963,481
228964,511
228965,536
228966,534
228967,515
228968,490
228969,475
228970,472
228971,472
228972,462
228973,443
228974,430
228975,427
228976,437
228977,448
228978,460
228979,451
228980,443
228981,446
228982,456
228983,481
228984,494
228985,497
228986,495
228987,490
228988,497
228989,515
228990,521
228992,515
228993,502
228994,493
228995,497
228996,503
228998,497
228998,493
228999,511
229000,534
229001,539
229002,517
229003,489
229004,483
229005,480
229006,491
229007,506
229008,509
229009,507
229010,504
229011,490
229012,482
229013,471
229014,463
229015,462
229016,482
229017,493
229018,486
229019,468
229020,459
229021,451
229022,451
229023,454
229024,462
229025,475
229026,483
229027,490
229028,498
229029,497
229031,489
229032,487
229033,471
229035,480
229036,501
229037,517
229038,511
229039,507
229040,502
229040,503
229041,489
229042,472
229043,468
229044,476
229045,486
229046,492
229047,495
229048,493
229049,474
229050,448
229051,437
229052,434
229053,449
229054,485
229055,506
229056,516
229057,508
229058,511
229059,511
229060,510
229061,512
229062,509
229063,494
229065,487
229066,492
229067,496
229068,494
229069,487
229070,488
229071,495
229072,500
229073,495
229074,502
229075,500
229076,518
229078,512
229079,505
229080,497
229081,505
229082,518
229083,519
229083,504
229084,495
229085,495
229086,487
229087,487
229088,487
229089,497
229090,503
229091,497
229092,489
229093,491
229094,492
229095,491
229096,494
229098,492
229099,504
229100,507
229101,487
229102,469
229103,475
229104,497
229105,506
229106,507
229107,510
229108,506
229109,510
229110,513
229111,491
229112,470
229113,481
229114,508
229115,523
229116,532
229117,530
229118,524
229120,516
229121,508
229122,496
229123,490
229124,494
229125,500
229125,495
229126,493
229127,491
229128,499
229129,498
229130,479
229132,457
229133,472
229134,484
229135,492
229136,509
229137,504
229138,511
229139,526
229140,513
229141,489
229142,466
229143,455
229144,466
229145,480
229146,488
229147,497
229148,521
229149,523
229150,510
229151,499
229152,477
229153,460
229154,471
229155,488
229156,504
229157,502
229158,508
229159,516
229160,523
229161,521
229163,517
229164,504
229165,509
229166,520
229167,516
229168,518
229169,514
229170,506
229171,493
229172,480
229173,475
229174,474
229175,482
229176,501
229177,504
229178,505
229179,503
229180,499
229181,497
229182,492
229183,484
229184,496
229185,512
229186,514
229187,515
229188,506
229189,511
229190,522
229191,527
229192,536
229193,543
229194,540
229195,533
229196,541
229197,534
229198,526
229199,515
229200,498
229202,486
229203,493
229204,493
229206,491
229207,477
229208,471
229209,481
229210,495
229211,500
229211,490
229212,473
229213,468
229214,467
229215,468
229216,471
229217,466
229218,468
229219,478
229220,506
229221,525
229222,528
229223,510
229224,509
229225,514
229226,515
229227,517
229228,511
229229,511
229230,496
229231,485
229232,487
229233,485
229235,509
229236,526
229237,525
229238,535
229239,542
229240,538
229241,514
229242,486
229243,478
229244,490
229245,499
229246,502
229248,508
229249,519
229250,509
229251,487
229252,471
229253,474
229254,497
229254,519
229255,528
229256,539
229257,533
229258,527
229259,521
229260,515
229261,502
229262,482
229263,486
229264,493
229265,499
229266,505
229267,507
229269,498
229270,495
229271,500
229272,502
229273,497
229274,499
229275,508
229276,521
229277,507
229278,485
229279,481
229280,475
229281,473
229282,481
229283,497
229284,513
229285,532
229286,539
229287,534
229288,519
229289,509
229291,509
229292,511
229293,496
229294,484
229295,481
229296,500
229296,506
229297,501
229298,493
229299,492
229300,491
229301,489
229303,503
229304,521
229305,537
229306,540
229307,538
229308,530
229309,526
229310,518
229311,518
229312,510
229313,497
229314,491
229315,503
229316,520
229317,527
229318,509
229319,488
229320,494
229321,497
229322,485
229323,476
229324,463
229325,450
229326,437
229327,449
229328,473
229329,494
229330,518
229331,529
229332,527
229334,520
229335,503
229336,503
229337,520
229339,536
229339,542
229340,545
229341,538
229342,525
229343,511
229344,503
229345,503
229346,512
229347,516
229348,521
229349,514
229350,503
229351,494
229352,500
229353,515
229354,532
229355,544
229356,530
229357,518
229358,517
229359,519
229360,517
229361,511
229362,497
229363,498
229364,492
229365,479
229366,467
229367,472
229368,478
229369,482
229370,489
229372,484
229373,493
229374,502
229376,515
229377,529
229378,534
229379,515
229380,507
229381,511
229382,527
229382,533
229383,531
229384,532
229385,533
229386,529
229387,535
229388,541
229389,540
229390,531
229391,532
229392,533
229393,544
229394,537
229395,521
229396,504
229397,488
229398,483
229399,489
229400,495
229401,509
229402,524
229403,532
229404,536
229406,542
229407,547
229408,552
229409,555
229410,556
229411,549
229412,552
229413,561
229414,558
229415,585
229416,587
229417,560
229419,537
229420,532
229421,540
229422,547
229423,556
229424,553
229424,549
229425,555
229426,550
229427,537
229428,531
229429,528
229430,534
229431,535
229432,532
229433,538
229434,520
229435,505
229436,479
229437,474
229438,482
229440,466
229441,466
229442,454
229443,452
229444,456
229445,473
229446,473
229447,461
229448,458
229449,470
229450,479
229451,478
229452,486
229453,495
229454,494
229455,493
229456,471
229457,467
229458,474
229459,474
229460,476
229462,488
229463,506
229464,505
229465,499
229466,508
229467,515
229467,506
229468,490
229469,481
229470,474
229471,456
229473,454
229474,476
229475,497
229476,496
229477,501
229478,498
229479,496
229480,489
229481,473
229482,470
229483,488
229484,503
229485,518
229486,520
229487,518
229488,519
229489,519
229490,512
229491,504
229492,503
229493,500
229494,492
229495,493
229496,488
229497,497
229498,504
229499,508
229500,508
229501,522
229502,522
229504,524
229505,531
229506,540
229507,539
229508,539
229510,521
229510,517
229511,522
229512,514
229513,506
229514,503
229515,529
229516,559
229517,581
229518,584
229519,602
229520,633
229521,661
229522,694
229523,730
229524,760
229525,789
229526,794
229527,806
229528,834
229529,872
229530,914
229531,959
229532,988
229533,990
229534,989
229535,989
229536,988
229537,989
229538,989
229539,988
229540,989
229541,989
229543,989
229544,990
229545,926
229547,857
229548,774
229549,681
229550,589
229551,521
229552,471
229552,432
229553,393
229554,361
229555,340
229556,313
229557,309
229558,302
229559,292
229560,289
229561,294
229562,295
229563,299
229564,316
229565,340
229566,366
229567,379
229568,378
229569,369
229570,372
229571,382
229572,393
229573,413
229574,432
229575,446
229577,443
229578,438
229579,418
229580,398
229581,390
229582,391
229583,410
229584,429
229585,442
229586,445
229587,443
229588,440
229590,440
229591,432
229592,415
229593,401
229594,402
229595,413
229595,436
229596,434
229597,417
229598,420
229599,438
229600,452
229601,451
229602,437
229603,441
229604,464
229605,469
229606,456
229607,459
229608,465
229610,459
229611,456
229612,468
229613,474
229614,454
229615,443
229616,440
229617,450
229618,460
229619,454
229620,440
229621,425
229622,426
229623,436
229624,440
229625,444
229626,439
229627,446
229628,461
229629,470
229630,469
229632,470
229633,472
229634,482
229635,493
229636,505
229637,507
229638,492
229638,481
229639,488
229640,486
229641,484
229642,481
229644,470
229645,483
229646,502
229647,520
229648,523
229649,521
229650,509
229651,486
229652,473
229653,479
229654,499
229655,521
229656,515
229657,502
229658,499
229659,502
229660,493
229661,484
229662,487
229663,499
229664,497
229665,485
229666,475
229667,470
229668,477
229669,487
229670,492
229671,499
229672,514
229673,519
229675,519
229676,534
229677,537
229678,525
229679,526
229680,527
229681,535
229682,542
229683,534
229684,523
229685,514
229686,514
229687,520
229688,528
229689,525
229690,504
229691,481
229692,468
229693,486
229694,516
229695,542
229696,550
229697,552
229698,557
229699,561
229700,557
229701,548
229702,547
229703,558
229704,574
229705,577
229706,572
229707,570
229708,567
229709,555
229710,536
229711,527
229712,543
229714,540
229715,544
229716,542
229718,526
229719,515
229720,518
229721,524
229722,529
229723,524
229723,526
229724,536
229725,547
229726,570
229727,576
229728,574
229729,571
229730,566
229731,563
229732,560
229733,563
229734,576
229735,582
229736,582
229737,563
229738,554
229739,553
229740,549
229741,541
229742,539
229743,548
229744,555
229745,561
229747,561
229748,548
229749,543
229750,544
229751,546
229752,561
229753,576
229754,595
229755,594
229756,591
229757,595
229758,589
229760,583
229761,564
229762,539
229763,524
229764,524
229765,548
229765,566
229766,564
229767,541
229768,524
229769,535
229770,545
229771,548
229772,547
229773,545
229774,560
229775,559
229776,550
229777,543
229778,532
229779,535
229781,549
229782,558
229783,567
229784,549
229785,533
229786,532
229787,537
229788,536
229789,520
229790,504
229791,485
229792,487
229793,488
229794,500
229795,512
229796,512
229797,512
229798,517
229799,500
229800,470
229801,449
229803,446
229804,459
229805,481
229806,486
229807,483
229808,477
229808,478
229809,484
229810,477
229811,460
229812,453
229813,446
229815,424
229816,409
229817,402
229818,410
229819,428
229820,439
229821,439
229822,437
229823,430
229824,432
229825,427
229826,416
229827,413
229828,417
229829,411
229830,401
229831,389
229832,382
229833,387
229834,412
229835,433
229836,430
229837,421
229838,416
229839,408
229840,402
229841,403
229842,409
229843,407
229844,400
229846,412
229847,438
229848,446
229849,435
229851,400
229851,386
229852,398
229853,400
229854,417
229855,423
229856,437
229857,433
229858,416
229859,405
229860,388
229861,376
229862,378
229863,400
229864,418
229865,422
229866,426
229867,430
229868,415
229869,411
229870,408
229871,397
229872,389
229873,396
229874,425
229875,435
229876,432
229877,410
229878,398
229879,402
229880,397
229881,398
229882,410
229884,400
229885,400
229886,414
229888,424
229889,435
229890,439
229891,422
229892,426
229893,425
229894,417
229894,427
229895,419
229896,403
229897,397
229898,409
229899,419
229900,424
229901,433
229902,444
229903,450
229904,459
229905,463
229906,458
229907,446
229908,439
229909,438
229910,446
229911,449
229912,460
229913,459
229914,471
229915,459
229916,447
229918,442
229919,449
229920,462
229921,470
229922,467
229923,456
229924,439
229925,434
229926,426
229927,429
229928,438
229929,439
229931,445
229932,443
229933,448
229934,464
229935,481
229936,484
229936,488
229937,482
229938,467
229939,461
229940,460
229941,464
229942,476
229943,487
229944,490
229945,498
229946,492
229947,470
229948,453
229949,456
229950,453
229952,458
229953,455
229954,453
229955,441
229956,428
229957,428
229958,437
229959,441
229960,437
229961,432
229962,425
229963,424
229964,436
229965,448
229966,457
229967,458
229968,463
229969,472
229970,479
229971,472
229972,466
229974,473
229975,489
229976,488
229977,492
229978,495
229979,494
229979,480
229980,473
229981,469
229982,472
229983,481
229985,504
229986,505
229987,501
229988,479
229989,466
229990,474
229991,482
229992,479
229993,475
229994,491
229995,490
229996,483
229997,468
229998,463
229999,458
230000,448
230001,442
230002,450
230003,468
230004,460
230005,459
230006,461
230007,460
230008,465
230009,463
230010,468
230011,475
230012,487
230013,510
230014,514
230016,492
230017,462
230018,438
230019,414
230020,398
230021,439
230022,469
230023,496
230024,501
230025,494
230026,479
230027,459
230028,460
230029,464
230030,468
230031,476
230032,475
230033,466
230034,467
230035,459
230036,454
230037,457
230038,464
230039,453
230040,447
230041,456
230042,476
230043,492
230044,491
230045,486
230046,477
230047,469
230048,464
230049,455
230050,453
230051,477
230052,475
230053,455
230055,463
230056,471
230057,483
230059,487
230060,490
230061,496
230062,503
230063,516
230064,522
230064,516
230065,502
230066,493
230067,490
230068,492
230069,491
230070,489
230071,497
230072,498
230073,501
230074,509
230075,495
230076,473
230077,454
230078,432
230079,417
230080,412
230081,432
230082,461
230083,486
230084,502
230085,500
230086,484
230087,471
230089,470
230090,470
230091,468
230092,471
230093,476
230094,478
230095,463
230096,447
230097,459
230098,471
230099,465
230100,451
230102,461
230103,461
230104,468
230105,466
230106,458
230107,454
230107,456
230108,454
230109,459
230110,465
230111,473
230112,487
230113,506
230114,514
230115,520
230116,527
230117,526
230118,511
230119,496
230120,494
230122,495
230123,466
230124,441
230125,442
230126,448
230127,448
230128,465
230129,469
230130,469
230131,474
230132,468
230133,487
230134,504
230135,504
230136,491
230137,489
230138,492
230139,493
230140,491
230141,491
230142,491
230144,498
230145,501
230146,494
230147,490
230148,493
230149,497
230150,488
230150,475
230151,478
230152,485
230153,498
230154,506
230156,486
230157,478
230158,467
230159,463
230160,466
230161,472
230162,474
230163,473
230164,467
230165,467
230166,458
230167,448
230168,447
230169,452
230170,449
230171,447
230172,454
230173,473
230174,480
230175,483
230176,477
230177,479
230178,483
230179,485
230180,485
230181,481
230182,478
230183,498
230184,500
230185,496
230187,489
230188,473
230189,479
230190,484
230191,493
230192,502
230193,507
230194,495
230195,485
230196,471
230197,456
230198,460
230199,469
230200,482
230201,504
230202,514
230203,517
230204,503
230205,485
230206,474
230207,464
230208,454
230209,444
230210,443
230211,455
230212,473
230213,488
230214,477
230215,472
230216,475
230217,475
230218,466
230219,461
230220,462
230221,476
230222,482
230223,493
230224,506
230226,487
230227,477
230228,480
230230,485
230231,477
230232,474
230233,471
230234,471
230235,483
230235,504
230236,501
230237,488
230238,483
230239,474
230240,476
230241,502
230242,511
230243,505
230244,502
230245,491
230246,478
230247,459
230248,444
230249,445
230250,459
230251,472
230252,482
230253,500
230254,496
230255,492
230256,491
230257,498
230259,501
230260,475
230261,459
230262,475
230263,489
230264,484
230265,482
230266,481
230267,495
230268,479
230269,454
230270,457
230272,475
230273,487
230274,492
230275,483
230276,484
230277,470
230278,471
230278,481
230279,479
230280,463
230281,451
230282,457
230283,475
230284,487
230285,488
230286,483
230287,476
230288,463
230289,467
230290,485
230291,496
230293,515
230294,514
230295,510
230296,495
230297,477
230298,482
230299,489
230300,500
230301,511
230302,513
230303,492
230304,465
230305,455
230306,466
230307,470
230308,462
230309,451
230310,452
230311,470
230312,486
230313,517
230315,536
230316,532
230317,513
230318,490
230319,473
230320,465
230320,458
230321,461
230322,458
230323,462
230324,472
230325,480
230327,487
230328,485
230329,471
230330,463
230331,471
230332,489
230333,513
230334,506
230335,491
230336,482
230337,483
230338,480
230339,470
230340,477
230341,485
230342,488
230343,490
230344,488
230345,487
230346,495
230347,495
230348,498
230349,501
230350,495
230351,487
230352,490
230353,505
230354,495
230355,488
230356,477
230358,464
230359,463
230360,473
230361,481
230363,492
230363,496
230364,496
230365,493
230366,501
230367,485
230368,472
230369,469
230370,463
230371,456
230372,451
230373,470
230374,479
230375,492
230376,509
230377,523
230378,520
230379,507
230380,486
230381,469
230382,476
230383,494
230384,505
230385,502
230386,501
230387,504
230388,496
230389,476
230390,458
230391,448
230392,460
230393,490
230394,498
230396,498
230397,502
230398,505
230400,502
230401,491
230402,486
230403,496
230404,517
230405,536
230405,531
230406,526
230407,507
230408,483
230409,483
230410,497
230411,507
230412,513
230413,515
230414,497
230415,497
230416,500
230417,499
230418,502
230419,505
230420,514
230421,514
230422,516
230423,522
230424,521
230425,513
230426,515
230427,520
230428,517
230429,515
230431,518
230432,531
230433,538
230434,542
230435,555
230436,561
230437,553
230438,526
230439,497
230440,486
230441,492
230443,503
230444,510
230445,518
230446,527
230447,525
230448,512
230448,495
230449,478
230450,471
230451,462
230452,461
230453,457
230454,447
230455,451
230456,466
230457,473
230458,467
230459,448
230460,444
230461,464
230462,483
230464,480
230465,488
230466,486
230467,464
230468,450
230469,459
230470,473
230471,475
230472,485
230473,509
230474,514
230475,481
230476,449
230477,433
230478,438
230479,436
230480,440
230481,443
230482,451
230483,455
230484,457
230486,463
230487,466
230488,467
230489,471
230490,464
230491,459
230491,464
230492,482
230493,507
230494,507
230495,497
230497,461
230498,455
230499,469
230500,479
230501,483
230502,489
230503,494
230504,486
230505,484
230506,478
230507,471
230508,466
230509,467
230510,489
230511,496
230512,492
230513,495
230514,489
230515,488
230516,495
230517,504
230518,499
230519,488
230520,479
230521,469
230522,469
230523,471
230524,467
230525,479
230526,499
230528,510
230529,514
230530,516
230531,522
230532,540
230533,588
230534,605
230535,615
230536,613
230537,623
230538,644
230539,674
230540,722
230541,771
230542,808
230543,832
230544,853
230545,885
230546,895
230547,916
230548,958
230549,990
230550,989
230551,989
230552,989
230553,988
230554,988
230555,988
230556,988
230557,989
230558,989
230559,989
230560,982
230561,900
230562,815
230563,725
230564,617
230565,518
230567,379
230568,342
230569,321
230571,301
230572,292
230573,289
230574,290
230575,292
230576,294
230576,310
230577,322
230578,308
230579,318
230580,345
230581,361
230582,373
230583,370
230584,379
230585,387
230586,386
230587,376
230588,374
230589,385
230590,388
230591,379
230592,397
230593,404
230594,413
230595,412
230596,413
230597,420
230598,418
230599,423
230601,433
230602,422
230603,411
230604,410
230605,409
230606,405
230607,404
230608,400
230609,393
230610,378
230611,385
230612,405
230614,413
230615,420
230616,419
230617,422
230618,429
230619,412
230619,398
230620,398
230621,391
230622,401
230623,420
230624,428
230625,442
230626,445
230627,439
230628,435
230629,422
230630,428
230631,431
230632,443
230634,472
230635,475
230636,471
230637,457
230638,435
230639,441
230640,456
230641,457
230642,462
230643,472
230644,472
230645,472
230646,469
230647,452
230648,440
230649,440
230650,451
230651,467
230652,488
230653,489
230654,486
230656,476
230657,471
230658,484
230659,483
230660,475
230661,470
230662,475
230662,485
230663,482
230664,476
230665,487
230666,491
230668,486
230669,483
230670,493
230671,499
230672,510
230673,500
230674,488
230675,486
230676,483
230677,474
230678,474
230679,482
230680,490
230681,495
230682,493
230683,494
230684,496
230685,486
230686,478
230687,484
230688,488
230689,479
230690,471
230691,472
230692,505
230693,524
230694,529
230695,520
230696,515
230697,506
230699,507
230700,512
230701,515
230702,521
230703,534
230704,524
230705,521
230706,519
230707,518
230708,510
230709,500
230710,497
230711,508
230712,530
230713,525
230714,530
230715,522
230716,506
230717,498
230718,484
230719,482
230720,484
230721,487
230722,490
230723,497
230724,501
230725,504
230726,518
230727,527
230728,536
230729,540
230730,535
230731,547
230732,579
230733,580
230734,582
230735,586
230736,581
230738,558
230739,564
230740,579
230742,580
230743,570
230744,560
230745,549
230746,543
230747,543
230747,546
230748,543
230749,545
230750,551
230751,547
230752,552
230753,550
230754,552
230755,547
230756,536
230757,544
230758,567
230759,577
230760,588
230761,589
230762,587
230763,582
230764,576
230765,560
230766,543
230767,532
230768,522
230769,526
230771,561
230772,587
230773,584
230774,576
230775,568
230776,562
230777,556
230778,547
230779,535
230780,534
230781,542
230782,547
230784,554
230785,550
230786,541
230787,536
230788,531
230789,534
230790,548
230790,552
230791,551
230792,555
230793,538
230794,516
230795,505
230796,508
230797,500
230798,500
230799,509
230800,512
230801,500
230802,494
230803,495
230805,484
230806,493
230807,504
230808,499
230809,493
230810,510
230811,528
230812,537
230813,540
230814,538
230815,526
230816,509
230817,478
230818,464
230819,471
230820,485
230821,492
230822,478
230823,468
230824,451
230825,435
230827,430
230828,432
230829,420
230830,421
230831,424
230832,438
230832,444
230833,436
230834,439
230835,450
230836,446
230837,428
230839,402
230840,395
230841,409
230842,411
230843,407
230844,410
230845,412
230846,415
230847,416
230848,411
230849,410
230850,409
230851,414
230852,431
230853,425
230854,419
230855,403
230856,387
230857,380
230858,378
230859,380
230860,387
230861,403
230862,411
230863,409
230864,402
230865,388
230866,360
230867,336
230868,335
230870,356
230871,369
230872,379
230873,385
230875,373
230875,365
230876,371
230877,377
230878,382
230879,392
230880,410
230881,433
230882,439
230883,426
230884,421
230885,419
230886,428
230887,435
230888,429
230889,418
230890,414
230891,414
230892,425
230893,429
230894,429
230895,429
230896,429
230897,414
230898,397
230899,395
230900,398
230901,408
230902,412
230903,410
230904,397
230905,386
230906,389
230908,408
230909,411
230910,414
230912,423
230913,435
230914,451
230915,450
230916,434
230917,427
230917,415
230918,405
230919,417
230920,427
230921,456
230922,470
230923,472
230924,470
230925,459
230926,451
230927,442
230928,433
230929,440
230930,450
230931,453
230932,444
230933,430
230934,420
230935,417
230936,409
230937,394
230938,386
230939,397
230940,416
230942,452
230943,457
230944,445
230945,432
230946,430
230947,420
230948,419
230949,434
230950,437
230951,442
230952,463
230953,481
230955,496
230956,495
230957,481
230958,457
230959,441
230960,434
230960,431
230961,439
230962,458
230963,474
230964,480
230965,476
230966,455
230967,444
230968,441
230969,451
230970,464
230971,445
230972,450
230973,470
230974,473
230976,466
230977,468
230978,475
230979,469
230980,455
230981,457
230982,454
230983,443
230984,431
230985,445
230986,466
230987,467
230988,450
230989,447
230990,453
230991,459
230992,468
230993,485
230994,495
230995,494
230996,486
230998,485
230999,495
231000,491
231001,489
231002,479
231003,463
231003,452
231004,447
231005,444
231006,443
231007,440
231009,457
231010,465
231011,461
231012,446
231013,450
231014,450
231015,442
231016,429
231017,434
231018,439
231019,443
231020,449
231021,470
231022,488
231023,493
231024,497
231025,484
231026,466
231027,439
231028,437
231029,460
231030,484
231031,496
231032,495
231033,477
231034,461
231035,463
231036,465
231037,457
231038,456
231040,461
231041,456
231042,450
231043,452
231044,470
231046,483
231046,489
231047,477
231048,464
231049,468
231050,459
231051,463
231052,458
231053,441
231054,430
231055,453
231056,466
231057,454
231058,463
231059,480
231060,486
231061,496
231062,495
231063,476
231064,468
231065,470
231066,462
231067,442
231068,436
231069,450
231070,468
231071,492
231072,503
231073,514
231074,513
231075,505
231076,477
231077,458
231079,460
231080,461
231081,466
231083,465
231084,453
231085,447
231086,442
231087,438
231088,437
231088,440
231089,437
231090,430
231091,448
231092,454
231093,452
231094,448
231095,443
231096,438
231097,444
231098,460
231099,468
231100,476
231101,496
231102,510
231103,512
231104,508
231105,505
231106,498
231107,486
231108,489
231109,491
231110,468
231111,453
231113,441
231114,441
231115,436
231116,417
231117,404
231118,410
231119,422
231120,437
231121,464
231122,480
231123,478
231124,485
231126,490
231127,483
231128,477
231129,479
231130,488
231131,487
231131,503
231132,507
231133,515
231134,523
231135,525
231136,517
231137,501
231138,486
231139,469
231140,455
231141,465
231142,473
231143,463
231144,462
231146,467
231147,457
231148,443
231149,432
231150,444
231151,453
231152,436
231153,432
231154,435
231155,435
231156,435
231157,427
231158,438
231159,464
231160,482
231161,494
231162,498
231163,485
231164,467
231165,460
231166,465
231168,476
231169,492
231170,492
231171,486
231172,486
231173,473
231173,473
231174,468
231175,470
231176,471
231177,466
231178,460
231180,478
231181,478
231182,479
231183,463
231184,441
231185,438
231186,438
231187,434
231188,434
231189,438
231190,440
231191,459
231192,463
231193,453
231194,435
231195,427
231196,432
231197,453
231198,465
231199,476
231200,477
231201,484
231202,491
231203,491
231204,497
231205,510
231206,515
231207,507
231208,509
231209,520
231211,506
231212,491
231213,470
231214,442
231215,419
231216,416
231217,417
231218,431
231219,457
231220,470
231221,484
231222,493
231223,491
231224,490
231225,490
231226,483
231227,480
231228,484
231229,478
231230,475
231231,472
231232,462
231233,465
231234,476
231235,469
