403251,418
403252,415
403253,432
403254,433
403255,414
403256,390
403257,386
403258,392
403259,416
403260,413
403261,408
403262,404
403263,411
403264,419
403265,416
403266,408
403267,395
403268,380
403269,367
403270,373
403271,387
403272,382
403273,374
403274,363
403275,357
403276,361
403277,385
403278,402
403279,429
403280,427
403281,424
403282,414
403283,403
403286,354
403287,335
403288,329
403289,344
403290,374
403291,390
403291,386
403292,369
403293,367
403294,377
403295,373
403296,363
403297,364
403298,377
403299,394
403300,383
403301,377
403302,371
403303,368
403304,373
403305,378
403306,379
403307,375
403308,372
403309,371
403310,376
403311,384
403312,397
403313,401
403314,403
403315,410
403316,406
403318,373
403319,377
403320,380
403321,384
403322,383
403323,387
403324,396
403325,401
403326,414
403328,416
403329,418
403330,421
403331,434
403332,440
403333,436
403333,419
403334,393
403335,385
403336,399
403337,415
403338,420
403339,424
403340,420
403341,418
403342,420
403343,418
403344,407
403345,402
403346,416
403347,433
403348,446
403349,457
403350,458
403352,417
403353,406
403354,430
403355,465
403356,470
403357,459
403358,437
403359,435
403360,425
403361,417
403362,417
403363,426
403364,422
403365,412
403366,412
403367,428
403368,440
403369,447
403371,455
403372,463
403373,466
403374,463
403375,446
403376,432
403376,429
403377,437
403378,446
403379,452
403380,448
403381,441
403382,436
403383,440
403384,438
403386,444
403387,441
403388,438
403389,433
403390,427
403391,433
403392,448
403393,450
403394,437
403395,433
403396,444
403397,450
403398,459
403399,468
403400,467
403401,464
403402,469
403403,476
403404,466
403405,462
403406,458
403407,446
403408,439
403409,426
403410,426
403411,446
403412,460
403414,461
403415,456
403416,449
403417,450
403418,461
403419,489
403420,482
403421,470
403422,458
403423,446
403424,436
403425,442
403426,452
403427,461
403428,464
403429,460
403430,467
403431,462
403432,461
403433,457
403434,451
403435,453
403436,464
403437,468
403438,484
403439,493
403440,492
403441,478
403442,463
403443,456
403444,450
403445,455
403446,459
403447,476
403448,489
403449,488
403450,480
403451,472
403452,471
403453,464
403456,477
403457,498
403458,504
403459,491
403460,457
403461,437
403462,442
403462,454
403463,447
403464,427
403465,422
403466,441
403467,459
403468,476
403469,482
403470,481
403471,467
403472,454
403473,453
403474,459
403475,465
403476,470
403477,468
403478,479
403479,467
403480,473
403481,475
403482,480
403483,472
403484,465
403485,462
403486,461
403487,468
403489,473
403490,479
403491,487
403492,485
403493,475
403494,466
403495,456
403496,454
403497,458
403499,471
403500,458
403501,462
403502,460
403503,447
403504,437
403504,446
403505,462
403506,473
403507,474
403508,471
403509,469
403510,473
403511,468
403512,462
403513,475
403514,478
403515,474
403516,478
403517,482
403518,492
403519,490
403520,481
403521,473
403523,464
403524,466
403525,474
403526,483
403527,494
403528,509
403529,499
403530,476
403531,469
403532,473
403533,474
403534,465
403535,458
403536,466
403537,478
403538,489
403539,487
403540,487
403542,475
403543,477
403544,481
403545,492
403546,491
403547,487
403547,481
403548,472
403549,469
403550,469
403551,468
403552,471
403553,472
403554,480
403556,464
403557,462
403558,458
403559,444
403560,441
403561,440
403562,447
403563,443
403564,450
403565,474
403566,490
403567,502
403568,495
403569,486
403570,484
403571,490
403572,489
403573,481
403574,480
403575,488
403576,492
403577,508
403578,501
403579,480
403580,476
403581,488
403582,494
403584,475
403585,458
403586,464
403587,472
403588,477
403589,469
403589,456
403591,455
403592,469
403593,480
403594,469
403595,466
403596,465
403597,466
403598,469
403599,468
403600,464
403601,468
403602,470
403603,466
403604,462
403605,463
403606,468
403607,486
403608,496
403609,487
403610,482
403611,486
403612,487
403613,479
403614,479
403615,493
403616,512
403617,529
403618,517
403619,500
403620,487
403621,485
403622,480
403623,465
403624,471
403627,493
403628,492
403629,476
403630,468
403631,468
403632,468
403632,475
403633,480
403634,474
403635,474
403636,474
403637,492
403638,507
403639,515
403640,519
403641,499
403642,476
403643,453
403644,443
403645,439
403646,451
403647,459
403648,469
403649,481
403650,491
403651,500
403652,491
403653,475
403654,476
403655,491
403656,501
403657,517
403658,513
403660,484
403661,465
403662,456
403663,446
403664,453
403665,466
403666,466
403667,472
403668,479
403670,477
403671,469
403672,465
403673,470
403674,478
403675,480
403675,471
403676,472
403677,483
403678,482
403679,485
403680,483
403681,493
403682,490
403683,473
403684,465
403685,467
403686,476
403687,497
403688,501
403689,493
403690,485
403691,485
403693,468
403694,450
403695,445
403696,449
403697,470
403698,489
403699,507
403700,524
403701,524
403702,507
403703,490
403704,491
403705,492
403706,488
403707,480
403708,482
403709,496
403710,500
403712,492
403713,484
403714,486
403715,495
403716,503
403717,494
403717,487
403718,474
403719,466
403720,470
403721,465
403722,466
403723,482
403724,488
403725,499
403727,502
403728,480
403729,473
403730,468
403731,476
403732,483
403733,480
403734,482
403735,485
403736,491
403737,499
403738,501
403739,487
403740,468
403741,460
403742,446
403743,450
403744,466
403745,472
403746,484
403747,490
403748,495
403749,504
403750,496
403751,483
403752,467
403753,457
403755,462
403756,483
403757,497
403758,508
403759,523
403760,520
403760,498
403762,476
403763,481
403764,492
403765,495
403766,492
403767,485
403768,481
403769,492
403770,493
403771,488
403772,475
403773,464
403774,467
403775,478
403776,486
403777,483
403778,471
403779,463
403780,468
403781,475
403782,480
403783,487
403784,485
403785,465
403786,470
403787,480
403788,483
403789,488
403790,501
403791,501
403792,498
403793,484
403794,475
403795,463
403798,487
403799,505
403800,519
403801,513
403802,503
403803,503
403803,507
403804,503
403805,496
403806,498
403807,507
403808,509
403809,504
403810,507
403811,506
403812,499
403813,492
403814,496
403815,503
403816,514
403817,510
403818,501
403819,493
403820,492
403821,492
403822,487
403823,496
403824,504
403825,512
403826,529
403827,533
403828,536
403830,493
403831,477
403832,467
403833,469
403834,478
403835,486
403836,509
403837,514
403838,525
403840,530
403841,537
403842,532
403843,524
403844,522
403845,525
403846,528
403846,537
403847,550
403848,551
403849,548
403850,528
403851,513
403852,513
403853,523
403854,530
403855,524
403856,528
403857,531
403858,534
403859,525
403860,510
403861,500
403862,504
403864,510
403865,509
403866,506
403867,493
403868,484
403869,473
403870,465
403871,451
403872,432
403873,432
403874,466
403875,510
403876,513
403877,484
403878,456
403879,441
403880,436
403881,438
403883,455
403884,488
403885,494
403886,477
403887,466
403888,465
403888,474
403889,484
403890,492
403891,507
403892,510
403893,494
403894,470
403895,462
403896,471
403898,494
403899,499
403900,498
403901,489
403902,469
403903,452
403904,456
403905,475
403906,483
403907,478
403908,482
403909,498
403910,489
403911,469
403912,452
403913,438
403914,432
403915,433
403916,453
403917,463
403918,464
403919,460
403920,452
403921,449
403922,448
403923,457
403924,466
403926,467
403927,474
403928,489
403929,494
403930,498
403931,507
403932,493
403933,499
403934,507
403935,512
403936,509
403937,481
403938,465
403939,466
403940,467
403941,472
403942,472
403943,479
403944,499
403945,531
403946,547
403947,542
403948,529
403949,528
403950,529
403951,533
403952,536
403953,549
403954,560
403955,579
403956,615
403957,643
403958,671
403959,687
403960,694
403961,700
403962,716
403963,744
403964,772
403965,805
403968,899
403969,940
403970,983
403971,990
403972,990
403973,990
403974,989
403974,989
403975,988
403976,988
403977,988
403978,988
403979,989
403980,989
403981,989
403982,945
403983,867
403984,782
403985,697
403986,604
403987,522
403988,459
403989,411
403990,373
403991,325
403992,281
403993,258
403994,266
403995,289
403996,290
403997,296
403998,284
403999,271
404001,279
404002,293
404003,319
404004,350
404005,365
404006,377
404007,388
404008,404
404009,411
404011,417
404012,424
404013,417
404014,416
404015,419
404016,429
404016,437
404017,434
404018,416
404019,402
404020,399
404021,398
404022,393
404023,389
404024,385
404025,388
404026,394
404027,396
404028,403
404029,424
404030,436
404031,429
404032,419
404033,403
404035,427
404036,437
404037,443
404038,448
404039,446
404040,419
404041,385
404042,380
404043,410
404044,426
404045,436
404046,449
404047,460
404048,467
404049,468
404050,456
404051,439
404052,438
404054,449
404055,453
404056,470
404057,469
404058,474
404059,473
404059,466
404060,463
404061,469
404062,470
404063,458
404064,458
404065,437
404066,422
404068,467
404069,486
404070,502
404071,512
404072,501
404073,475
404074,437
404075,431
404076,442
404077,464
404078,479
404079,485
404080,478
404081,468
404082,471
404083,481
404084,481
404085,482
404086,482
404087,474
404088,475
404089,480
404090,489
404091,481
404092,460
404093,453
404094,466
404096,489
404097,491
404098,488
404099,485
404100,479
404101,480
404102,478
404103,472
404104,470
404105,463
404106,480
404107,497
404108,512
404109,505
404110,503
404111,504
404112,501
404113,513
404114,531
404115,554
404116,545
404117,534
404118,529
404119,515
404120,497
404121,480
404122,487
404123,503
404124,517
404125,536
404126,543
404127,526
404128,523
404129,533
404130,525
404131,512
404132,511
404133,515
404134,529
404135,543
404136,536
404139,522
404140,520
404141,533
404142,540
404143,545
404144,555
404144,558
404145,564
404146,559
404147,543
404148,526
404149,520
404150,514
404151,513
404152,519
404153,536
404154,556
404155,577
404156,571
404157,556
404158,551
404159,550
404160,553
404161,541
404162,529
404163,521
404164,525
404165,535
404166,544
404167,556
404168,558
404169,573
404170,569
404172,554
404173,551
404174,549
404175,545
404176,554
404177,566
404178,566
404179,549
404180,538
404182,539
404183,555
404184,567
404185,572
404186,565
404187,561
404187,569
404188,561
404189,564
404190,561
404191,564
404192,578
404193,573
404194,576
404195,589
404196,602
404197,606
404198,598
404199,579
404200,562
404201,555
404202,547
404203,547
404205,555
404206,554
404207,551
404208,547
404209,537
404210,518
404211,521
404212,529
404213,530
404214,529
404215,530
404216,532
404217,511
404218,494
404219,483
404220,482
404221,499
404222,535
404224,552
404225,552
404226,543
404227,544
404228,539
404229,507
404230,478
404230,464
404231,461
404232,465
404233,471
404234,498
404235,501
404236,490
404237,465
404239,444
404240,450
404241,461
404242,463
404243,463
404244,467
404245,468
404246,461
404247,449
404248,437
404249,420
404250,405
404251,396
404252,398
404253,398
404254,410
404255,411
404256,412
404257,422
404258,429
404259,431
404260,431
404261,409
404262,404
404263,425
404264,429
404265,429
404267,425
404268,432
404269,439
404270,422
404271,406
404272,408
404272,392
404274,394
404275,404
404276,418
404277,419
404278,412
404279,411
404280,396
404281,390
404282,380
404283,367
404284,379
404285,382
404286,399
404287,420
404288,422
404289,405
404290,392
404291,392
404292,396
404293,407
404294,419
404295,420
404296,428
404297,430
404298,423
404299,411
404300,416
404301,420
404302,420
404303,418
404304,423
404305,418
404306,397
404307,389
404310,398
404311,395
404312,390
404313,382
404314,381
404315,391
404315,398
404316,413
404317,424
404318,431
404319,427
404320,434
404321,443
404322,466
404323,465
404324,449
404325,448
404326,454
404327,465
404328,468
404329,456
404330,436
404331,430
404332,432
404333,435
404334,443
404335,426
404336,426
404337,426
404338,420
404339,423
404340,419
404342,420
404343,425
404344,415
404345,418
404346,446
404347,467
404348,479
404349,490
404350,476
404352,458
404353,452
404354,453
404355,457
404356,454
404357,458
404357,462
404358,468
404359,468
404360,468
404361,469
404362,474
404363,480
404364,483
404365,475
404366,459
404367,458
404368,465
404369,470
404370,468
404371,471
404372,473
404373,485
404374,480
404376,430
404377,427
404378,447
404379,467
404380,476
404381,465
404382,451
404383,455
404384,463
404385,480
404386,476
404387,452
404388,445
404389,452
404390,477
404391,507
404392,515
404393,504
404395,486
404396,476
404397,482
404398,491
404399,488
404400,482
404400,471
404401,461
404402,464
404403,466
404404,463
404405,450
404406,440
404407,429
404408,449
404409,474
404411,472
404412,469
404413,496
404414,493
404415,476
404416,463
404417,446
404418,449
404419,478
404420,510
404421,518
404422,498
404423,499
404424,501
404425,495
404426,498
404427,496
404428,487
404429,477
404430,476
404431,494
404432,502
404433,503
404434,497
404435,504
404436,506
404438,515
404439,503
404440,478
404441,454
404442,463
404443,479
404443,480
404445,492
404446,490
404447,484
404448,474
404449,471
404450,476
404451,506
404452,517
404453,519
404454,497
404455,493
404456,479
404457,468
404458,467
404459,478
404460,479
404461,497
404462,501
404463,497
404464,499
404465,492
404466,487
404467,492
404468,493
404469,487
404470,487
404471,502
404472,537
404473,545
404474,511
404475,499
404476,481
404477,448
404478,434
404480,432
404482,479
404483,502
404484,507
404485,503
404486,502
404486,490
404487,482
404488,485
404489,482
404490,476
404491,468
404492,458
404493,480
404494,494
404495,505
404496,520
404497,512
404498,496
404499,476
404500,479
404501,485
404502,496
404503,513
404504,533
404505,545
404506,518
404507,493
404508,475
404509,463
404510,471
404511,489
404512,481
404513,496
404515,518
404516,498
404517,483
404518,471
404519,466
404520,469
404521,472
404523,494
404524,506
404525,503
404526,477
404527,461
404528,460
404529,469
404529,479
404530,482
404531,470
404532,466
404533,477
404534,493
404535,515
404536,519
404537,511
404538,501
404539,512
404540,534
404541,536
404542,522
404543,501
404544,494
404545,489
404546,483
404547,473
404549,438
404550,452
404551,465
404552,476
404553,494
404554,489
404555,471
404556,463
404557,461
404558,457
404559,468
404560,500
404561,507
404562,525
404563,546
404564,552
404566,542
404567,539
404568,528
404569,513
404570,516
404571,520
404571,524
404572,524
404573,522
404574,518
404575,526
404576,524
404577,510
404578,500
404579,501
404580,505
404581,497
404583,477
404584,475
404585,478
404586,475
404587,482
404588,460
404589,440
404590,444
404591,455
404592,475
404593,488
404594,511
404595,512
404596,509
404597,508
404598,492
404599,476
404600,463
404601,467
404602,483
404603,496
404604,506
404605,511
404606,520
404608,537
404609,536
404610,537
404611,547
404612,525
404613,512
404613,488
404614,469
404615,455
404617,486
404618,478
404619,476
404620,491
404621,498
404622,489
404623,479
404624,474
404625,470
404626,482
404627,500
404628,513
404629,528
404630,523
404631,525
404632,536
404633,527
404634,509
404635,494
404636,489
404637,478
404638,491
404639,514
404640,524
404641,521
404642,508
404643,503
404644,507
404645,498
404646,487
404647,486
404648,482
404649,490
404651,496
404652,483
404654,463
404655,473
404656,465
404656,486
404657,480
404658,485
404659,513
404660,519
404661,512
404662,502
404663,512
404664,521
404665,514
404666,502
404667,484
404668,474
404669,475
404670,468
404671,477
404672,499
404673,498
404674,498
404675,503
404676,515
404677,503
404678,494
404679,494
404680,512
404681,515
404682,529
404683,529
404684,522
404685,519
404687,513
404688,508
404689,516
404690,510
404691,471
404692,442
404694,432
404695,453
404696,489
404697,504
404698,507
404699,487
404699,497
404700,503
404701,507
404702,508
404703,497
404704,484
404705,481
404706,479
404707,490
404708,475
404709,466
404710,490
404711,511
404712,527
404713,531
404714,547
404715,543
404716,513
404717,500
404718,487
404720,477
404721,484
404722,502
404723,510
404724,522
404725,535
404726,502
404727,476
404728,478
404729,483
404730,487
404731,529
404732,551
404733,532
404734,513
404736,507
404737,512
404738,526
404739,531
404740,534
404741,522
404742,505
404742,469
404743,475
404744,493
404745,501
404746,501
404747,501
404748,512
404749,507
404750,499
404751,502
404752,513
404754,492
404755,466
404756,459
404757,471
404758,472
404759,485
404760,497
404761,517
404762,549
404763,563
404764,555
404765,525
404766,508
404767,503
404768,501
404769,533
404770,535
404771,524
404772,517
404773,500
404774,485
404775,480
404776,487
404777,472
404779,475
404780,483
404781,487
404782,493
404783,491
404784,505
404784,516
404785,511
404786,510
404788,515
404789,518
404790,503
404791,499
404792,512
404793,516
404794,492
404795,483
404796,471
404797,450
404798,451
404799,486
404800,506
404801,519
404802,522
404803,523
404804,540
404805,546
404806,560
404807,560
404808,537
404809,525
404810,525
404811,553
404812,557
404813,538
404814,519
404815,512
404816,520
404817,527
404818,560
404819,571
404820,553
404822,543
404823,528
404825,533
404826,549
404827,554
404827,550
404828,532
404829,503
404830,502
404831,519
404832,527
404833,523
404834,498
404835,481
404836,449
404837,428
404838,420
404839,443
404840,469
404841,480
404842,493
404843,504
404844,509
404845,509
404846,502
404847,501
404848,504
404849,503
404850,502
404851,508
404852,501
404853,490
404854,486
404855,500
404857,493
404858,499
404859,492
404860,489
404861,500
404862,510
404864,519
404865,506
404866,487
404867,464
404868,450
404869,470
404870,479
404870,483
404871,507
404872,490
404873,486
404874,481
404875,473
404876,441
404877,416
404878,398
404879,411
404880,422
404881,395
404882,378
404883,375
404884,407
404885,451
404886,481
404887,509
404888,488
404889,461
404891,457
404892,454
404893,456
404894,468
404895,484
404896,498
404897,502
404898,505
404899,511
404900,535
404901,542
404902,529
404903,519
404904,514
404905,552
404907,560
404908,506
404909,447
404910,440
404911,436
404912,456
404913,456
404913,458
404914,498
404915,527
404916,551
404917,583
404918,630
404919,649
404920,678
404921,697
404922,691
404923,685
404924,704
404925,719
404927,774
404928,797
404929,817
404930,807
404931,809
404932,814
404933,827
404934,833
404935,829
404936,822
404937,834
404938,878
404939,933
404940,973
404941,990
404942,990
404943,989
404944,989
404945,990
404946,961
404947,881
404948,819
404950,781
404951,743
404952,706
404953,620
404954,546
404955,499
404955,442
404956,385
404957,369
404958,327
404959,264
404961,216
404962,221
404963,223
404964,226
404965,222
404966,199
404967,203
404968,226
404969,259
404970,284
404971,334
404972,363
404973,388
404974,416
404975,448
404976,480
404977,488
404978,485
404979,474
404980,472
404981,456
404982,439
404983,428
404984,410
404985,410
404986,415
404987,419
404988,438
404989,455
404990,466
404992,431
404993,360
404994,271
404995,219
404996,209
404998,273
404998,319
404999,341
405000,372
405001,397
405002,408
405003,443
405004,494
405005,532
405006,529
405007,495
405008,493
405009,473
405010,456
405011,407
405012,342
405013,277
405014,297
405015,375
405016,469
405017,529
405018,531
405019,491
405020,424
405021,378
405022,393
405023,433
405024,440
405025,417
405026,407
405027,387
405028,379
405029,379
405031,490
405032,530
405033,538
405035,537
405036,520
405037,521
405038,506
405039,496
405040,490
405040,503
405041,505
405042,529
405043,572
405044,563
405045,533
405046,539
405047,518
405048,488
405049,465
405050,426
405051,402
405052,418
405053,388
405054,366
405055,375
405056,411
405057,424
405058,435
405059,460
405060,482
405061,469
405062,447
405063,427
405065,352
405066,329
405067,324
405068,319
405069,323
405070,384
405071,442
405072,466
405073,496
405074,531
405075,582
405076,630
405078,656
405079,662
405080,618
405081,580
405082,537
405083,486
405083,445
405084,422
405085,411
405086,422
405087,443
405088,441
405089,424
405090,453
405091,456
405092,443
405093,463
405094,477
405095,482
405096,480
405098,421
405099,471
405100,509
405101,498
405102,509
405103,538
405104,538
405105,539
405106,535
405107,532
405108,536
405109,509
405110,532
405111,558
405112,577
405113,552
405114,500
405115,493
405116,497
405117,512
405118,547
405120,596
405121,621
405122,608
405123,540
405124,498
405125,482
405126,458
405126,438
405127,434
405128,434
405129,425
405130,434
405132,466
405133,482
405134,481
405135,485
405136,452
405137,450
405138,493
405139,545
405140,571
405141,585
405142,578
405143,560
405144,555
405145,559
405146,569
405147,577
405148,594
405149,581
405150,568
405151,539
405152,498
405153,477
405154,489
405155,482
405156,475
405157,465
405158,454
405159,431
405160,389
405161,376
405163,429
405164,476
405165,499
405166,502
405167,531
405168,549
405169,540
405170,526
405171,504
405172,480
405173,472
405174,452
405175,423
405176,411
405177,406
405178,438
405179,492
405180,535
405181,536
405182,495
405183,463
405184,450
405185,447
405186,470
405187,486
405188,524
405189,572
405190,593
405191,590
405192,575
405193,542
405194,514
405195,498
405196,486
405197,478
405198,465
405199,467
405200,450
405202,467
405203,455
405204,447
405206,451
405207,454
405208,471
405209,466
405210,474
405211,465
405211,456
405212,430
405213,412
405214,376
405215,333
405216,289
405217,284
405218,305
405219,309
405220,268
405221,228
405222,229
405223,225
405224,216
405225,190
405226,188
405227,206
405228,213
405229,236
405230,287
405231,343
405232,389
405233,423
405235,472
405236,481
405237,451
405238,441
405239,423
405240,364
405241,335
405242,327
405243,337
405244,351
405245,344
405246,339
405248,339
405249,335
405250,336
405251,338
405252,344
405253,364
405254,360
405254,352
405255,379
405256,410
405257,432
405258,423
405259,411
405260,405
405261,397
405262,391
405263,377
405264,372
405265,369
405266,354
405267,357
405269,377
405270,379
405271,369
405272,342
405273,315
405274,276
405275,246
405276,251
405277,254
405278,236
405279,207
405280,217
405281,249
405282,311
405283,360
405284,358
405285,392
405286,432
405287,462
405288,481
405289,488
405291,450
405292,405
405293,387
405294,375
405295,355
405296,332
405296,335
405297,351
405298,344
405299,349
405300,364
405301,414
405303,425
405304,401
405305,389
405306,392
405307,401
405308,418
405309,442
405310,436
405311,407
405312,374
405313,373
405314,384
405315,376
405316,387
405317,431
405318,492
405319,520
405320,531
405321,533
405322,524
405323,489
405324,450
405325,430
405326,418
405327,385
405328,366
405329,352
405330,317
405331,306
405332,321
405334,319
405335,312
405336,312
405337,312
405339,308
405339,343
405340,404
405341,443
405342,453
405343,449
405344,459
405345,480
405346,493
405347,486
405348,466
405349,446
405350,424
405351,431
405352,412
405353,381
405354,327
405355,275
405356,268
405357,277
405358,273
405359,293
40258,508
500359,511
59,506
500350,505
500352,504
500353,506
500354,506
500355,501
500356,496
500357,493
500358,496
500358,508
500359,511
500360,507
50,505
500352,504
500353,506
500354,506
500355,501
500356,496
500357,493
500358,496
500358,508
500359,511
500360,507
500361,506
500362,513
500363,516
500364,519
500365,508
500366,508
500367,515
500368,509
500369,500
500370,505
500371,514
500372,521
500373,513
500374,508
500376,535
500377,531
500378,534
500379,532
500380,527
500381,535
500382,542
500383,544
500384,549
500385,548
500386,544
500387,538
500388,533
500389,531
500390,528
500391,530
500392,528
500393,523
500395,517
500396,526
500397,534
500398,536
500399,543
500400,557
500400,560
500401,553
500402,551
500403,549
500404,547
500405,550
500406,554
500407,549
500408,548
500410,553
500411,545
500412,538
500413,535
500414,540
500415,548
500416,551
500417,550
500418,553
500419,553
500420,553
500421,559
500422,566
500423,566
500424,569
500425,565
500426,556
500427,551
500428,557
500429,553
500430,540
500431,544
500432,552
500433,557
500434,557
500435,562
500436,574
500438,573
500439,566
500440,563
500441,561
500442,560
500443,560
500444,557
500445,549
500446,537
500447,546
500448,557
500449,560
500450,554
500451,542
500452,535
500453,528
500454,522
500455,521
500456,528
500457,536
500458,533
500459,526
500460,524
500461,524
500462,526
500463,522
500464,522
500465,509
500466,504
500467,505
500468,497
500469,490
500470,497
500471,496
500472,502
500473,509
500474,510
500475,508
500476,504
500477,497
500480,482
500481,473
500482,468
500483,467
500484,472
500485,470
500486,449
500486,433
500487,438
500488,434
500489,416
500490,406
500491,402
500492,406
500493,404
500494,400
500495,411
500496,427
500497,440
500498,436
500499,432
500500,437
500501,434
500502,418
500503,421
500504,432
500505,435
500506,435
500507,420
500508,416
500509,414
500510,403
500511,396
500513,412
500514,409
500515,402
500516,396
500517,393
500518,394
500519,391
500520,393
500521,396
500523,401
500524,407
500525,410
500526,412
500527,405
500528,404
500528,403
500529,385
500530,380
500531,378
500532,380
500533,385
500534,387
500535,388
500536,406
500537,409
500538,404
500539,400
500540,406
500541,412
500542,413
500543,412
500544,414
500545,412
500547,411
500548,412
500549,412
500550,415
500551,415
500552,413
500553,419
500554,417
500555,414
500556,421
500557,423
500558,423
500559,426
500560,427
500561,423
500562,423
500563,425
500564,428
500566,417
500567,408
500568,409
500569,402
500570,402
500571,410
500571,411
500572,414
500573,423
500574,430
500575,439
500576,444
500577,445
500578,438
500580,437
500581,438
500582,442
500583,455
500584,458
500585,452
500586,448
500587,446
500588,442
500589,445
500590,447
500591,452
500592,457
500593,454
500594,448
500595,447
500596,446
500597,441
500598,441
500599,442
500600,448
500601,457
500602,460
500603,453
500604,452
500605,445
500606,446
500608,455
500609,460
500610,463
500611,459
500612,456
500613,455
500613,453
500615,465
500616,482
500617,477
500618,475
500619,480
500620,472
500621,460
500622,456
500623,460
500624,468
500625,469
500626,467
500627,474
500628,473
500629,465
500630,459
500631,460
500632,464
500633,467
500634,459
500635,455
500636,458
500637,454
500638,448
500639,450
500640,459
500641,467
500642,459
500643,444
500644,450
500645,464
500646,473
500647,484
500648,486
500651,477
500652,473
500653,488
500654,508
500655,515
500656,507
500657,498
500657,482
500658,475
500659,468
500660,456
500661,458
500662,466
500663,466
500664,468
500665,476
500666,481
500667,475
500668,468
500669,465
500670,462
500671,458
500672,462
500673,473
500674,488
500675,493
500676,485
500677,475
500678,474
500679,474
500680,476
500681,471
500682,471
500683,473
500684,472
500686,482
500687,486
500688,482
500689,488
500690,494
500691,487
500692,474
500694,471
500695,472
500696,480
500697,481
500698,469
500699,460
500699,460
500700,464
500701,465
500702,466
500703,476
500704,489
500705,492
500706,483
500707,481
500708,480
500709,478
500710,480
500711,483
500712,477
500713,472
500714,471
500715,472
500716,478
500717,475
500718,473
500720,478
500721,470
500722,467
500723,475
500724,485
500725,489
500726,480
500727,475
500728,479
500729,487
500730,490
500731,476
500732,466
500733,469
500734,468
500736,472
500737,475
500738,474
500739,478
500740,480
500741,479
500742,478
500742,477
500743,479
500744,488
500745,495
500746,495
500747,507
500748,508
500749,497
500750,491
500751,487
500752,475
500754,477
500755,490
500756,494
500757,485
500758,475
500759,473
500760,478
500761,486
500762,491
500763,481
500764,469
500765,471
500766,478
500767,485
500768,493
500769,492
500770,487
500771,484
500772,484
500773,489
500774,497
500775,498
500776,500
500777,495
500779,492
500780,481
500781,473
500782,472
500783,472
500784,483
500784,497
500785,489
500786,475
500788,465
500789,461
500790,460
500791,459
500792,481
500793,492
500794,490
500795,488
500796,490
500797,494
500798,496
500799,490
500800,488
500801,486
500802,486
500803,482
500804,478
500805,480
500806,483
500807,490
500808,502
500809,505
500810,501
500811,494
500812,484
500813,480
500814,477
500815,476
500816,482
500817,484
500818,493
500819,501
500820,496
500822,501
500823,504
500825,480
500826,481
500827,486
500827,488
500828,487
500829,481
500830,481
500831,487
500832,494
500833,491
500834,489
500835,487
500836,484
500837,480
500838,480
500839,484
500840,493
500841,501
500842,502
500843,500
500844,498
500845,496
500846,501
500847,501
500848,494
500849,492
500850,502
500851,498
500852,484
500853,473
500854,457
500855,463
500857,480
500858,471
500859,471
500860,479
500861,487
500862,488
500864,494
500865,494
500866,491
500867,503
500868,505
500869,499
500869,492
500870,485
500871,484
500872,486
500873,480
500874,480
500875,491
500876,499
500877,503
500878,511
500879,507
500880,496
500881,490
500882,489
500883,490
500884,497
500885,500
500886,497
500887,495
500888,494
500889,492
500891,492
500892,485
500893,481
500894,477
500895,474
500896,476
500897,477
500898,493
500899,505
500900,512
500901,515
500902,515
500903,512
500904,507
500905,502
500907,494
500908,484
500909,483
500910,494
500911,498
500912,492
500912,482
500913,476
500914,478
500915,488
500916,509
500917,509
500918,505
500919,500
500920,496
500921,493
500922,493
500923,494
500925,491
500926,476
500927,473
500928,477
500929,483
500930,487
500931,481
500932,477
500933,474
500934,473
500935,473
500936,472
500937,462
500938,461
500939,466
500940,473
500941,482
500942,486
500943,493
500944,492
500945,483
500946,483
500947,485
500948,488
500950,484
500951,479
500952,485
500953,493
500954,488
500955,478
500955,475
500956,470
500958,472
500959,485
500960,478
500961,481
500962,484
500963,481
500964,486
500965,503
500966,504
500967,492
500968,487
500969,486
500970,483
500971,495
500972,516
500973,518
500974,503
500975,499
500976,499
500977,505
500978,501
500979,499
500980,490
500981,479
500982,478
500983,489
500984,500
500985,507
500986,498
500987,496
500988,499
500989,498
500990,495
500992,485
500993,478
500995,479
500996,483
500997,490
500998,486
500998,485
500999,479
501000,483
501001,496
501002,501
501003,501
501004,508
501005,513
501006,513
501007,514
501008,519
501009,521
501010,514
501011,511
501012,497
501013,485
501014,485
501015,493
501016,503
501017,507
501018,507
501019,506
501020,503
501021,504
501022,496
501023,487
501024,492
501025,497
501026,498
501028,484
501029,490
501030,496
501031,482
501032,471
501033,471
501035,474
501036,479
501037,488
501038,481
501039,472
501040,473
501040,476
501041,480
501042,484
501043,492
501044,498
501045,500
501046,501
501047,520
501048,556
501049,563
501050,553
501051,547
501052,536
501053,519
501054,510
501055,516
501056,526
501057,532
501058,530
501059,528
501060,533
501062,528
501063,524
501064,527
501065,534
501066,544
501067,541
501068,531
501069,527
501070,524
501071,529
501072,523
501073,522
501074,531
501075,523
501076,521
501078,521
501079,522
501080,521
501081,520
501082,520
501083,517
501083,520
501084,520
501085,509
501086,500
501087,496
501088,499
501089,507
501090,502
501091,492
501092,485
501093,476
501095,474
501096,474
501097,466
501098,464
501099,456
501100,456
501101,462
501102,473
501103,459
501104,458
501105,464
501106,462
501107,454
501108,451
501109,457
501110,465
501111,471
501112,463
501113,450
501114,456
501115,481
501116,499
501117,506
501118,503
501120,496
501121,496
501122,503
501123,500
501124,485
501125,479
501126,481
501126,484
501127,476
501129,467
501130,463
501131,477
501132,482
501133,485
501134,477
501135,473
501136,481
501137,486
501138,484
501139,491
501140,495
501141,492
501142,497
501143,494
501144,481
501145,479
501146,481
501147,473
501148,478
501149,484
501150,490
501151,490
501152,482
501153,485
501154,480
501155,470
501156,471
501157,490
501158,506
501159,502
501160,491
501161,480
501163,479
501164,477
501166,501
501167,509
501168,507
501168,510
501169,520
501170,512
501171,524
501172,548
501173,571
501174,587
501175,596
501176,614
501177,642
501178,675
501179,702
501180,725
501181,749
501182,763
501183,772
501184,790
501185,822
501186,843
501187,870
501188,909
501189,939
501190,957
501191,986
501192,990
501193,989
501194,989
501195,989
501196,989
501197,989
501199,989
501200,989
501201,990
501202,913
501203,829
501204,742
501206,656
501207,583
501208,524
501209,473
501210,428
501211,390
501211,354
501212,314
501213,289
501214,289
501215,285
501216,273
501217,294
501218,301
501219,305
501220,312
501221,320
501222,323
501223,333
501224,351
501225,371
501226,385
501227,391
501228,393
501229,386
501230,391
501232,404
501233,401
501234,395
501235,399
501236,408
501237,421
501238,420
501239,412
501240,404
501241,416
501242,423
501243,419
501244,416
501245,402
501246,398
501248,403
501249,410
501250,420
501251,432
501252,429
501253,426
501254,421
501254,417
501255,423
501256,434
501257,441
501258,432
501259,416
501260,409
501261,419
501262,432
501263,430
501264,424
501266,437
501267,442
501268,445
501269,449
501270,449
501271,442
501272,444
501273,451
501274,473
501275,489
501276,499
501277,494
501278,480
501279,475
501280,470
501281,467
501282,472
501283,474
501284,475
501285,474
501286,471
501287,474
501288,476
501289,479
501291,481
501292,477
501293,468
501294,468
501295,472
501296,472
501296,466
501297,468
501298,461
501300,470
501301,479
501302,475
501303,470
501304,471
501305,474
501306,484
501307,486
501308,495
501309,495
501310,492
501311,488
501312,489
501313,505
501314,494
501315,472
501316,472
501317,492
501318,502
501319,501
501320,496
501321,487
501322,485
501323,479
501324,472
501325,467
501326,466
501327,476
501328,488
501329,497
501330,500
501331,492
501332,505
501334,500
501335,491
501337,492
501338,482
501339,475
501339,474
501340,477
501341,503
501342,518
501343,535
501344,551
501345,555
501346,566
501347,563
501348,553
501349,544
501350,536
501351,526
501352,517
501353,522
501354,534
501355,540
501356,550
501357,554
501358,544
501359,541
501360,534
501361,533
501362,533
501363,532
501364,537
501365,543
501366,552
501367,561
501369,562
501370,546
501371,537
501372,532
501373,523
501374,524
501376,531
501377,533
501378,542
501379,542
501380,543
501381,544
501382,545
501382,552
501383,553
501384,547
501385,544
501386,546
501387,550
501388,544
501389,537
501390,541
501391,544
501392,533
501393,532
501394,551
501395,555
501396,559
501397,576
501398,576
501399,574
501400,579
501401,580
501403,584
501404,585
501405,579
501406,571
501407,564
501408,566
501409,566
501410,561
501411,552
501412,547
501413,549
501414,555
501415,547
501416,533
501417,528
501419,528
501420,526
501421,529
501422,539
501423,550
501424,559
501424,567
501425,567
501426,573
501427,573
501428,565
501429,560
501430,555
501431,539
501432,524
501433,516
501434,527
501435,551
501437,562
501438,554
501439,547
501440,541
501441,536
501442,541
501443,536
501444,521
501445,518
501446,516
501447,511
501448,504
501449,491
501450,488
501451,492
501452,499
501453,504
501454,504
501455,494
501456,490
501457,491
501458,483
501459,475
501460,462
501462,455
501463,451
501464,448
501465,445
501466,442
501467,445
501467,449
501468,447
501470,439
501471,440
501472,444
501473,438
501474,428
501475,427
501476,421
501477,415
501478,419
501479,427
501480,422
501481,424
501482,425
501483,405
501484,409
501485,428
501486,423
501487,410
501488,398
501489,404
501490,410
501491,409
501492,417
501493,423
501494,421
501495,403
501496,396
501497,390
501498,380
501499,383
501500,391
501501,389
501502,391
501504,403
501505,410
501507,401
501508,395
501509,397
501509,398
501510,407
501511,419
501512,422
501513,414
501514,408
501515,410
501516,408
501517,394
501518,382
501519,395
501520,412
501521,413
501522,412
501523,413
501524,401
501525,396
501526,395
501527,395
501528,400
501529,410
501530,415
501531,401
501532,388
501533,384
501534,384
501535,397
501536,405
501537,410
501538,426
501540,445
501541,443
501542,430
501543,415
501544,421
501545,444
501547,438
501548,415
501549,412
501550,412
501551,407
501552,398
501552,405
501553,414
501554,429
501555,434
501556,426
501557,428
501558,436
501559,439
501560,438
501561,441
501562,455
501563,451
501564,448
501565,444
501566,452
501567,466
501568,462
501569,470
501570,473
501571,470
501572,458
501574,453
501575,465
501576,467
501577,458
501578,444
501579,443
501580,454
501581,451
501582,445
501583,443
501584,447
501585,450
501586,454
501587,455
501588,451
501590,456
501591,462
501592,455
501593,460
501594,469
501595,473
501595,472
501596,466
501597,457
501598,463
501599,463
501600,462
501601,459
501602,456
501603,460
501604,468
501605,482
501607,467
501608,467
501609,473
501610,467
501611,464
501612,466
501613,464
501614,452
501615,442
501616,445
501617,457
501618,472
501619,474
501620,468
501621,458
501622,460
501623,460
501624,453
501625,470
501626,480
501627,486
501628,497
501629,491
501630,485
501632,470
501633,461
501634,455
501635,461
501636,456
501637,455
501637,476
501638,499
501639,497
501641,485
501642,477
501643,472
501644,463
501645,464
501646,481
501647,486
501648,487
501649,482
501650,486
501651,489
501652,479
501653,476
501654,480
501655,496
501656,500
501657,486
501658,483
501659,480
501660,471
501661,458
501662,460
501663,462
501664,464
501665,473
501666,485
501667,488
501668,489
501669,486
501670,479
501671,469
501672,468
501673,460
501675,459
501676,464
501678,468
501679,476
501680,480
501680,477
501681,467
501682,464
501683,454
501684,462
501685,463
501686,454
501687,448
501688,448
501689,466
501690,475
501691,476
501692,479
501693,478
501694,476
501695,472
501696,475
501697,487
501698,486
501699,479
501700,480
501701,483
501702,491
501703,490
501704,490
501705,488
501706,491
501707,493
501708,494
501709,495
501711,476
501712,487
501713,499
501714,497
501715,487
501716,476
501718,472
501719,481
501720,481
501721,482
501722,476
501723,469
501723,468
501724,477
501725,475
501726,473
501727,471
501728,471
501729,479
501730,482
501731,484
501732,474
501733,460
501734,461
501735,480
501736,493
501737,499
501738,499
501739,492
501740,494
501741,492
501742,481
501744,486
501745,485
501746,479
501747,480
501748,490
501749,492
501750,483
501751,478
501752,486
501753,486
501754,483
501755,476
501756,467
501757,465
501758,476
501760,475
501761,483
501762,485
501763,482
501764,475
501765,467
501765,465
501766,471
501767,471
501768,464
501769,467
501770,473
501771,475
501772,495
501773,510
501774,504
501775,498
501776,485
501778,502
501779,496
501780,488
501781,483
501782,482
501783,482
501784,481
501785,478
501786,474
501787,478
501788,476
501789,479
501790,478
501791,479
501792,484
501793,484
501794,484
501795,484
501796,484
501797,481
501798,490
501799,482
501800,478
501801,478
501803,484
501804,497
501805,504
501806,502
501807,501
501808,507
501808,509
501809,502
501810,492
501812,484
501813,492
501814,496
501815,488
501816,491
501817,498
501818,505
501819,499
501820,498
501821,492
501822,486
501823,481
501824,480
501825,477
501826,482
501827,484
501828,476
501829,479
501830,476
501831,475
501832,481
501833,482
501834,477
501835,477
501836,488
501837,497
501838,493
501839,481
501840,482
501841,479
501842,475
501843,475
501844,469
501846,467
501847,475
501849,501
501850,502
501851,494
501851,492
501852,490
501853,494
501854,500
501855,493
501856,491
501857,493
501858,495
501859,493
501860,489
501861,502
501862,502
501863,493
501864,491
501865,494
501866,499
501867,494
501868,490
501869,491
501870,486
501871,490
501872,497
501873,492
501874,482
501875,475
501876,490
501877,495
501878,488
501879,473
501881,491
501882,492
501883,495
501884,501
501885,499
501886,503
501888,500
501889,481
501890,472
501891,478
501892,486
501893,480
501894,473
501894,472
501895,474
501896,475
501897,473
501898,482
501899,492
501900,496
501901,490
501902,482
501903,478
501904,472
501905,469
501906,474
501907,484
501908,509
501909,522
501910,513
501911,502
501912,498
501913,498
501915,492
501916,497
501917,504
501918,512
501919,517
501920,507
501921,494
501922,492
501923,490
501924,483
501925,483
501926,485
501927,484
501928,485
501929,488
501931,488
501932,489
501933,492
501934,489
501935,489
501936,490
501936,497
501937,502
501938,509
501939,521
501940,520
501941,521
501942,512
501943,506
501944,504
501945,500
501946,506
501947,512
501949,510
501950,508
501951,515
501952,520
501953,527
501954,523
501955,518
501956,515
501957,516
501958,517
501959,526
501960,532
501961,545
501962,544
501963,537
501964,530
501965,519
501966,514
501967,522
501968,518
501969,510
501970,509
501971,514
501972,516
501974,511
501975,506
501976,515
501977,528
501978,528
501979,520
501979,513
501980,509
501982,502
501983,494
501984,488
501985,480
501986,475
501987,483
501988,484
501989,478
501990,472
501991,464
501992,472
501993,472
501994,460
501995,458
501996,453
501997,459
501998,462
501999,466
502000,463
502001,458
502002,464
502003,468
502004,470
502005,472
502006,468
502007,470
502008,470
502009,474
502010,479
502011,480
502012,481
502013,482
502014,480
502016,475
502017,472
502019,472
502020,475
502021,471
502022,469
502022,471
502023,475
502024,474
502025,470
502026,467
502027,473
502028,480
502029,472
502030,463
502031,455
502032,459
502033,469
502034,472
502035,481
502036,495
502037,491
502038,482
502039,481
502040,476
502041,484
502042,496
502043,501
502044,490
502045,478
502046,478
502047,497
502048,501
502049,499
502050,493
502052,499
502053,503
502054,502
502055,503
502056,500
502057,491
502059,501
502060,508
502061,511
502062,521
502063,536
502064,545
502064,543
502065,546
502066,557
502067,581
502068,597
502069,608
502070,627
502071,651
502072,676
502073,691
502074,705
502075,723
502076,743
502077,768
502078,787
502079,809
502080,831
502081,869
502082,911
502083,937
502084,963
502086,990
502087,989
502088,989
502089,989
502090,989
502091,989
502092,990
502093,983
502094,927
502095,857
502096,791
502097,719
502098,638
502099,563
502100,484
502102,415
502103,361
502104,336
502105,315
502106,304
502107,289
502107,289
502108,299
502109,316
502110,331
502111,345
502112,343
502113,337
502114,333
502115,334
502116,340
502117,347
502119,382
502120,386
502121,393
502122,397
502123,401
502124,405
502125,406
502126,406
502127,407
502128,416
502129,420
502130,424
502131,414
502132,415
502133,412
502134,411
502135,418
502136,424
502137,416
502138,410
502139,410
502140,414
502141,432
502142,444
502144,459
502145,454
502146,444
502147,442
502148,445
502149,439
502149,431
502150,426
502151,425
502153,425
502154,434
502155,439
502156,436
502157,439
502158,436
502159,442
502160,444
502161,438
502162,437
502163,439
502164,441
502165,448
502166,463
502167,472
502168,473
502169,460
502170,456
502171,452
502172,450
502173,459
502174,468
502175,479
502176,489
502177,488
502178,481
502179,484
502180,483
502181,472
502182,462
502183,468
502184,471
502185,471
502187,471
502188,475
502190,473
502191,474
502192,475
502192,474
502193,473
502194,473
502195,478
502196,485
502197,486
502198,480
502199,479
502200,490
502201,498
502202,496
502203,500
502204,498
502205,492
502206,486
502207,489
502208,494
502209,505
502210,516
502211,515
502212,497
502213,502
502214,500
502215,496
502216,512
502217,521
502218,526
502219,520
502220,510
502221,504
502223,506
502224,503
502225,499
502226,500
502227,506
502228,508
502230,501
502231,501
502232,505
502233,507
502234,510
502235,506
502235,508
502236,516
502237,517
502238,514
502239,514
502240,516
502241,525
502242,528
502243,529
502244,529
502245,531
502246,529
502247,533
502248,533
502249,531
502250,533
502251,534
502252,534
502253,536
502254,534
502256,527
502257,524
502258,521
502259,530
502260,528
502261,526
502262,526
502263,530
502264,538
502265,545
502266,551
502267,555
502268,551
502269,548
502270,549
502272,546
502273,544
502274,546
502275,551
502276,549
502277,547
502278,546
502278,545
502279,550
502280,554
502281,560
502282,564
502283,563
502284,566
502285,563
502286,556
502287,557
502288,561
502290,570
502291,566
502292,567
502293,574
502294,574
502295,570
502296,562
502297,563
502298,565
502299,569
502300,569
502301,573
502302,577
502303,578
502304,567
502305,564
502306,561
502307,558
502308,557
502309,557
502310,555
502311,556
502312,568
502313,577
502315,575
502316,560
502317,545
502318,538
502319,537
502320,549
502320,541
502321,531
502322,532
502324,553
502325,569
502326,562
502327,549
502328,533
502329,519
502330,522
502331,526
502332,531
502333,533
502334,541
502335,540
502336,531
502337,533
502338,542
502339,548
502340,543
502341,534
502342,518
502343,515
502344,510
502345,507
502346,500
502347,497
502348,501
502349,491
502350,478
502351,478
502352,479
502353,471
502354,454
502355,446
502356,451
502358,457
502359,456
502361,434
502362,423
502363,408
502363,398
502364,394
502365,399
502366,413
502367,426
502368,425
502369,405
502370,399
502371,402
502372,411
502373,428
502374,433
502375,417
502376,410
502377,417
502378,409
502379,419
502380,421
502381,420
502382,418
502383,417
502384,409
502385,402
502386,391
502387,391
502388,380
502389,374
502390,374
502391,375
502393,391
502394,384
502395,380
502396,388
502397,399
502398,406
502400,415
502401,414
502402,407
502403,404
502404,397
502405,390
502406,377
502406,367
502407,371
502408,377
502409,381
502410,386
502411,387
502412,390
502413,398
502414,396
502415,388
502416,389
502417,395
502418,394
502419,396
502420,394
502421,388
502422,385
502423,388
502424,395
502425,404
502427,411
502428,411
502429,414
502430,413
502431,410
502432,406
502433,404
502434,405
502435,416
502436,421
502437,419
502438,426
502439,438
502440,438
502441,428
502443,420
502444,418
502445,418
502446,408
502447,398
502448,390
502448,393
502449,406
502450,411
502451,414
502452,417
502453,421
502454,424
502455,430
502456,441
502457,457
502458,469
502459,469
502461,453
502462,447
502463,446
502464,440
502465,439
502466,443
502467,456
502468,468
502469,466
502470,466
502471,467
502472,463
502473,455
502474,449
502475,445
502476,444
502477,440
502478,438
502479,437
502480,432
502481,440
502482,446
502483,446
502484,437
502486,427
502487,433
502488,450
502489,462
502490,462
502491,466
502491,471
502492,473
502494,469
502495,467
502496,468
502497,469
502498,463
502499,460
502500,463
502501,464
502502,466
502503,461
502504,455
502505,454
502506,447
502507,450
502508,454
502509,447
502510,443
502511,442
502512,436
502513,433
502514,437
502515,444
502516,460
502517,474
502518,477
502519,488
502520,504
502521,513
502522,509
502523,484
502524,471
502525,468
502526,483
502528,492
502529,487
502531,469
502532,467
502533,470
502534,476
502534,487
502535,488
502536,478
502537,468
502538,462
502539,461
502540,475
502541,482
502542,475
502543,487
502544,492
502545,481
502546,469
502547,462
502548,462
502549,467
502550,464
502551,457
502552,457
502553,457
502554,457
502555,471
502556,480
502557,481
502558,471
502559,469
502560,475
502561,476
502562,475
502564,466
502565,469
502566,474
502567,478
502568,474
502569,463
502571,451
502572,450
502573,453
502574,458
502575,466
502576,467
502576,465
502577,473
502578,489
502579,492
502580,492
502581,480
502582,474
502583,473
502584,481
502585,479
502586,470
502587,465
502588,466
502589,469
502590,467
502591,463
502592,461
502593,461
502594,460
502595,465
502596,473
502598,482
502599,472
502600,480
502601,480
502602,484
502603,489
502604,488
502605,490
502606,489
502607,484
502608,480
502609,476
502610,472
502611,477
502612,475
502614,473
502615,470
502616,469
502617,463
502618,465
502619,464
502619,463
502620,467
502621,463
502622,459
502623,457
502624,460
502625,462
502626,477
502627,497
502628,501
502629,502
502631,509
502632,506
502633,496
502634,494
502635,491
502636,492
502637,489
502638,489
502639,489
502640,495
502641,492
502642,483
502643,475
502644,473
502645,480
502646,489
502647,487
502648,487
502649,484
502650,476
502651,470
502652,464
502653,464
502654,465
502656,465
502657,466
502658,474
502659,474
502660,473
502661,479
502662,480
502662,481
502663,480
502665,478
502666,476
502667,473
502668,472
502669,474
502670,472
502671,475
502672,478
502673,480
502674,479
502675,470
502676,472
502677,478
502678,482
502679,483
502680,491
502681,490
502682,487
502683,486
502684,483
502685,481
502686,479
502687,475
502688,488
502689,494
502690,490
502691,488
502692,479
502693,474
502694,475
502695,484
502696,494
502697,491
502699,482
502700,481
502702,492
502703,495
502704,496
502704,496
502705,487
502706,482
502707,478
502708,486
502709,486
502710,486
502711,491
502712,485
502713,483
502714,482
502715,490
502716,497
502717,498
502718,496
502719,490
502720,491
502721,481
502722,473
502723,464
502724,453
502725,450
502726,455
502727,465
502728,467
502729,460
502730,451
502731,468
502732,479
502733,478
502735,486
502736,495
502737,509
502738,514
502739,510
502740,506
502742,491
502743,477
502744,475
502745,475
502746,473
502747,472
502747,482
502748,501
502749,514
502750,505
502751,503
502752,508
502753,506
502754,495
502755,481
502756,474
502757,486
502758,497
502759,496
502760,500
502761,500
502762,490
502763,476
502764,477
502765,481
502766,499
502768,511
502769,510
502770,507
502771,502
502772,499
502773,495
502774,500
502775,499
502776,490
502777,486
502778,481
502779,495
502780,512
502781,508
502782,497
502784,495
502785,497
502786,490
502787,484
502788,480
502789,475
502790,476
502790,484
502791,490
502792,486
502793,483
502794,497
502795,500
502796,497
502797,509
502798,517
502799,514
502800,515
502802,506
502803,516
502804,527
502805,527
502806,520
502807,515
502808,510
502809,510
502810,508
502811,505
502812,514
502813,532
502814,543
502815,532
502816,530
502817,539
502818,541
502819,532
502820,524
502821,518
502822,530
502823,551
502824,551
502825,543
502827,542
502828,541
502829,539
502830,545
502831,550
502832,541
502832,531
502833,519
502834,506
502836,493
502837,494
502838,486
502839,472
502840,478
502841,486
502842,486
502843,483
502844,479
502845,481
502846,473
502847,477
502848,477
502849,479
502850,480
502851,470
502852,451
502853,435
502854,440
502855,459
502856,463
502857,453
502858,446
502859,444
502860,449
502861,447
502862,455
502863,467
502864,464
502865,469
502866,482
502867,483
502868,491
502870,511
502871,501
502873,494
502874,487
502875,484
502875,472
502876,466
502877,474
502878,477
502879,476
502880,484
502881,484
502882,475
502883,472
502884,467
502885,462
502886,465
502887,468
502888,469
502889,467
502890,460
502891,456
502892,453
502893,464
502894,472
502895,471
502896,476
502897,476
502898,497
502899,514
502900,510
502901,503
502902,496
502903,495
502905,495
502906,491
502907,494
502908,498
502909,497
502910,499
502912,499
502913,495
502914,491
502915,487
502916,484
502917,485
502918,490
502918,498
502919,517
502920,532
502921,533
502922,537
502923,550
502924,566
502925,570
502926,573
502927,585
502928,603
502929,636
502930,670
502931,698
502932,714
502933,726
502934,737
502935,767
502936,794
502937,815
502939,882
502940,920
502941,956
502942,990
502943,989
502944,989
502945,989
502946,989
502947,989
502948,989
502949,989
502950,989
502951,990
502952,989
502953,931
502955,857
502956,772
502957,681
502958,586
502959,509
502960,448
502960,404
502961,371
502962,335
502963,307
502964,291
502965,280
502966,275
502967,271
502968,276
502969,287
502970,293
502971,299
502973,318
502974,338
502975,363
502976,386
502977,395
502978,389
502979,389
502980,398
502981,411
502982,418
502983,417
502984,412
502985,418
502986,410
502987,405
502988,403
502989,407
502990,417
502991,417
502992,413
502993,409
502994,413
502995,416
502996,416
502998,412
502999,404
503000,407
503001,413
503002,425
503003,423
503003,428
503004,430
503006,432
503007,438
503008,430
503009,428
503010,432
503011,435
503012,445
503013,453
503014,446
503015,436
503016,436
503017,433
503018,435
503019,439
503020,437
503021,441
503022,443
503023,455
503024,465
503025,472
503026,467
503027,465
503028,463
503029,460
503030,459
503031,458
503032,463
503033,468
503034,464
503035,460
503036,461
503037,457
503038,456
503040,449
503041,445
503043,468
503044,480
503045,478
503046,472
503046,467
503047,480
503048,495
503049,506
503050,505
503051,489
503052,472
503053,471
503054,488
503055,507
503056,507
503057,505
503058,495
503059,485
503060,488
503061,497
503062,500
503063,492
503064,485
503065,490
503066,495
503067,498
503068,494
503069,495
503070,491
503071,491
503072,496
503073,501
503074,499
503076,488
503077,480
503078,485
503079,492
503080,490
503081,501
503083,514
503084,524
503085,522
503086,518
503087,515
503088,511
503088,506
503089,507
503090,499
503091,497
503092,503
503093,509
503094,509
503095,509
503096,504
503097,501
503098,504
503099,508
503100,509
503101,510
503102,508
503103,511
503104,521
503105,526
503106,527
503107,528
503108,533
503110,544
503111,544
503112,547
503113,544
503114,538
503115,530
503116,524
503117,521
503118,528
503119,524
503120,521
503121,534
503122,544
503123,555
503124,558
503126,560
503127,567
503128,561
503129,551
503130,545
503131,548
503131,556
503132,564
503133,565
503134,566
503135,570
503136,570
503137,559
503138,546
503139,540
503140,546
503141,559
503143,563
503144,555
503145,555
503146,564
503147,564
503148,569
503149,572
503150,567
503151,564
503152,568
503153,564
503154,570
503155,575
503156,571
503157,569
503158,569
503159,574
503160,578
503161,574
503162,565
503163,568
503164,570
503165,565
503166,563
503168,564
503169,562
503170,566
503171,571
503172,555
503173,548
503173,551
503174,549
503175,545
503177,550
503178,543
503179,535
503180,539
503181,552
503182,555
503183,554
503184,537
503185,519
503186,514
503187,516
503188,519
503189,518
503190,524
503191,528
503192,534
503193,545
503194,550
503195,538
503196,527
503197,515
503198,507
503199,505
503200,499
503201,490
503202,483
503203,476
503204,474
503205,468
503206,464
503207,462
503208,463
503209,469
503211,476
503212,473
503214,461
503215,448
503216,447
503216,440
503217,432
503218,435
503219,435
503220,440
503221,447
503222,448
503223,457
503224,454
503225,450
503226,439
503227,433
503228,427
503229,422
503230,415
503231,406
503232,407
503233,403
503234,404
503235,408
503236,411
503237,409
503238,405
503239,403
503240,395
503241,397
503242,392
503243,387
503244,386
503245,385
503247,390
503248,387
503249,381
503250,381
503251,377
503252,391
503254,401
503255,399
503256,399
503257,396
503258,391
503259,387
503259,391
503260,380
503261,377
503262,369
503263,371
503264,380
503265,392
503266,406
503267,413
503268,409
503269,406
503270,402
503271,397
503272,407
503273,413
503274,408
503275,407
503276,408
503277,403
503278,407
503280,402
503281,408
503282,407
503283,408
503284,408
503285,409
503286,409
503287,408
503288,409
503289,416
503290,418
503291,412
503292,416
503293,412
503294,409
503296,404
503297,402
503298,407
503299,406
503300,402
503301,403
503302,424
503302,449
503303,456
503304,457
503305,456
503306,444
503307,439
503308,448
503309,457
503310,454
503311,450
503312,451
503314,436
503315,436
503316,441
503317,450
503318,452
503319,449
503320,444
503321,448
503322,446
503323,448
503324,450
503325,448
503326,446
503327,446
503328,446
503329,448
503330,447
503331,445
503332,442
503333,440
503334,431
503335,438
503336,452
503337,456
503339,448
503340,445
503341,445
503342,447
503343,448
503344,449
503344,448
503345,447
503346,445
503348,450
503349,454
503350,452
503351,451
503352,451
503353,456
503354,459
503355,464
503356,474
503357,472
503358,465
503359,466
503360,465
503361,464
503362,462
503363,460
503364,468
503365,475
503366,476
503367,478
503368,481
503369,480
503370,477
503371,474
503372,480
503373,478
503374,474
503375,475
503376,470
503377,462
503378,461
503379,457
503380,459
503382,465
503383,460
503385,436
503386,426
503387,425
503387,431
503388,454
503389,476
503390,488
503391,497
503392,501
503393,505
503394,498
503395,490
503396,478
503397,473
503398,466
503399,466
503400,478
503401,483
503402,485
503403,484
503404,479
503405,474
503406,461
503407,459
503408,462
503409,474
503410,481
503411,480
503412,476
503413,477
503414,473
503415,463
503417,464
503418,466
503419,462
503420,463
503421,460
503422,463
503424,465
503425,462
503426,461
503427,464
503428,461
503429,457
503429,454
503430,459
503431,459
503432,463
503433,473
503434,484
503435,477
503436,464
503437,451
503438,450
503439,460
503440,462
503441,472
503442,492
503443,509
503444,516
503445,515
503446,505
503447,497
503448,488
503449,485
503451,486
503452,490
503453,492
503454,490
503455,480
503456,465
503457,465
503458,468
503459,473
503460,476
503461,475
503462,475
503463,465
503464,467
503465,468
503467,471
503468,465
503469,454
503470,452
503471,453
503472,457
503472,460
503473,466
503474,472
503475,472
503476,470
503477,469
503478,467
503479,478
503480,497
503481,502
503482,498
503483,484
503485,493
503486,492
503487,492
503488,496
503489,489
503490,483
503491,478
503492,471
503493,472
503494,472
503495,469
503496,469
503497,467
503498,471
503499,473
503500,463
503501,454
503502,476
503503,487
503504,481
503505,490
503506,501
503507,501
503508,496
503510,497
503511,499
503512,500
503513,491
503514,490
503515,492
503515,487
503516,476
503518,471
503519,470
503520,466
503521,465
503522,469
503523,467
503524,480
503525,491
503526,494
503527,489
503528,489
503529,496
503530,503
503531,494
503532,484
503533,489
503534,485
503535,480
503536,474
503537,474
503538,480
503539,479
503540,468
503541,472
503542,488
503543,496
503544,501
503545,501
503546,501
503547,492
503548,479
503549,478
503550,477
503552,474
503553,465
503555,475
503556,490
503557,500
503558,499
503558,490
503559,488
503560,492
503561,496
503562,501
503563,493
503564,484
503565,484
503566,480
503567,469
503568,472
503569,474
503570,485
503571,492
503572,491
503573,491
503574,489
503575,494
503576,494
503577,480
503578,471
503579,464
503580,463
503581,478
503582,492
503583,491
503584,487
503585,489
503586,485
503588,472
503589,490
503590,507
503591,506
503592,497
503593,495
503595,497
503596,501
503597,499
503598,491
503599,482
503600,477
503600,479
503601,482
503602,484
503603,478
503604,479
503605,486
503606,482
503607,470
503608,461
503609,475
503610,496
503611,506
503612,504
503613,503
503614,500
503615,490
503616,484
503617,483
503618,476
503619,466
503620,476
503622,489
503623,492
503624,493
503625,489
503626,496
503627,495
503628,491
503629,484
503630,476
503631,474
503632,486
503633,487
503634,481
503635,483
503636,489
503638,489
503639,485
503640,477
503641,470
503642,468
503643,468
503643,463
503644,463
503645,463
503646,478
503647,495
503648,498
503649,493
503650,489
503651,489
503652,482
503653,482
503655,485
503656,484
503657,497
503658,513
503659,518
503660,515
503661,517
503662,526
503663,523
503664,523
503665,521
503666,514
503667,507
503668,502
503669,499
503670,501
503671,498
503672,489
503673,504
503674,504
503675,495
503676,501
503677,516
503678,519
503680,508
503681,496
503682,499
503683,509
503684,506
503685,504
503686,500
503686,495
503687,495
503689,508
503690,518
503691,523
503692,514
503693,505
503694,512
503695,519
503696,515
503697,518
503698,520
503699,525
503700,531
503701,531
503702,536
503703,521
503704,506
503705,499
503706,512
503707,535
503708,552
503709,555
503710,546
503711,534
503712,529
503713,531
503714,526
503715,518
503716,518
503717,512
503718,504
503719,499
503720,495
503721,486
503723,476
503724,468
503726,454
503727,464
503728,477
503728,472
503729,464
503730,462
503731,472
503732,493
503733,507
503734,495
503735,482
503736,479
503737,490
503738,500
503739,498
503740,482
503741,472
503742,471
503743,472
503744,471
503745,469
503746,465
503747,466
503748,471
503749,477
503750,485
503751,486
503752,481
503753,473
503754,470
503755,476
503756,471
503757,460
503759,461
503760,471
503761,472
503762,471
503763,468
503764,475
503766,484
503767,492
503768,486
503769,477
503770,470
503771,468
503771,464
503772,463
503773,467
503774,471
503775,476
503776,477
503777,476
503778,468
503779,473
503780,482
503781,482
503782,487
503783,490
503784,491
503785,489
503786,479
503787,475
503788,472
503789,477
503790,479
503792,469
503793,470
503794,474
503795,477
503796,486
503797,495
503798,493
503799,495
503800,503
503801,518
503802,522
503803,525
503804,536
503805,551
503806,551
503808,546
503809,556
503810,571
503811,581
503812,604
503813,633
503814,648
503814,664
503815,688
503816,714
503817,732
503818,762
503819,789
503820,810
503821,837
503822,863
503823,883
503824,913
503826,989
503827,990
503828,989
503829,989
503830,988
503831,989
503832,989
503833,989
503834,989
503835,989
503836,990
503837,938
503838,858
503839,787
503840,710
503841,612
503842,531
503843,452
503844,401
503845,375
503846,357
503847,320
503848,285
503849,273
503851,277
503852,275
503853,270
503854,275
503855,277
503856,287
503856,313
503857,325
503858,334
503860,358
503861,381
503862,395
503863,400
503864,397
503865,408
503866,411
503867,407
503868,411
503869,412
503870,403
503871,400
503872,403
503873,405
503874,406
503875,419
503876,434
503877,435
503878,426
503879,416
503880,414
503881,411
503882,407
503883,412
503884,425
503885,433
503886,433
503887,432
503888,432
503889,433
503890,426
503891,428
503892,434
503894,437
503895,440
503897,434
503898,436
503899,441
503899,448
503900,450
503901,455
503902,453
503903,459
503904,455
503905,450
503906,448
503907,441
503908,443
503909,456
503910,463
503911,459
503912,447
503913,443
503914,444
503915,456
503916,462
503917,472
503918,467
503919,467
503920,466
503921,464
503922,451
503923,455
503924,457
503925,459
503926,460
503927,464
503929,469
503930,471
503931,473
503932,479
503933,471
503934,468
503936,477
503937,485
503938,487
503939,492
503940,491
503941,487
503942,485
503942,493
503943,492
503944,485
503945,487
503946,483
503947,485
503948,479
503949,478
503950,477
503951,490
503952,500
503953,498
503954,499
503955,497
503956,498
503957,502
503958,506
503959,515
503960,514
503961,503
503963,502
503964,500
503965,498
503966,504
503967,510
503968,512
503969,506
503970,497
503971,502
503972,502
503973,500
503974,506
503975,503
503976,502
503977,519
503979,515
503980,521
503981,527
503982,521
503983,522
503984,529
503984,522
503985,522
503986,511
503987,515
503988,529
503989,527
503990,508
503991,504
503992,523
503993,535
503994,536
503995,541
503997,567
503998,553
503999,525
504000,512
504001,516
504002,526
504003,537
504004,534
504005,528
504006,530
504007,527
504008,531
504009,543
504010,546
504011,542
504012,534
504013,532
504014,537
504015,553
504016,562
504017,557
504018,547
504019,555
504020,567
504022,574
504023,573
504024,577
504025,573
504026,560
504027,545
504027,551
504028,559
504030,576
504031,574
504032,567
504033,566
504034,573
504035,566
504036,562
504037,560
504038,548
504039,543
504040,554
504041,558
504042,569
504043,584
504044,590
504045,584
504046,566
504047,554
504048,557
504049,562
504050,562
504051,569
504052,568
504053,566
504054,562
504055,558
504056,562
504057,575
504058,571
504059,555
504060,546
504061,557
504062,558
504064,559
504065,557
504067,535
504068,532
504069,529
504070,535
504070,534
504071,528
504072,533
504073,526
504074,530
504075,529
504076,521
504077,519
504078,531
504079,523
504080,508
504081,501
504082,509
504083,516
504084,510
504085,501
504086,493
504087,493
504088,492
504089,498
504090,495
504091,500
504092,493
504093,484
504094,482
504095,465
504096,461
504097,452
504098,448
504100,445
504101,451
504102,453
504103,450
504104,441
504105,444
504107,444
504108,437
504109,435
504110,427
504111,423
504112,423
504112,424
504113,417
504114,414
504115,416
504116,424
504117,422
504118,412
504119,400
504120,393
504121,393
504122,386
504123,379
504124,372
504125,373
504126,381
504127,393
504128,411
504129,431
504130,441
504131,432
504132,411
504134,396
504135,393
504136,394
504137,395
504138,391
504139,384
504140,389
504141,388
504142,391
504143,401
504144,399
504145,394
504146,390
504147,388
504148,395
504150,408
504151,410
504152,404
504153,408
504154,412
504155,419
504155,409
504156,394
504157,388
504158,386
504159,389
504160,400
504161,411
504162,417
504163,422
504164,424
504165,432
504167,425
504168,416
504169,405
504170,394
504171,395
504172,401
504173,411
504174,420
504175,421
504176,423
504177,419
504178,411
504179,410
504180,415
504181,424
504182,426
504183,429
504184,433
504185,438
504186,432
504187,433
504188,440
504189,436
504190,432
504192,420
504193,415
504194,415
504195,423
504196,424
504197,422
504198,430
504198,433
504199,428
504201,457
504202,466
504203,468
504204,467
504205,463
504206,458
504207,449
504208,446
504209,443
504210,438
504211,432
504212,442
504213,460
504214,469
504215,461
504216,450
504217,448
504218,446
504219,442
504220,443
504221,450
504222,457
504223,458
504224,454
504225,459
504226,464
504227,467
504228,463
504229,464
504230,456
504231,462
504232,465
504233,456
504235,448
504236,451
504238,457
504239,466
504240,466
504240,460
504241,474
504242,483
504243,474
504244,472
504245,464
504246,464
504247,463
504248,464
504249,463
504250,456
504251,455
504252,451
504253,455
504254,458
504255,470
504256,477
504257,474
504258,483
504259,487
504260,473
504261,467
504262,469
504263,467
504264,468
504265,467
504266,461
504267,451
504268,452
504269,458
504271,465
504272,470
504273,472
504274,481
504275,485
504276,485
504278,481
504279,477
504280,473
504281,472
504282,477
504283,481
504283,480
504284,478
504285,472
504286,471
504287,472
504288,464
504289,456
504290,464
504291,474
504292,485
504293,489
504294,479
504295,482
504296,481
504297,476
504298,473
504299,464
504300,461
504301,463
504302,467
504304,467
504305,459
504306,461
504307,469
504308,478
504309,478
504310,475
504311,470
504312,470
504313,475
504314,478
504315,476
504316,483
504317,483
504318,475
504320,465
504321,463
504322,468
504323,478
504324,482
504325,485
504325,480
504326,479
504327,468
504328,466
504329,474
504330,489
504331,495
504332,491
504333,488
504334,484
504335,479
504336,479
504338,478
504339,470
504340,463
504341,461
504342,458
504343,460
504344,466
504345,460
504346,458
504347,468
504348,469
504349,463
504350,471
504351,473
504352,471
504353,469
504354,471
504355,478
504356,476
504357,476
504358,481
504359,493
504360,503
504361,502
504363,489
504364,483
504365,488
504366,489
504367,482
504368,480
504368,480
504369,483
504370,485
504372,487
504373,484
504374,473
504375,470
504376,478
504377,493
504378,502
504379,494
504380,485
504381,483
504382,479
504383,472
504384,471
504385,474
504386,475
504387,475
504388,472
504389,476
504390,483
504391,480
504392,476
504393,485
504394,486
504395,486
504396,490
504397,491
504398,488
504399,492
504400,488
504401,484
504402,481
504403,475
504404,486
504406,492
504407,496
504409,485
504410,479
504411,483
504411,480
504412,479
504413,480
504414,478
504415,479
504416,474
504417,467
504418,466
504419,467
504420,469
504421,474
504422,494
504423,501
504424,499
504425,494
504426,493
504427,484
504428,481
504429,481
504430,480
504431,478
504432,478
504433,483
504434,490
504435,494
504436,493
504437,492
504438,495
504439,492
504441,478
504442,480
504443,483
504444,489
504445,485
504446,485
504448,491
504449,488
504450,480
504451,472
504452,475
504453,478
504454,483
504454,489
504455,491
504456,486
504457,483
504458,493
504459,491
504460,484
504461,482
504462,483
504463,485
504464,495
504465,500
504466,507
504467,505
504468,498
504469,492
504470,488
504471,483
504472,485
504473,480
504475,487
504476,486
504477,485
504478,484
504479,496
504480,492
504481,488
504482,480
504483,476
504484,478
504485,477
504486,473
504487,478
504488,480
504489,477
504491,477
504492,478
504493,480
504494,483
504495,484
504496,485
504496,481
504497,481
504498,483
504499,494
504500,510
504501,517
504502,511
504503,500
504504,497
504505,493
504506,485
504507,479
504509,486
504510,489
504511,484
504512,477
504513,475
504514,477
504515,482
504516,485
504517,481
504518,482
504519,487
504520,500
504521,504
504522,500
504523,506
504524,512
504525,507
504526,510
504527,520
504528,521
504529,519
504530,514
504531,506
504532,497
504534,501
504535,500
504536,497
504537,499
504538,501
504539,501
504539,496
504540,498
504542,517
504543,520
504544,527
504545,524
504546,519
504547,519
504548,523
504549,524
504550,527
504551,519
504552,518
504553,519
504554,523
504555,537
504556,544
504557,537
504558,523
504559,525
504560,522
504561,515
504562,513
504563,514
504564,516
504565,513
504566,509
504567,497
504568,485
504569,479
504570,475
504571,466
504572,468
504573,485
504574,497
504576,502
504577,508
504579,493
504580,469
504581,448
504582,442
504582,448
504583,450
504584,458
504585,462
504586,464
504587,462
504588,453
504589,447
504590,448
504591,443
504592,447
504593,460
504594,470
504595,474
504596,470
504597,460
504598,462
504599,480
504600,481
504601,472
504602,467
504603,465
504604,466
504605,463
504606,465
504607,465
504608,464
504609,465
504610,473
504612,482
504613,482
504614,481
504615,477
504616,475
504617,475
504619,474
504620,483
504621,487
504622,480
504623,475
504624,467
504624,480
504625,478
504626,466
504627,459
504628,469
504629,476
504630,474
504631,475
504632,473
504633,470
504634,470
504635,474
504636,469
504637,473
504638,483
504639,499
504640,502
504641,501
504642,509
504643,509
504644,510
504646,500
504647,487
504648,482
504649,488
504650,493
504651,505
504652,527
504653,547
504654,548
504655,555
504656,565
504657,570
504658,576
504659,588
504660,603
504662,634
504663,669
504664,690
504665,721
504666,744
504667,760
504667,775
504668,795
504669,817
504670,853
504671,905
504672,940
504673,974
504674,990
504675,990
504676,989
504677,989
504679,989
504680,989
504681,989
504682,990
504683,969
504684,907
504685,839
504686,766
504687,688
504688,595
504689,506
504690,433
504691,381
504692,346
504693,316
504694,304
504695,295
504696,291
504697,280
504698,272
504699,269
504700,267
504701,283
504702,300
504704,314
504705,332
504706,350
504707,357
504708,363
504709,364
504710,368
504710,381
504711,388
504713,406
504714,407
504715,405
504716,399
504717,396
504718,405
504719,422
504720,427
504721,425
504722,422
504723,415
504724,404
504725,398
504726,398
504727,403
504728,412
504729,419
504730,418
504731,411
504732,404
504733,406
504734,407
504735,413
504736,420
504737,430
504738,448
504739,461
504740,462
504741,451
504742,437
504743,430
504744,434
504745,442
504747,443
504748,432
504750,437
504751,444
504752,450
504752,453
504753,449
504754,443
504755,445
504756,451
504757,457
504758,464
504759,466
504760,463
504761,456
504762,458
504763,462
504764,461
504765,462
504766,453
504767,443
504768,444
504769,447
504770,453
504771,458
504772,466
504773,471
504774,468
504775,470
504776,481
504777,483
504778,483
504779,480
504780,479
504781,479
504783,473
504784,465
504785,463
504786,466
504787,474
504788,474
504790,475
504791,480
504792,480
504793,475
504794,469
504795,477
504795,488
504796,493
504797,499
504798,494
504799,485
504800,482
504801,477
504802,476
504803,488
504804,497
504805,505
504806,501
504807,499
504808,501
504809,511
504810,516
504811,510
504812,499
504813,494
504814,496
504816,494
504817,500
504818,513
504819,513
504820,507
504821,511
504822,512
504823,516
504824,519
504825,519
504826,518
504827,512
504828,513
504829,515
504830,514
504832,516
504833,518
504834,521
504835,518
504836,508
504837,505
504837,504
504838,498
504839,504
504840,506
504841,514
504842,523
504843,521
504844,525
504845,541
504846,536
504847,535
504848,540
504850,545
504851,543
504852,542
504853,542
504854,539
504855,534
504856,538
504857,539
504858,538
504859,539
504860,533
504861,532
504862,542
504863,548
504864,543
504865,549
504866,555
504867,554
504868,546
504869,546
504870,545
504871,544
504872,549
504873,553
504875,553
504876,549
504877,547
504878,555
504879,557
504880,552
504880,554
504881,558
504882,558
504884,555
504885,569
504886,575
504887,581
504888,573
504889,572
504890,569
504891,567
504892,561
504893,558
504894,557
504895,559
504896,571
504897,575
504898,565
504899,553
504900,550
504901,550
504902,553
504903,561
504904,559
504905,557
504906,542
504907,542
504908,543
504909,533
504910,530
504911,536
504912,532
504913,521
504914,524
504915,522
504916,521
504918,518
504919,519
504921,529
504922,532
504923,538
504923,533
504924,518
504925,519
504926,519
504927,518
504928,517
504929,514
504930,515
504931,507
504932,499
504933,498
504934,486
504935,472
504936,473
504937,472
504938,461
504939,450
504940,448
504941,444
504942,438
504943,436
504944,443
504945,462
504946,456
504947,443
504948,434
504949,426
504950,420
504951,424
504953,420
504954,415
504955,404
504956,396
504957,397
504958,402
504960,398
504961,403
504962,404
504963,401
504964,402
504965,403
504965,408
504966,393
504967,389
504968,386
504969,384
504970,389
504971,395
504972,392
504973,381
504974,371
504975,368
504976,383
504977,388
504978,385
504979,385
504980,378
504981,374
504982,381
504983,391
504984,399
504985,403
504987,397
504988,386
504989,371
504990,367
504991,371
504992,374
504993,380
504994,393
504995,393
504996,379
504997,368
504998,368
504999,377
505000,386
505001,392
505003,395
505004,392
505005,391
505006,395
505007,388
505008,386
505008,384
505009,392
505010,395
505011,398
505012,393
505013,391
505014,387
505015,388
505016,401
505017,409
505018,410
505019,414
505021,413
505022,401
505023,396
505024,398
505025,409
505026,415
505027,415
505028,411
505029,410
505030,409
505031,407
505032,408
505033,410
505034,415
505035,414
505036,411
505037,416
505038,419
505039,422
505040,427
505041,431
505042,442
505043,447
505044,443
505046,439
505047,432
505048,432
505049,440
505050,443
505051,443
505051,431
505052,425
505054,423
505055,426
505056,436
505057,435
505058,430
505059,433
505060,434
505061,430
505062,435
505063,443
505064,449
505065,448
505066,437
505067,434
505068,442
505069,457
505070,452
505071,445
505072,444
505073,439
505074,434
505075,431
505076,437
505077,443
505078,441
505079,444
505080,448
505081,446
505082,451
505083,466
505084,467
505085,464
505086,460
505088,456
505089,455
505091,456
505092,450
505093,449
505094,447
505094,449
505095,453
505096,460
505097,459
505098,453
505099,458
505100,452
505101,447
505102,451
505103,456
505104,455
505105,461
505106,460
505107,463
505108,464
505109,467
505110,461
505111,448
505112,444
505113,449
505114,453
505115,444
505116,433
505117,431
505118,436
505119,450
505120,465
505121,469
505122,470
505124,483
505125,486
505126,476
505127,473
505128,471
505129,463
505131,453
505132,443
505133,444
505134,450
505135,457
505136,463
505136,464
505137,477
505138,482
505139,473
505140,463
505141,457
505142,463
505143,467
505144,463
505145,458
505146,449
505147,445
505148,458
505149,464
505150,460
505151,461
505152,468
505153,466
505154,467
505155,477
505156,476
505158,472
505159,467
505160,463
505161,466
505162,470
505163,473
505164,475
505165,476
505166,467
505167,451
505168,453
505169,454
505170,450
505171,452
505172,459
505174,455
505175,447
505176,444
505177,454
505178,456
505179,457
505179,454
505180,450
505181,444
505182,446
505183,465
505184,493
505185,508
505186,490
505187,452
505188,430
505189,426
505191,445
505192,462
505193,474
505194,483
505195,493
505196,501
505197,496
505198,487
505199,476
505200,469
505201,464
505202,457
505203,462
505204,461
505205,456
505206,452
505207,456
505208,460
505209,464
505210,463
505211,456
505212,453
505213,465
505214,471
505216,468
505217,460
505218,460
505219,467
505220,464
505221,459
505222,464
505222,471
505223,486
505225,491
505226,487
505227,476
505228,479
505229,490
505230,493
505231,486
505232,482
505233,480
505234,481
505235,480
505236,476
505237,475
505238,473
505239,473
505240,475
505241,475
505242,466
505243,469
505244,479
505245,478
505246,472
505247,463
505248,458
505249,457
505250,460
505251,465
505252,462
505253,460
505254,453
505255,445
505256,442
505257,452
505259,457
505260,461
505262,480
505263,476
505264,477
505264,487
505265,500
505266,501
505267,499
505268,498
505269,494
505270,486
505271,475
505272,474
505273,477
505274,479
505275,475
505276,472
505277,478
505278,483
505279,489
505280,501
505281,498
505282,487
505283,477
505284,474
505285,482
505286,492
505287,479
505288,465
505289,465
505290,466
505291,469
505292,468
505293,466
505295,472
505296,478
505297,485
505298,485
505299,485
505300,493
505302,490
505303,484
505304,478
505305,472
505306,467
505307,468
505307,466
505308,469
505309,482
505310,485
505311,478
505312,473
505313,472
505314,472
505315,469
505316,466
505317,468
505318,472
505319,475
505320,475
505321,476
505322,475
505323,472
505324,464
505325,464
505326,462
505328,442
505329,444
505330,451
505331,459
505332,463
505333,468
505334,481
505335,496
505336,500
505337,501
505338,491
505339,489
505340,497
505341,503
505342,494
505344,485
505345,488
505346,489
505347,493
505348,496
505349,494
505350,495
505350,495
505351,490
505352,490
505353,490
505354,490
505355,494
505356,485
505357,481
505358,476
505359,475
505360,478
505362,475
505363,481
505364,482
505365,478
505366,487
505367,478
505368,474
505369,471
505370,460
505371,453
505372,467
505373,480
505374,488
505375,491
505376,489
505377,486
505378,479
505379,480
505380,485
505381,492
505382,495
505383,492
505384,487
505385,496
505387,504
505388,499
505389,482
505390,476
505391,469
505392,464
505392,466
505393,470
505394,471
505396,466
505397,479
505398,483
505399,468
505400,459
505401,457
505402,459
505403,458
505404,469
505405,492
505406,520
505407,523
505408,523
505409,521
505410,518
505411,517
505412,514
505413,509
505414,506
505415,504
505416,505
505417,513
505418,520
505419,522
505420,523
505421,524
505422,523
505423,528
505424,534
505425,527
505426,525
505427,527
505428,525
505430,516
505431,508
505433,503
505434,507
505435,513
505435,524
505436,527
505437,535
505438,544
505439,537
505440,527
505441,519
505442,511
505443,516
505444,515
505445,508
505446,511
505447,510
505448,509
505449,505
505450,497
505451,484
505452,482
505453,484
505454,484
505455,486
505456,490
505457,495
505458,489
505459,480
505460,472
505461,468
505462,468
505463,462
505465,464
505466,466
505467,459
505468,456
505469,452
505470,450
505472,450
505473,448
505474,454
505475,459
505476,456
505477,454
505477,459
505478,465
505479,469
505480,471
505481,467
505482,464
505483,463
505484,458
505485,459
505486,462
505487,451
505488,444
505489,442
505490,446
505491,453
505492,452
505493,462
505494,472
505495,491
505496,500
505497,500
505499,495
505500,492
505501,485
505502,476
505503,473
505504,476
505505,475
505506,471
505507,459
505508,457
505509,455
505510,464
505511,477
505512,485
505513,481
505515,475
505516,471
505517,462
505518,464
505519,467
505520,479
505520,492
505521,485
505522,472
505523,475
505524,490
505525,502
505526,499
505527,490
505528,488
505529,481
505530,478
505531,484
505533,505
505534,510
505535,517
505536,521
505537,530
505538,542
505539,553
505540,569
505541,590
505542,619
505543,640
505544,663
505545,681
505546,702
505547,722
505548,734
505549,750
505550,777
505551,807
505552,837
505553,870
505554,910
505555,954
505556,990
505558,989
505559,989
505560,989
505561,989
505562,988
505563,988
505563,988
505564,989
505566,989
505567,974
505568,895
505569,813
505570,725
505571,628
505572,541
505573,473
505574,420
505575,381
505576,345
505577,317
505578,301
505579,290
505580,289
505581,289
505582,281
505583,271
505584,275
505585,294
505586,310
505587,323
505588,332
505589,339
505590,351
505591,355
505592,366
505593,379
505594,383
505595,386
505596,398
505597,404
505598,412
505600,416
505601,402
505603,402
505604,415
505605,413
505606,406
505606,402
505607,403
505608,405
505609,409
505610,412
505611,409
505612,412
505613,416
505614,412
505615,411
505616,415
505617,414
505618,419
505619,418
505620,420
505621,423
505622,432
505623,444
505624,446
505625,450
505626,446
505627,438
505628,435
505629,420
505630,420
505631,429
505632,431
505633,432
505634,432
505636,441
505637,442
505638,444
505639,444
505640,443
505641,446
505643,451
505644,455
505645,460
505646,465
505647,458
505648,468
505648,482
505649,483
505650,484
505651,479
505652,479
505653,478
505654,472
505655,470
505656,469
505657,460
505658,459
505659,462
505660,472
505661,476
505662,474
505663,468
505664,466
505665,469
505666,473
505667,484
505668,498
505670,492
505671,486
505672,484
505673,480
505674,475
505675,477
505676,479
505677,475
505678,475
505679,470
505680,471
505681,478
505682,479
505683,480
505684,488
505686,487
505687,482
505688,488
505689,486
505690,484
505691,480
505691,475
505692,486
505693,491
505694,490
505695,491
505696,508
505697,512
505698,513
505699,518
505700,514
505701,509
505703,510
505704,511
505705,506
505706,505
505707,512
505708,509
505709,505
505710,497
505711,501
505712,515
505713,522
505714,526
505715,527
505716,519
505717,525
505718,535
505719,541
505720,535
505721,528
505722,527
505723,524
505724,514
505725,506
505726,503
505728,505
505729,512
505730,529
505731,540
505732,539
505733,539
505733,538
505734,552
505735,567
505737,545
505738,536
505739,533
505740,533
505741,539
505742,544
505743,555
505744,558
505745,558
505746,554
505747,551
505748,549
505749,557
505750,556
505751,550
505752,539
505753,539
505754,542
505755,534
505756,532
505757,533
505758,530
505759,536
505760,557
505761,564
505762,563
505763,568
505764,575
505765,584
505766,577
505767,568
505768,568
505769,573
505771,572
505772,559
505774,557
505775,560
505776,562
505776,568
505777,572
505778,563
505779,555
505780,558
505781,562
505782,575
505783,581
505784,578
505785,564
505786,552
505787,561
505788,567
505789,573
505790,570
505791,557
505792,544
505793,528
505794,526
505795,538
505796,549
505797,554
505798,566
505799,564
505800,555
505801,535
505802,514
505803,512
505804,510
505805,515
505807,532
505808,530
505809,525
505810,521
505811,516
505812,510
505814,501
505815,500
505816,515
505817,515
505818,505
505819,495
505819,484
505820,474
505821,462
505822,450
505823,440
505824,437
505825,439
505826,451
505827,469
505828,467
505829,458
505830,443
505831,437
505832,436
505833,452
505834,459
505835,468
505836,475
505837,463
505838,453
505840,431
505841,427
505842,427
505843,423
505844,420
505845,416
505846,413
505847,413
505848,409
505849,401
505850,396
505851,395
505852,397
505853,403
505854,390
505856,376
505857,382
505858,386
505859,381
505860,389
505861,405
505861,411
505862,404
505863,400
505864,396
505865,398
505866,401
505867,412
505868,414
505869,409
505870,408
505871,403
505872,401
505874,401
505875,400
505876,386
505877,376
505878,377
505879,374
505880,378
505881,376
505882,377
505883,385
505884,389
505885,394
505886,382
505887,372
505888,367
505889,376
505890,391
505891,410
505892,410
505893,401
505894,407
505895,404
505896,406
505897,417
505899,422
505900,421
505901,417
505902,409
505903,411
505904,420
505904,417
505905,423
505906,425
505908,424
505909,417
505910,419
505911,423
505912,422
505913,423
505914,413
505915,409
505916,415
505917,419
505918,422
505919,427
505920,432
505921,434
505922,430
505923,422
505924,413
505925,411
505926,410
505927,427
505928,435
505929,437
505930,437
505931,430
505932,430
505933,439
505934,437
505935,433
505936,433
505937,433
505938,434
505939,435
505940,440
505942,444
505943,439
505945,422
505946,430
505947,437
505947,441
505948,439
505949,436
505950,437
505951,452
505952,461
505953,458
505954,451
505955,447
505956,449
505957,450
505958,448
505959,450
505960,465
505961,473
505962,477
505963,472
505964,464
505965,464
505966,465
505967,475
505968,460
505969,438
505970,439
505971,448
505972,447
505973,441
505974,444
505975,451
505977,464
505978,460
505979,461
505980,451
505981,436
505982,428
505984,420
505985,425
505986,432
505987,434
505988,436
505989,439
505990,438
505990,432
505991,428
505992,434
505993,451
505994,454
505995,458
505996,460
505997,456
505998,456
505999,460
506000,456
506001,429
506002,437
506003,450
506004,460
506005,470
506006,453
506007,451
506008,455
506009,447
506011,447
506012,453
506013,450
506014,454
506015,474
506016,481
506017,472
506018,464
506019,456
506020,455
506021,466
506022,468
506023,453
506024,449
506025,455
506027,458
506028,452
506029,448
506030,450
506031,453
506032,454
506032,457
506033,460
506034,459
506035,455
506036,457
506037,455
506038,450
506039,450
506040,448
506041,447
506042,438
506043,443
506045,449
506046,454
506047,465
506048,459
506049,447
506050,447
506051,453
506052,464
506053,464
506054,461
506055,452
506056,448
506057,442
506058,443
506059,437
506060,429
506061,425
506062,424
506063,431
506064,442
506065,447
506066,446
506067,447
506068,463
506070,460
506071,453
506072,451
506073,441
506074,434
506075,426
506075,421
506076,425
506078,437
506079,441
506080,447
506081,447
506082,452
506083,462
506084,454
506085,444
506086,448
506087,465
506088,472
506089,461
506090,459
506091,451
506092,449
506093,452
506094,456
506095,445
506096,440
506097,441
506098,443
506099,457
506100,468
506101,454
506102,438
506103,437
506104,444
506105,455
506106,463
506107,474
506108,476
506109,463
506110,455
506112,458
506113,459
506115,458
506116,457
506117,449
506118,444
506118,444
506119,452
506120,454
506121,453
506122,450
506123,442
506124,441
506125,452
506126,463
506127,462
506128,456
506129,445
506130,443
506131,441
506132,441
506133,440
506134,440
506135,451
506136,455
506137,449
506138,443
506139,429
506140,418
506141,426
506142,433
506143,438
506144,442
506145,443
506146,442
506148,438
506149,438
506150,445
506151,454
506152,454
506153,454
506155,449
506156,443
506157,435
506158,442
506159,448
506160,453
506160,445
506161,427
506162,422
506163,426
506164,433
506165,437
506166,452
506167,455
506168,453
506169,450
506170,447
506171,448
506172,457
506173,461
506174,453
506175,447
506176,455
506177,464
506178,465
506179,465
506180,460
506182,452
506183,447
506184,442
506185,445
506186,447
506187,451
506188,458
506189,448
506190,439
506191,440
506192,438
506193,441
506194,447
506195,440
506196,430
506198,433
506199,445
506200,465
506201,464
506202,459
506203,452
506203,438
506204,435
506205,441
506206,451
506207,457
506208,450
506209,445
506210,452
506211,459
506212,454
506213,442
506215,430
506216,439
506217,448
506218,437
506219,432
506220,426
506221,425
506222,427
506223,432
506224,449
506225,466
506226,454
506227,450
506228,463
506229,458
506230,448
506231,450
506232,447
506233,436
506234,441
506235,442
506236,436
506237,438
506238,438
506240,438
506241,437
506242,444
506243,445
506244,436
506245,430
506246,430
506246,429
506247,426
506249,435
506250,439
506251,432
506252,436
506253,438
506254,441
506255,441
506256,439
506257,433
506258,427
506259,432
506260,437
506261,442
506262,455
506263,462
506264,456
506265,453
506266,451
506267,443
506268,437
506269,437
506270,448
506271,455
506272,452
506273,459
506274,470
506275,476
506276,477
506277,470
506278,449
506279,451
506280,448
506281,450
506283,441
506284,436
506286,423
506287,415
506288,416
506288,438
506289,447
506290,436
506291,427
506292,438
506293,446
506294,468
506295,485
506296,476
506297,464
506298,464
506299,471
506300,468
506301,472
506302,473
506303,470
506304,456
506305,452
506306,461
506307,465
506308,463
506309,465
506310,471
506311,465
506312,464
506313,471
506314,471
506315,459
506316,458
506317,485
506319,517
506320,510
506321,491
506322,475
506323,474
506324,481
506326,479
506327,490
506328,494
506329,493
506330,477
506331,481
506331,477
506332,465
506333,457
506334,447
506335,449
506336,466
506337,471
506338,460
506339,447
506340,436
506341,428
506342,427
506343,429
506344,419
506345,421
506346,431
506347,421
506348,410
506349,410
506350,418
506352,423
506353,423
506354,419
506355,412
506356,413
506357,418
506358,422
506359,429
506360,424
506361,412
506362,410
506363,426
506364,434
506365,424
506366,413
506368,408
506369,426
506370,430
506371,430
506372,427
506373,425
506374,412
506374,419
506375,434
506376,434
506377,424
506378,408
506379,404
506380,415
506381,423
506382,430
506383,432
506384,429
506386,419
506387,417
506388,428
506389,437
506390,441
506391,443
506392,434
506393,425
506394,422
506395,412
506396,408
506397,414
506398,423
506399,436
506400,433
506401,433
506402,431
506403,428
506404,419
506405,409
506406,408
506407,422
506408,440
506409,442
506411,448
506412,444
506413,433
506414,430
506415,431
506416,433
506416,439
506417,442
506418,435
506420,459
506421,485
506422,499
506423,503
506424,501
506425,500
506426,504
506427,519
506428,539
506429,557
506430,571
506431,587
506432,611
506433,634
506434,663
506435,684
506436,705
506437,730
506438,752
506439,771
506440,794
506441,819
506442,849
506443,885
506444,923
506445,942
506446,955
506447,975
506448,990
506449,990
506450,989
506451,989
506452,990
506454,981
506455,930
506457,796
506458,723
506459,643
506459,564
506460,491
506461,416
506462,353
506463,319
506464,295
506465,273
506466,258
506467,258
506468,262
506469,248
506470,242
506471,248
506472,244
506473,245
506474,251
506475,262
506476,273
506477,283
506478,283
506479,293
506480,314
506481,327
506482,333
506483,344
506484,354
506485,357
506486,357
506487,363
506489,376
506490,367
506491,360
506492,357
506493,367
506494,377
506496,372
506497,369
506498,366
506499,369
506500,372
506501,373
506502,372
506502,372
506503,366
506504,364
506505,373
506506,376
506507,381
506508,368
506509,363
506510,369
506511,375
506512,372
506513,370
506514,372
506515,384
506516,387
506517,394
506518,409
506519,412
506520,413
506521,408
506523,402
506524,403
506525,408
506526,415
506527,414
506528,410
506529,418
506530,420
506531,423
506532,426
506533,422
506534,410
506535,398
506536,391
506537,390
506539,387
506540,398
506541,412
506542,409
506543,407
506544,435
506544,448
506545,445
506546,443
506547,436
506548,426
506549,421
506550,426
506551,432
506552,433
506553,429
506554,430
506555,439
506557,463
506558,455
506559,451
506560,441
506561,429
506562,433
506563,440
506564,444
506565,444
506566,436
506567,427
506568,423
506569,428
506570,434
506571,444
506572,436
506573,438
506574,440
506575,444
506576,444
506577,442
506578,443
506579,444
506580,442
506582,434
506583,429
506584,430
506585,436
506586,440
506587,450
506587,459
506588,479
506590,485
506591,477
506592,474
506593,467
506594,460
506595,471
506596,477
506597,488
506598,496
506599,482
506600,478
506601,475
506602,467
506603,458
506604,457
506605,461
506606,467
506607,474
506608,482
506609,489
506610,502
506611,506
506612,497
506613,505
506614,501
506615,488
506616,491
506617,494
506618,492
506619,492
506620,499
506621,502
506622,499
506624,498
506625,487
506627,491
506628,500
506629,499
506630,497
506630,496
506631,499
506632,505
506633,506
506634,502
506635,510
506636,512
506637,502
506638,498
506639,504
506640,507
506641,515
506642,517
506643,509
506644,508
506645,509
506646,520
506647,527
506648,525
506649,531
506650,536
506651,538
506652,546
506653,546
506654,535
506655,523
506656,519
506657,513
506658,507
506660,500
506661,501
506662,502
506663,510
506664,515
506665,519
506667,530
506668,531
506669,532
506670,539
506671,533
506672,531
506672,529
506673,529
506674,530
506675,539
506676,544
506677,531
506678,522
506679,506
506680,501
506681,501
506682,502
506683,491
506684,485
506685,490
506686,492
506687,495
506688,500
506689,501
506690,506
506691,512
506692,507
506694,487
506695,480
506696,478
506697,474
506698,474
506699,483
506700,489
506701,490
506702,496
506703,491
506704,479
506705,463
506706,454
506707,449
506708,449
506710,452
506711,435
506712,414
506713,403
506714,403
506715,406
506715,400
506716,406
506717,430
506718,446
506719,447
506720,440
506721,423
506722,411
506723,406
506724,408
506725,413
506727,402
506728,395
506729,395
506730,388
506731,387
506732,386
506733,382
506734,378
506735,380
506736,383
506737,384
506738,378
506739,373
506740,371
506741,366
506742,371
506743,373
506744,366
506745,360
506746,361
506747,355
506748,350
506749,349
506750,344
506752,340
506753,341
506754,353
506755,353
506756,346
506757,355
506758,368
506758,370
506759,355
506761,359
506762,364
506763,369
506764,366
506765,365
506766,364
506767,366
506768,375
506769,388
506770,384
506771,377
506772,376
506773,378
506774,381
506775,375
506776,371
506777,372
506778,375
506779,372
506780,379
506781,381
506782,382
506783,380
506784,381
506785,381
506786,375
506787,374
506788,378
506789,382
506790,390
506791,390
506792,385
506793,382
506795,386
506796,386
506798,381
506799,385
506800,395
506800,408
506801,413
506802,408
506803,404
506804,402
506805,400
506806,400
506807,397
506808,400
506809,408
506810,415
506811,426
506812,438
506813,447
506814,444
506815,436
506816,431
506817,429
506818,436
506819,434
506820,426
506821,424
506822,425
506823,426
506824,416
506825,410
506826,418
506827,427
506828,424
506829,419
506831,416
506832,429
506833,430
506834,419
506835,408
506836,412
506838,427
506839,433
506840,433
506841,436
506842,431
506843,429
506843,430
506844,433
506845,445
506846,440
506847,428
506848,432
506849,446
506850,464
506851,481
506852,479
506853,468
506854,458
506855,454
506856,456
506857,455
506858,453
506859,443
506860,438
506861,446
506862,444
506863,445
506865,434
506866,435
506867,449
506868,456
506869,462
506870,467
506871,460
506872,451
506873,446
506874,449
506875,449
506876,448
506877,451
506878,461
506880,469
506881,474
506882,474
506883,463
506884,455
506885,452
506886,455
506886,460
506887,461
506888,460
506889,470
506890,469
506891,464
506892,471
506893,476
506894,469
506895,465
506896,471
506898,468
506899,465
506900,460
506901,457
506902,458
506903,450
506904,452
506905,448
506906,447
506907,445
506908,450
506909,458
506910,463
506911,465
506912,463
506913,453
506914,446
506915,442
506916,453
506917,461
506918,461
506919,466
506920,481
506921,496
506923,498
506924,488
506925,477
506926,473
506927,477
506928,473
506928,464
506929,460
506930,455
506932,466
506933,469
506934,464
506935,459
506936,459
506937,464
506938,469
506939,463
506940,464
506941,464
506942,469
506943,483
506944,492
506945,499
506946,499
506947,504
506948,505
506949,489
506950,483
506951,483
506952,480
506953,466
506954,459
506955,462
506956,462
506957,466
506958,479
506959,490
506960,488
506961,479
506962,473
506963,466
506964,471
506966,475
506967,471
506969,474
506970,483
506971,482
506971,473
506972,466
506973,463
506974,474
506975,480
506976,480
506977,486
506978,482
506979,475
506980,473
506981,488
506982,505
506983,508
506984,510
506985,496
506986,486
506987,489
506988,493
506989,495
506990,496
506991,489
506992,482
506993,483
506994,480
506995,484
506996,484
506997,481
506998,480
506999,479
507001,488
507002,490
507003,490
507004,495
507005,485
507006,483
507008,499
507009,499
507010,488
507011,489
507012,488
507013,495
507014,495
507014,490
507015,489
507016,487
507017,483
507018,473
507019,481
507020,497
507021,503
507022,499
507023,502
507024,504
507025,507
507026,504
507027,497
507028,492
507029,491
507030,497
507031,496
507032,495
507033,493
507035,503
507036,496
507037,493
507038,496
507039,489
507040,476
507041,476
507042,478
507043,484
507044,503
507045,516
507046,517
507047,518
507048,516
507049,515
507051,516
507052,517
507053,517
507054,510
507055,512
507056,513
507056,513
507057,514
507058,508
507059,504
507060,503
507061,506
507062,497
507063,494
507064,492
507065,491
507066,491
507067,488
507069,494
507070,509
507071,503
507072,492
507073,484
507074,481
507075,486
507076,496
507077,514
507078,518
507079,521
507080,517
507081,510
507082,501
507083,502
507084,507
507085,509
507086,508
507087,503
507088,497
507089,491
507090,491
507091,487
507092,496
507094,508
507095,520
507096,523
507097,520
507098,504
507099,499
507099,496
507100,501
507102,546
507103,554
507104,546
507105,531
507106,529
507107,533
507108,536
507109,533
507110,529
507111,519
507112,517
507113,515
507114,519
507115,524
507116,524
507117,522
507118,515
507119,513
507120,506
507121,513
507122,518
507123,518
507124,516
507125,515
507126,513
507127,513
507128,531
507129,552
507130,556
507131,547
507132,543
507133,539
507134,532
507136,527
507137,524
507139,528
507140,521
507141,509
507141,507
507142,514
507143,514
507144,526
507145,532
507146,540
507147,559
507148,577
507149,583
507150,586
507151,579
507152,573
507153,574
507154,569
507155,556
507156,550
507157,544
507158,542
507159,551
507160,548
507161,545
507162,545
507163,551
507164,562
507165,572
507166,566
507167,554
507168,547
507169,544
507170,542
507172,544
507173,542
507174,531
507175,522
507176,518
507177,512
507179,508
507180,506
507181,505
507182,503
507183,503
507184,505
507184,500
507185,493
507186,492
507187,500
507188,503
507189,503
507190,515
507191,501
507192,492
507193,493
507194,500
507195,501
507196,504
507197,503
507198,497
507199,490
507200,483
507201,487
507202,491
507203,493
507204,498
507206,510
507207,513
507208,509
507209,512
507210,507
507211,500
507212,495
507213,492
507214,497
507215,498
507216,497
507217,501
507218,518
507219,544
507220,559
507222,555
507223,544
507224,540
507225,532
507226,520
507227,509
507227,513
507228,518
507229,521
507230,523
507231,518
507232,526
507233,523
507234,520
507235,523
507236,529
507237,521
507239,505
507240,504
507241,511
507242,516
507243,519
507244,516
507245,514
507246,507
507247,512
507248,515
507249,518
507250,526
507251,522
507252,523
507253,519
507254,510
507255,520
507256,540
507257,553
507258,558
507259,570
507260,583
507261,601
507262,623
507264,641
507265,660
507266,684
507267,707
507268,729
507269,749
507270,768
507270,794
507271,815
507273,841
507274,869
507275,905
507276,935
507277,971
507278,990
507279,990
507280,989
507281,989
507282,989
507283,988
507284,988
507285,989
507286,988
507287,989
507288,990
507289,956
507290,900
507291,830
507292,738
507293,640
507294,554
507295,485
507296,432
507297,403
507298,388
507299,379
507300,366
507301,364
507302,367
507303,364
507304,346
507305,342
507307,344
507308,340
507310,349
507311,360
507312,374
507312,390
507313,406
507314,412
507315,424
507316,444
507317,453
507318,451
507319,449
507320,442
507321,437
507322,442
507323,445
507324,446
507325,453
507326,457
507327,452
507328,448
507329,444
507330,448
507331,451
507332,447
507333,444
507334,453
507335,475
507336,483
507337,482
507338,481
507339,478
507340,475
507341,470
507343,468
507344,467
507345,462
507346,469
507347,469
507348,472
507350,472
507351,485
507352,487
507353,485
507354,491
507355,490
507355,487
507356,490
507357,491
507358,489
507359,487
507360,498
507361,509
507362,513
507363,511
507364,508
507365,517
507366,513
507367,508
507368,502
507369,509
507370,511
507371,504
507372,510
507373,517
507374,519
507376,500
507377,488
507378,492
507379,495
507380,502
507381,509
507382,512
507383,515
507384,515
507385,510
507386,507
507387,510
507388,520
507389,531
507390,545
507392,549
507393,554
507394,546
507395,539
507396,535
507397,544
507398,548
507398,545
507399,546
507400,542
507401,540
507402,541
507403,545
507404,540
507405,528
507406,522
507407,522
507408,525
507410,527
507411,539
507412,545
507413,542
507414,541
507415,539
507416,531
507417,526
507418,514
507419,514
507420,537
507421,558
507422,575
507423,581
507424,577
507425,561
507426,542
507427,542
507428,552
507429,552
507430,554
507431,559
507432,558
507433,560
507435,565
507436,563
507437,564
507438,558
507439,562
507440,564
507440,573
507441,574
507442,571
507444,571
507445,568
507446,561
507447,559
507448,560
507449,564
507450,570
507451,574
507452,577
507453,577
507454,579
507455,578
507456,568
507457,557
507458,568
507459,573
507460,576
507461,578
507462,586
507463,588
507464,591
507465,592
507466,599
507467,596
507468,590
507469,580
507470,581
507471,586
507472,581
507473,583
507474,587
507475,591
507476,598
507478,608
507479,618
507481,614
507482,625
507483,634
507483,635
507484,627
507485,614
507486,602
507487,597
507488,591
507489,592
507490,603
507491,611
507492,608
507493,601
507494,600
507495,592
507496,582
507497,590
507498,598
507499,597
507500,589
507501,587
507502,585
507503,590
507504,599
507505,609
507506,607
507507,602
507508,596
507509,591
507510,588
507511,596
507513,599
507514,616
507515,620
507516,614
507517,610
507518,607
507520,605
507521,599
507522,585
507523,574
507524,576
507525,575
507526,565
507526,559
507527,562
507528,560
507529,557
507530,553
507531,563
507532,560
507533,552
507534,539
507535,529
507536,520
507537,521
507538,521
507539,520
507540,522
507541,526
507542,519
507543,514
507544,516
507545,514
507547,505
507548,505
507549,500
507550,486
507551,486
507552,484
507553,472
507554,459
507555,461
507556,459
507557,459
507558,459
507559,457
507560,461
507561,465
507563,469
507564,471
507565,463
507566,452
507567,448
507568,445
507568,448
507569,446
507570,448
507571,457
507572,447
507573,441
507574,441
507575,438
507576,427
507577,419
507578,416
507579,411
507581,418
507582,420
507583,419
507584,424
507585,426
507586,422
507587,410
507588,415
507589,420
507590,419
507591,422
507592,432
507593,440
507594,434
507595,435
507596,433
507597,431
507598,431
507599,433
507600,434
507601,434
507602,430
507603,429
507604,427
507606,426
507607,425
507608,427
507609,430
507610,435
507611,437
507611,439
507612,431
507614,432
507615,430
507616,427
507617,423
507618,425
507619,429
507620,430
507621,430
507622,440
507623,434
507624,436
507625,440
507626,443
507627,436
507628,441
507629,458
507630,465
507631,471
507632,479
507633,494
507634,498
507635,490
507636,481
507637,473
507638,472
507639,475
507640,479
507641,473
507642,472
507643,469
507644,459
507645,459
507646,462
507648,455
507649,459
507651,473
507652,471
507653,466
507654,465
507654,469
507655,469
507656,460
507657,465
507658,473
507659,482
507660,496
507661,502
507662,492
507663,483
507664,471
507665,465
507666,474
507667,478
507668,482
507669,483
507670,480
507671,477
507672,487
507673,506
507674,504
507675,500
507676,504
507677,503
507678,500
507679,488
507680,482
507681,479
507682,491
507684,499
507685,501
507686,504
507687,501
507688,498
507689,494
507691,488
507692,492
507693,499
507694,498
507695,495
507696,496
507696,497
507697,496
507698,491
507699,488
507700,494
507701,494
507702,497
507703,496
507704,492
507705,496
507706,492
507707,484
507708,482
507709,489
507710,495
507711,496
507712,498
507713,489
507714,485
507715,501
507716,526
507718,524
507719,523
507720,528
507721,534
507722,538
507723,535
507724,532
507725,524
507726,506
507727,504
507728,506
507729,512
507730,515
507731,511
507732,494
507734,492
507735,493
507736,494
507737,499
507738,503
507739,500
507739,497
507740,496
507741,499
507742,509
507743,515
507744,515
507745,503
507746,484
507747,473
507748,479
507749,498
507751,514
507752,504
507753,498
507754,498
507755,512
507756,518
507757,508
507758,500
507759,500
507760,497
507761,493
507762,497
507763,503
507764,500
507765,500
507766,508
507767,514
507768,511
507769,508
507770,516
507771,532
507772,526
507773,516
507774,512
507776,511
507777,511
507778,512
507779,510
507780,510
507781,509
507781,502
507782,500
507783,507
507785,508
507786,500
507787,497
507788,493
507789,488
507790,471
507791,482
507792,501
507793,511
507794,501
507795,494
507796,496
507797,497
507798,503
507799,508
507800,508
507801,507
507802,509
507803,515
507804,524
507805,521
507806,516
507807,509
507808,500
507809,499
507810,503
507811,511
507812,517
507813,515
507814,512
507815,509
507816,511
507817,512
507819,495
507820,483
507822,509
507823,504
507824,505
507824,508
507825,513
507826,514
507827,511
507828,513
507829,512
507830,510
507831,505
507832,505
507833,504
507834,503
507835,507
507836,506
507837,504
507838,504
507839,504
507840,500
507841,504
507842,504
507843,519
507844,535
507845,538
507846,529
507847,531
507848,535
507849,534
507850,523
507851,518
507852,514
507853,507
507855,517
507856,514
507857,507
507858,505
507859,504
507860,504
507862,508
507863,507
507864,510
507865,505
507866,507
507867,514
507867,514
507868,517
507869,523
507870,524
507871,523
507872,525
507873,529
507874,530
507875,529
507876,525
507877,521
507878,517
507879,518
507880,514
507881,514
507882,526
507883,538
507884,542
507885,535
507886,522
507888,509
507889,499
507890,503
507891,513
507892,527
507893,523
507894,518
507895,510
507896,502
507897,497
507898,504
507899,506
507900,503
507901,506
507902,507
507904,506
507905,503
507906,494
507907,490
507908,498
507909,507
507910,517
507910,520
507911,519
507912,518
507913,513
507914,507
507915,505
507916,508
507917,505
507918,515
507919,519
507920,516
507922,502
507923,502
507924,511
507925,519
507926,515
507927,514
507928,516
507929,505
507930,498
507931,502
507932,505
507933,502
507934,511
507935,517
507936,513
507937,516
507938,527
507939,528
507940,516
507941,498
507942,488
507943,492
507944,495
507945,503
507947,510
507948,516
507949,509
507950,498
507951,507
507952,516
507952,521
507953,518
507954,516
507956,508
507957,515
507958,523
507959,520
507960,515
507961,514
507962,517
507963,518
507964,523
507965,525
507966,532
507967,534
507968,535
507969,530
507970,522
507971,518
507972,514
507973,510
507974,520
507975,529
507976,522
507977,509
507978,500
507979,508
507980,511
507981,517
507982,511
507983,507
507984,505
507985,513
507986,524
507987,530
507988,534
507990,522
507991,516
507993,525
507994,533
507995,539
507995,533
507996,529
507997,523
507998,519
507999,519
508000,531
508001,546
508002,546
508003,544
508004,541
508005,532
508006,529
508007,533
508008,535
508009,536
508010,535
508011,535
508012,548
508013,550
508014,548
508015,539
508016,532
508017,538
508018,541
508019,537
508020,543
508021,545
508022,546
508023,548
508025,539
508026,549
508027,555
508028,548
508029,542
508030,541
508032,553
508033,559
508034,556
508035,554
508036,556
508037,562
508038,562
508038,553
508039,544
508040,542
508041,547
508042,545
508043,552
508044,547
508045,532
508046,525
508047,518
508048,527
508049,522
508050,506
508051,491
508052,488
508053,490
508054,499
508055,501
508056,498
508057,493
508059,496
508060,503
508061,503
508062,502
508063,506
508064,506
508065,499
508066,491
508067,485
508068,491
508069,498
508070,502
508071,507
508072,504
508073,498
508075,498
508076,499
508077,502
508078,506
508079,502
508080,499
508080,498
508081,494
508082,493
508083,499
508084,503
508085,489
508086,485
508087,492
508088,492
508089,495
508090,501
508091,504
508093,507
508094,509
508095,509
508096,502
508097,493
508098,492
508099,494
508100,494
508101,490
508102,484
508103,490
508104,494
508105,492
508106,486
508107,484
508108,485
508109,487
508110,498
508111,499
508112,501
508113,501
508114,506
508115,505
508116,499
508118,499
508119,498
508120,502
508121,511
508122,512
508123,511
508123,505
508124,499
508126,500
508127,506
508128,513
508129,519
508130,543
508131,550
508132,562
508133,574
508134,583
508135,591
508136,600
508137,622
508138,655
508139,680
508140,709
508141,735
508142,754
508143,782
508144,795
508145,804
508146,824
508147,851
508148,884
508149,918
508150,958
508151,990
508152,989
508153,989
508154,988
508155,988
508156,988
508157,988
508158,988
508160,988
508161,988
508163,990
508164,962
508165,884
508165,794
508166,703
508167,609
508168,524
508169,458
508170,406
508171,378
508172,354
508173,328
508174,311
508175,308
508176,310
508177,304
508178,296
508179,298
508180,311
508181,325
508182,328
508183,333
508184,349
508185,365
508186,380
508187,389
508188,400
508189,413
508190,419
508191,414
508192,421
508193,431
508194,436
508196,418
508197,415
508198,425
508199,428
508200,429
508201,435
508203,436
508204,429
508205,424
508206,424
508207,416
508208,412
508208,416
508209,425
508210,436
508211,440
508212,443
508213,447
508214,456
508215,455
508216,445
508217,440
508218,451
508219,452
508220,459
508221,472
508222,480
508223,483
508224,483
508225,486
508226,484
508227,475
508228,471
508230,481
508231,481
508232,486
508233,485
508234,488
508235,480
508236,483
508237,478
508238,479
508239,480
508240,481
508241,485
508242,482
508243,467
508244,464
508246,469
508247,474
508248,474
508249,468
508250,466
508251,473
508251,484
508252,497
508253,493
508254,488
508255,485
508256,481
508257,481
508258,484
508259,488
508260,497
508261,494
508263,496
508264,505
508265,497
508266,500
508267,510
508268,508
508269,501
508270,493
508271,489
508272,491
508273,493
508274,498
508275,505
508276,519
508277,527
508278,520
508279,509
508280,509
508281,511
508282,514
508283,516
508284,516
508285,528
508286,528
508288,521
508289,512
508290,503
508291,505
508292,506
508293,513
508294,515
508294,517
508295,527
508297,525
508298,527
508299,531
508300,536
508301,542
508302,548
508303,541
508304,540
508305,537
508306,527
508307,526
508308,526
508309,523
508310,527
508311,531
508312,540
508313,553
508314,543
508315,543
508316,545
508317,541
508318,534
508319,535
508320,528
508321,522
508322,534
508323,552
508324,553
508325,561
508326,575
508327,574
508328,565
508329,558
508331,553
508332,558
508334,567
508335,573
508336,579
508336,572
508337,563
508338,558
508339,559
508340,558
508341,557
508342,557
508343,556
508344,560
508345,574
508346,592
508347,595
508348,582
508349,570
508350,582
508351,581
508352,573
508353,576
508354,569
508355,574
508356,573
508357,574
508358,575
508359,580
508360,575
508361,573
508362,572
508363,572
508364,591
508365,606
508367,607
508368,603
508369,602
508370,598
508371,595
508372,592
508374,588
508375,583
508376,581
508377,574
508378,567
508379,565
508379,568
508380,575
508381,576
508382,571
508383,576
508384,579
508385,572
508386,564
508387,568
508388,576
508389,563
508390,548
508391,545
508392,551
508393,556
508394,558
508395,556
508396,547
508397,541
508398,544
508400,536
508401,541
508402,550
508403,541
508404,527
508405,522
508406,518
508407,517
508408,518
508409,516
508410,510
508411,508
508412,510
508413,508
508414,501
508416,498
508417,502
508418,510
508419,503
508420,494
508421,496
508422,493
508422,484
508423,473
508424,462
508425,451
508426,453
508427,467
508428,478
508429,467
508430,452
508431,446
508432,446
508434,450
508435,445
508436,446
508437,449
508438,448
508439,438
508440,441
508441,446
508442,445
508443,440
508444,441
508445,428
508446,418
508447,411
508448,409
508449,405
508450,402
508451,400
508452,401
508453,416
508454,412
508455,407
508456,395
508457,388
508459,384
508460,383
508461,388
508462,396
508463,404
508464,410
508464,419
508465,418
508466,409
508468,392
508469,400
508470,408
508471,418
508472,421
508473,427
508474,424
508475,421
508476,413
508477,408
508478,400
508479,406
508480,415
508481,427
508482,420
508483,411
508484,416
508485,415
508486,414
508487,409
508488,425
508489,434
508490,425
508491,422
508492,415
508493,420
508494,415
508495,409
508496,424
508497,440
508498,437
508499,435
508500,436
508502,444
508503,446
508505,446
508506,443
508507,445
508507,445
508508,442
508509,444
508510,449
508511,448
508512,456
508513,457
508514,445
508515,440
508516,448
508517,453
508518,450
508519,444
508520,446
508521,453
508522,461
508523,456
508524,460
508525,452
508526,440
508527,430
508528,439
508529,453
508530,459
508531,461
508532,470
508533,465
508534,453
508535,446
508537,454
508538,464
508539,466
508540,459
508541,461
508542,466
508544,461
508545,462
508546,459
508547,452
508548,450
508549,448
508550,449
508550,450
508551,451
508552,451
508553,464
508554,478
508555,482
508556,490
508557,496
508558,488
508559,471
508560,459
508561,458
508562,459
508563,449
508564,454
508565,463
508566,465
508567,465
508568,466
508569,466
508571,474
508572,478
508573,489
508574,502
508575,502
508576,501
508577,512
508578,508
508579,500
508580,484
508581,471
508582,467
508583,459
508584,463
508585,459
508587,460
508588,476
508589,484
508590,485
508591,492
508592,506
508592,501
508593,494
508594,489
508595,485
508596,479
508597,476
508598,480
508599,488
508600,495
508601,502
508602,502
508603,498
508605,488
508606,480
508607,474
508608,476
508609,476
508610,474
508611,473
508612,469
508613,479
508614,486
508615,481
508616,460
508617,452
508618,458
508619,456
508620,456
508621,463
508622,471
508623,475
508624,466
508625,459
508626,464
508627,466
508628,467
508630,481
508631,491
508632,503
508633,502
508634,499
508635,490
508635,481
508636,461
508638,471
508639,483
508640,493
508641,506
508642,503
508643,496
508644,500
508645,497
508646,491
508647,487
508648,487
508649,485
508650,489
508651,480
508652,479
508653,496
508654,496
508655,488
508656,487
508657,489
508658,487
508659,486
508660,483
508661,486
508662,482
508663,471
508664,476
508665,488
508666,494
508667,498
508668,497
508669,498
508670,500
508672,500
508673,502
508675,499
508676,494
508677,493
508678,495
508678,499
508679,491
508680,486
508681,488
508682,483
508683,475
508684,470
508685,477
508686,480
508687,481
508688,476
508689,471
508690,470
508691,471
508692,480
508693,492
508694,500
508695,499
508696,496
508697,484
508698,477
508699,476
508700,474
508701,478
508702,479
508703,481
508704,482
508705,481
508706,481
508708,482
508709,478
508710,483
508711,491
508712,492
508713,505
508715,508
508716,509
508717,509
508718,502
508719,508
508720,517
508720,514
508721,505
508722,504
508723,490
508724,475
508725,481
508726,484
508727,486
508728,495
508729,499
508730,496
508731,487
508732,491
508733,487
508734,491
508735,494
508736,504
508737,500
508738,499
508739,508
508740,513
508742,503
508743,501
508744,502
508745,499
508746,502
508747,501
508748,495
508749,489
508750,494
508751,492
508752,480
508753,478
508754,493
508755,492
508756,490
508758,491
508759,495
508760,495
508761,504
508762,503
508763,495
508763,500
508764,503
508765,506
508766,509
508767,505
508768,499
508769,497
508770,501
508771,493
508772,476
508773,469
508775,500
508776,497
508777,503
508778,513
508779,513
508780,510
508781,505
508782,501
508783,490
508784,489
508785,487
508786,485
508787,486
508788,485
508789,480
508790,474
508791,477
508792,488
508793,487
508794,488
508795,480
508796,473
508797,479
508798,469
508800,465
508801,469
508802,473
508803,463
508804,466
508805,478
508805,490
508806,499
508807,503
508809,525
508810,523
508811,520
508812,514
508813,499
508814,505
508815,507
508816,512
508817,515
508818,508
508819,501
508820,498
508821,494
508822,500
508823,496
508824,486
508825,488
508826,486
508827,487
508828,486
508829,497
508830,505
508831,520
508832,521
508833,515
508834,511
508835,503
508836,499
508837,502
508838,503
508839,505
508840,509
508841,504
508843,497
508844,491
508846,496
508847,491
508848,481
508848,471
508849,477
508850,489
508851,501
508852,498
508853,494
508854,492
508855,495
508856,499
508857,496
508858,495
508859,488
508860,493
508861,501
508862,504
508863,498
508864,497
508865,511
508866,514
508867,513
508868,504
508869,513
508870,527
508871,521
508872,503
508873,488
508874,492
508875,496
508876,501
508877,494
508879,485
508880,493
508881,498
508882,504
508883,507
508884,518
508886,519
508887,515
508888,513
508889,514
508890,508
508891,498
508891,486
508892,493
508893,519
508894,536
508895,528
508896,525
508897,525
508898,527
508899,536
508900,536
508901,524
508902,513
508903,522
508904,529
508905,531
508906,526
508907,522
508908,515
508909,523
508910,537
508912,539
508913,529
508914,531
508915,530
508916,535
508917,536
508918,543
508919,548
508920,548
508921,537
508922,523
508923,509
508924,500
508925,510
508926,518
508928,523
508929,525
508930,519
508931,509
508932,506
508933,496
508934,490
508934,487
508935,488
508936,490
508937,488
508938,485
508939,482
508940,480
508941,478
508942,477
508943,473
508944,462
508946,459
508947,463
508948,474
508949,479
508950,469
508951,472
508952,478
508953,472
508954,474
508955,479
508956,480
508957,481
508958,486
508959,487
508960,484
508961,479
508962,482
508963,479
508964,478
508965,466
508966,470
508967,472
508968,475
508969,487
508971,493
508972,485
508973,483
508974,484
508975,485
508976,482
508976,482
508977,485
508978,480
508980,468
508981,464
508982,468
508983,477
508984,481
508985,488
508986,493
508987,500
508988,496
508989,489
508990,482
508991,484
508992,487
508993,484
508994,484
508995,473
508996,468
508997,478
508998,482
508999,487
509000,483
509001,480
509002,494
509003,501
509004,499
509005,499
509006,503
509007,506
509008,516
509009,525
509010,514
509011,517
509012,529
509014,538
509015,545
509017,551
509018,561
509019,575
509019,592
509020,607
509021,628
509022,648
509023,674
509024,698
509025,722
509026,745
509027,770
509028,794
509029,802
509030,818
509031,835
509032,866
509033,904
509034,941
509035,972
509036,990
509037,990
509038,989
509039,989
509040,989
509041,989
509042,989
509043,989
509044,990
509045,957
509046,890
509047,832
509049,708
509050,623
509051,544
509052,488
509053,445
509054,421
509056,387
509057,348
509058,321
509059,310
509060,309
509061,315
509062,314
509062,310
509063,310
509064,315
509065,325
509066,337
509067,349
509068,350
509069,353
509070,356
509071,357
509072,372
509073,383
509074,394
509075,403
509076,411
509077,413
509078,405
509079,405
509080,407
509081,401
509083,401
509084,404
509085,406
509086,400
509087,407
509088,420
509089,424
509090,414
509091,419
509092,434
509093,437
509094,438
509095,451
509096,459
509097,458
509099,453
509100,446
509101,443
509102,447
509103,451
509104,452
509104,453
509105,453
509106,449
509107,447
509108,442
509109,437
509110,445
509111,452
509112,461
509113,461
509114,455
509115,451
509117,458
509118,455
509119,451
509120,448
509121,447
509122,451
509123,452
509124,456
509125,459
509126,460
509127,459
509128,466
509129,479
509130,487
509131,495
509132,489
509133,475
509134,473
509135,468
509136,465
509137,467
509138,467
509139,472
509140,479
509142,485
509143,480
509144,473
509145,476
509146,486
509147,502
509147,497
509148,495
509150,484
509151,488
509152,490
509153,491
509154,493
509155,497
509156,504
509157,510
509158,513
509159,505
509160,505
509161,501
509162,493
509163,484
509164,477
509165,474
509166,479
509167,489
509168,497
509169,502
509170,504
509171,499
509172,490
509173,493
509174,510
509175,521
509176,515
509177,506
509178,498
509179,496
509180,493
509181,500
509182,507
509184,505
509185,499
509187,504
509188,513
509189,519
509190,522
509190,521
509191,515
509192,518
509193,529
509194,537
509195,538
509196,543
509197,546
509198,540
509199,527
509200,530
509201,537
509202,538
509203,527
509204,529
509205,543
509206,544
509207,532
509208,530
509209,539
509210,542
509211,535
509212,527
509213,522
509214,529
509215,533
509216,535
509217,538
509218,543
509220,548
509221,546
509222,550
509223,552
509224,561
509225,571
509227,572
509228,570
509229,574
509230,571
509231,557
509232,556
509232,548
509233,541
509234,544
509235,547
509236,556
509237,558
509238,559
509239,561
509240,568
509241,577
509242,584
509243,579
509244,572
509245,564
509246,565
509247,569
509248,575
509249,572
509250,568
509251,563
509252,562
509254,577
509255,590
509256,592
509257,585
509258,575
509259,569
509260,572
509261,577
509262,577
509263,573
509264,569
509265,566
509266,564
509267,565
509268,571
509270,568
509271,550
509272,542
509273,547
509274,562
509275,560
509275,558
509276,550
509277,556
509278,557
509279,540
509280,535
509281,538
509282,542
509283,541
509284,536
509285,534
509287,531
509288,518
509289,508
509290,508
509291,508
509292,511
509293,517
509294,510
509295,506
509296,499
509297,493
509298,479
509299,466
509300,463
509301,468
509302,470
509303,463
509304,465
509305,468
509306,472
509307,476
509308,460
509309,437
509310,424
509312,427
509313,442
509314,451
509315,450
509316,448
509317,438
509318,432
509318,435
509319,432
509321,426
509322,425
509323,432
509324,432
509325,425
509326,421
509327,413
509328,406
509329,397
509330,396
509331,396
509332,398
509333,398
509334,396
509335,397
509336,389
509337,381
509338,379
509339,382
509340,382
509341,381
509342,382
509343,390
509344,391
509345,396
509346,403
509347,396
509348,383
509349,377
509350,388
509351,395
509352,393
509353,393
509355,388
509356,387
509358,396
509359,394
509360,395
509360,396
509361,393
509362,403
509363,406
509364,401
509365,388
509366,389
509367,396
509368,401
509369,411
509370,419
509371,417
509372,402
509373,396
509374,400
509375,400
509376,399
509377,411
509378,412
509379,402
509380,400
509381,396
509382,386
509383,399
509384,419
509385,429
509386,434
509387,423
509388,420
509389,417
509391,411
509392,404
509393,404
509394,407
509395,419
509396,426
509398,431
509399,424
509400,423
509401,442
509402,451
509403,448
509403,446
509404,444
509405,447
509406,451
509407,450
509408,449
509409,446
509410,437
509411,424
509412,421
509413,429
509414,442
509415,445
509416,441
509417,445
509418,451
509419,456
509420,456
509421,446
509422,433
509424,443
509425,445
509426,447
509427,445
509428,442
509429,446
509430,444
509431,437
509432,438
509433,428
509434,421
509435,424
509436,435
509437,451
509438,451
509440,448
509441,455
509442,467
509443,482
509444,489
509445,486
509446,484
509446,484
509447,483
509448,478
509449,471
509450,462
509451,458
509452,461
509453,466
509454,467
509455,471
509456,467
509458,455
509459,451
509460,454
509461,466
509462,474
509463,471
