30340,454
30341,467
30342,467
30342,463
30343,467
30344,458
30345,453
30346,474
30347,486
30338,443
30339,443
30340,454
30341,467
30342,467
30342,463
30343,467
30344,458
30345,453
30346,474
30347,486
2,484
3,490
4,479
5,474
5,470
6,469
7,480
8,489
9,478
10,447
11,437
12,457
13,477
14,488
15,488
16,492
17,492
18,488
19,490
20,499
21,497
22,479
23,470
24,470
25,475
26,477
27,477
28,479
29,478
30,481
31,484
32,483
33,490
34,501
35,501
36,491
37,486
38,472
39,467
40,469
41,475
43,484
44,503
45,513
46,509
47,505
48,497
48,498
49,508
50,509
51,510
52,507
53,506
54,511
55,520
56,530
57,520
58,502
59,489
60,478
61,470
62,487
63,497
64,511
65,520
66,518
67,517
68,531
69,532
70,536
71,529
72,518
73,519
74,531
75,536
76,540
77,534
78,541
79,540
80,543
81,539
82,537
83,529
84,518
86,511
87,518
88,521
89,523
90,512
91,510
91,513
92,517
93,526
94,540
95,541
96,548
97,546
98,545
99,546
100,543
101,544
102,541
103,541
104,536
105,540
106,538
107,544
108,552
109,551
110,543
111,552
112,561
113,568
114,575
115,573
116,567
117,562
118,558
119,554
120,547
121,547
122,541
123,541
124,540
125,543
126,549
128,552
129,566
130,570
131,560
132,547
133,541
133,550
134,568
135,575
136,572
137,561
138,557
139,558
140,558
141,559
142,556
143,555
144,558
145,573
146,581
147,575
148,560
149,545
150,528
151,529
152,534
153,525
154,538
155,555
156,562
157,570
158,568
159,568
160,568
161,562
162,545
163,538
164,535
165,537
166,538
167,510
168,488
169,495
171,496
172,487
173,489
174,497
175,502
176,499
176,500
177,507
178,503
179,492
180,478
181,469
182,468
183,470
184,470
185,476
186,483
187,483
188,482
189,474
190,463
191,454
192,449
193,444
194,442
195,432
196,426
197,428
198,426
199,429
200,427
201,422
202,419
203,421
204,403
205,381
206,377
207,397
208,417
209,423
210,421
211,413
212,408
214,407
215,409
216,405
217,396
218,388
219,387
219,387
220,392
221,400
222,396
223,392
224,404
225,397
226,393
227,404
228,403
229,396
230,381
231,392
232,406
233,394
234,373
235,374
236,368
237,375
238,376
239,384
240,404
241,403
242,387
243,381
244,388
245,401
246,408
247,415
248,416
249,403
250,393
251,392
252,404
253,416
254,416
256,416
257,410
258,407
259,399
260,395
261,392
261,380
262,378
263,383
264,392
265,397
266,402
267,412
268,416
269,401
270,401
271,407
272,411
273,415
274,421
275,431
276,444
277,451
278,451
279,447
280,436
281,433
282,431
283,432
284,428
285,430
286,432
287,433
288,422
289,411
290,399
291,401
292,413
293,442
294,452
295,443
296,418
297,409
299,421
300,431
301,425
302,419
303,426
304,435
304,441
305,437
306,430
307,419
308,440
309,451
310,462
311,463
312,480
313,492
314,485
315,492
316,502
317,503
318,479
319,443
320,419
321,408
322,410
323,411
324,419
325,429
326,432
327,430
328,432
329,441
330,450
331,465
332,472
333,471
334,467
335,468
336,483
337,477
338,465
339,461
340,467
342,467
343,476
344,489
345,492
346,487
347,475
347,457
348,448
349,454
350,460
351,457
352,457
353,460
354,454
355,461
356,470
357,468
358,467
359,462
360,452
361,455
362,465
363,466
364,464
365,462
366,452
367,441
368,442
369,453
370,458
371,464
372,475
373,485
374,483
375,480
376,468
377,469
378,481
379,483
380,490
381,491
382,483
384,464
385,462
386,463
387,444
388,429
389,435
389,444
390,446
391,463
392,465
393,467
394,467
395,472
396,478
397,487
398,482
399,464
400,474
401,482
402,480
403,469
404,459
405,450
406,447
407,444
408,451
409,473
410,478
411,469
412,463
413,476
414,483
415,470
416,468
417,476
418,482
419,477
420,481
421,494
422,490
423,481
424,480
425,475
427,464
428,466
429,468
430,468
431,471
432,475
432,476
433,477
434,475
435,467
436,464
437,460
438,452
439,453
440,457
441,472
442,495
443,489
444,468
445,460
446,464
447,470
448,477
449,481
450,482
451,479
452,477
453,480
454,480
455,486
456,475
457,465
458,460
459,461
460,464
461,461
462,456
463,462
464,483
465,496
466,498
467,487
468,472
470,465
471,468
472,474
473,476
474,467
475,458
475,465
476,467
477,474
478,492
479,499
480,494
481,491
482,490
483,475
484,467
485,461
486,471
487,473
488,450
489,436
490,460
491,479
492,491
493,503
494,509
495,504
496,494
497,479
498,474
499,483
500,488
501,484
502,483
503,486
504,494
505,500
506,502
507,492
508,485
509,486
510,496
512,493
513,500
514,505
515,494
516,478
517,468
517,471
518,467
519,462
520,460
521,452
522,451
523,465
524,473
525,464
526,464
527,476
528,486
529,495
530,508
531,493
532,482
533,467
534,456
535,453
536,456
537,472
538,477
539,480
540,483
541,485
542,480
543,479
544,477
545,463
546,458
547,477
548,489
549,491
550,492
551,494
552,496
553,485
555,473
556,489
557,482
558,473
559,458
560,447
560,456
561,467
562,467
563,478
564,483
565,489
566,492
567,494
568,483
569,482
570,476
571,473
572,484
573,488
574,493
575,499
576,500
577,493
578,492
579,499
580,490
581,482
582,482
583,488
584,484
585,476
586,485
587,497
588,501
589,495
590,492
591,486
592,481
593,483
594,482
595,487
596,505
598,506
599,502
600,491
601,483
602,482
603,477
603,473
604,469
605,469
606,468
607,460
608,453
609,465
610,484
611,500
612,501
613,478
614,468
615,467
616,472
617,474
618,471
619,470
620,465
621,460
622,468
623,479
624,477
625,477
626,488
627,490
628,487
629,483
630,478
631,483
632,491
633,496
634,497
635,502
636,504
637,499
638,489
640,484
641,505
642,513
643,506
644,505
645,505
645,492
646,479
647,481
648,490
649,503
650,507
651,507
652,514
653,509
654,495
655,479
656,475
657,481
658,480
659,482
660,479
661,485
662,491
663,488
664,488
665,488
666,496
667,514
668,526
669,530
670,515
671,499
672,499
673,504
674,507
675,505
676,505
677,500
678,495
679,495
680,500
681,507
683,514
684,523
685,527
686,536
687,536
688,530
688,522
689,518
690,521
691,524
692,528
693,531
694,531
695,536
696,546
697,541
698,521
699,500
700,492
701,495
702,504
703,510
704,511
705,511
706,505
707,492
708,481
709,477
710,480
711,483
712,479
713,477
714,471
715,467
716,464
717,465
718,465
719,474
720,478
721,476
722,476
723,473
724,480
726,474
727,446
728,415
729,429
730,464
731,480
731,486
732,487
733,482
734,474
735,484
736,499
737,488
738,475
739,467
740,469
741,482
742,480
743,470
744,458
745,456
746,457
747,458
748,461
749,451
750,435
751,451
752,460
753,465
754,472
755,484
756,486
757,479
758,477
759,470
760,460
761,458
762,471
763,486
764,502
765,498
766,490
768,482
769,488
770,487
771,480
772,489
773,495
773,503
774,505
775,504
776,511
777,504
778,487
779,474
780,467
781,458
782,452
783,449
784,461
785,465
786,476
787,481
788,477
789,482
790,491
791,512
792,518
793,523
794,535
795,551
796,565
797,580
798,598
799,610
800,619
801,642
802,672
803,692
804,708
805,723
806,746
807,752
808,764
809,780
811,806
812,858
813,919
814,956
815,990
816,990
816,989
817,989
818,989
819,989
820,989
821,989
822,989
823,990
824,990
825,917
826,844
827,781
828,710
829,622
830,548
831,483
832,417
833,387
834,354
835,312
836,288
837,287
838,277
839,264
840,277
841,304
842,316
843,316
844,315
845,320
846,332
847,344
848,350
849,360
850,369
851,367
852,372
854,384
855,385
856,395
857,404
858,409
859,418
859,425
860,423
861,423
862,418
863,406
864,404
865,399
866,392
867,389
868,398
869,405
870,407
871,423
872,444
873,455
874,459
875,458
876,436
877,411
878,403
879,408
880,417
881,416
882,437
883,458
884,457
885,445
886,432
887,421
888,424
889,421
890,423
891,434
892,427
893,426
894,437
896,434
897,440
898,450
899,456
900,459
901,447
901,432
902,436
903,458
904,483
905,478
906,476
907,470
908,463
909,455
910,454
911,468
912,469
913,466
914,457
915,455
916,459
917,461
918,466
919,477
920,481
921,475
922,469
923,462
924,458
925,464
926,471
927,471
928,473
929,470
930,474
931,481
932,488
933,498
934,500
935,494
936,483
937,477
939,486
940,499
941,508
942,516
943,514
944,511
944,507
945,505
946,506
947,504
948,503
949,512
950,512
951,507
952,501
953,492
954,490
955,498
956,496
957,500
958,499
959,482
960,466
961,466
962,476
963,491
964,507
965,519
966,519
967,508
968,513
969,514
970,530
971,536
972,526
973,516
974,521
975,533
976,531
977,528
978,531
979,525
980,523
982,531
983,532
984,538
985,546
986,541
987,522
987,529
988,546
989,555
990,557
991,564
992,564
993,544
994,516
995,502
996,498
997,507
998,504
999,510
1000,519
1001,522
1002,520
1003,525
1004,523
1005,524
1006,536
1007,542
1008,541
1009,540
1010,546
1011,544
1012,552
1013,547
1014,550
1015,561
1016,573
1017,561
1018,561
1019,561
1020,561
1021,563
1022,561
1024,558
1025,564
1026,563
1027,559
1028,560
1029,568
1029,572
1030,580
1031,582
1032,586
1033,591
1034,586
1035,574
1036,562
1037,554
1038,543
1039,533
1040,514
1041,510
1042,508
1043,510
1044,529
1045,550
1046,557
1047,553
1048,547
1049,542
1050,545
1051,536
1052,538
1053,530
1054,523
1055,520
1056,521
1057,522
1058,529
1059,539
1060,538
1061,536
1062,527
1063,521
1064,524
1065,511
1067,510
1068,516
1069,504
1070,511
1071,498
1072,484
1072,496
1073,498
1074,493
1075,490
1076,473
1077,458
1078,463
1079,464
1080,444
1081,443
1082,452
1083,466
1084,463
1085,451
1086,447
1087,454
1088,461
1089,461
1090,459
1091,457
1092,447
1093,442
1094,443
1095,450
1096,456
1097,443
1098,417
1099,422
1100,435
1101,452
1102,442
1103,426
1104,412
1105,410
1106,407
1107,414
1108,432
1110,423
1111,415
1112,410
1113,409
1114,409
1115,411
1115,419
1116,418
1117,411
1118,397
1119,399
1120,403
1121,410
1122,411
1123,408
1124,414
1125,415
1126,414
1127,413
1128,415
1129,415
1130,400
1131,381
1132,373
1133,383
1134,397
1135,403
1136,408
1137,413
1138,411
1139,402
1140,396
1141,389
1142,387
1143,393
1144,393
1145,382
1146,372
1147,384
1148,396
1149,395
1150,393
1152,383
1153,398
1154,409
1155,417
1156,427
1157,415
1157,408
1158,418
1159,433
1160,439
1161,448
1162,439
1163,421
1164,413
1165,416
1166,414
1167,411
1168,411
1169,416
1170,415
1171,409
1172,414
1173,424
1174,429
1175,417
1176,414
1177,431
1178,444
1179,445
1180,440
1181,441
1182,441
1183,435
1184,429
1185,422
1186,417
1187,425
1188,432
1189,457
1190,473
1191,485
1192,474
1193,450
1195,446
1196,449
1197,458
1198,471
1199,467
1200,449
1200,443
1201,445
1202,450
1203,455
1204,462
1205,460
1206,452
1207,439
1208,441
1209,449
1210,444
1211,440
1212,436
1213,443
1214,446
1215,453
1216,460
1217,470
1218,471
1219,467
1220,462
1221,457
1222,461
1223,468
1224,472
1225,462
1226,453
1227,456
1228,462
1229,462
1230,456
1231,456
1232,464
1233,472
1234,475
1235,466
1236,459
1238,485
1239,497
1240,483
1241,475
1242,474
1243,479
1243,485
1244,484
1245,477
1246,467
1247,455
1248,430
1249,425
1250,448
1251,472
1252,468
1253,453
1254,460
1255,473
1256,474
1257,477
1258,477
1259,479
1260,477
1261,471
1262,472
1263,470
1264,469
1265,475
1266,490
1267,498
1268,502
1269,513
1270,510
1271,504
1272,496
1273,487
1274,483
1275,489
1276,496
1277,496
1278,495
1280,491
1281,479
1282,464
1283,457
1284,452
1285,458
1285,470
1286,476
1287,477
1288,466
1289,468
1290,470
1291,466
1292,464
1293,466
1294,473
1295,464
1296,467
1297,477
1298,479
1299,474
1300,467
1301,461
1302,457
1303,463
1304,469
1305,475
1306,479
1307,481
1308,487
1309,499
1310,495
1311,496
1312,494
1313,492
1314,485
1315,476
1316,472
1317,470
1318,473
1319,478
1320,475
1321,464
1323,465
1324,481
1325,484
1326,487
1327,484
1328,459
1328,468
1329,478
1330,485
1331,495
1332,504
1333,502
1334,489
1335,482
1336,472
1337,471
1338,486
1339,500
1340,515
1341,525
1342,516
1343,500
1344,477
1345,463
1346,462
1347,470
1348,470
1349,469
1350,474
1351,476
1352,468
1353,471
1354,476
1355,474
1356,481
1357,495
1358,500
1359,497
1360,504
1361,510
1362,505
1363,498
1364,494
1366,485
1367,470
1368,476
1369,493
1370,507
1371,517
1371,517
1372,515
1373,504
1374,490
1375,478
1376,470
1377,475
1378,484
1379,489
1380,490
1381,489
1382,493
1383,493
1384,489
1385,481
1386,484
1387,488
1388,486
1389,476
1390,475
1391,485
1392,472
1393,457
1394,459
1395,461
1396,460
1397,477
1398,466
1399,470
1400,496
1401,513
1402,512
1403,504
1404,509
1405,508
1406,499
1408,496
1409,505
1410,497
1411,493
1412,490
1413,486
1413,489
1414,504
1415,510
1416,502
1417,486
1418,475
1419,473
1420,464
1421,474
1422,475
1423,463
1424,469
1425,469
1426,467
1427,475
1428,477
1429,474
1430,479
1431,482
1432,483
1433,488
1434,491
1435,487
1436,485
1437,492
1438,487
1439,478
1440,472
1441,479
1442,483
1443,485
1444,492
1445,498
1446,488
1447,490
1448,497
1449,491
1451,489
1452,488
1453,488
1454,480
1455,476
1456,486
1456,495
1457,491
1458,486
1459,499
1460,520
1461,536
1462,540
1463,534
1464,521
1465,507
1466,498
1467,500
1468,500
1469,487
1470,482
1471,474
1472,486
1473,502
1474,502
1475,497
1476,500
1477,502
1478,497
1479,490
1480,486
1481,487
1482,479
1483,465
1484,459
1485,462
1486,464
1487,485
1488,504
1489,511
1490,511
1491,492
1492,471
1494,489
1495,503
1496,511
1497,491
1498,483
1499,504
1499,514
1500,511
1501,502
1502,487
1503,499
1504,497
1505,499
1506,494
1507,482
1508,476
1509,461
1510,465
1511,477
1512,494
1513,493
1514,484
1515,474
1516,463
1517,449
1518,447
1519,464
1520,484
1521,494
1522,506
1523,502
1524,494
1525,485
1526,486
1527,498
1528,509
1529,503
1530,498
1531,496
1532,499
1533,513
1534,519
1536,512
1537,496
1538,488
1539,484
1540,489
1541,491
1541,484
1542,484
1543,486
1544,476
1545,467
1546,463
1547,480
1548,507
1549,508
1550,507
1551,512
1552,503
1553,484
1554,468
1555,481
1556,501
1557,524
1558,526
1559,528
1560,521
1561,523
1562,519
1563,507
1564,499
1565,510
1566,523
1567,524
1568,520
1569,517
1570,518
1571,512
1572,493
1573,482
1574,483
1575,485
1576,493
1577,495
1579,489
1580,494
1581,498
1582,502
1583,506
1584,506
1584,510
1585,502
1586,515
1587,507
1588,502
1589,504
1590,496
1591,494
1592,512
1593,517
1594,514
1595,509
1596,510
1597,512
1598,511
1599,519
1600,526
1601,525
1602,524
1603,516
1604,496
1605,498
1606,510
1607,514
1608,516
1609,506
1610,509
1611,513
1612,512
1613,496
1614,476
1615,479
1616,501
1617,530
1618,531
1619,526
1620,516
1622,509
1623,511
1624,519
1625,513
1626,520
1627,518
1627,524
1628,527
1629,531
1630,534
1631,528
1632,523
1633,536
1634,544
1635,544
1636,544
1637,540
1638,543
1639,540
1640,530
1641,520
1642,521
1643,523
1644,516
1645,502
1646,510
1647,523
1648,509
1649,503
1650,496
1651,493
1652,504
1653,500
1654,494
1655,486
1656,482
1657,468
1658,462
1659,468
1660,474
1661,479
1662,475
1664,475
1665,481
1666,480
1667,466
1668,456
1669,460
1669,471
1670,484
1671,486
1672,480
1673,469
1674,468
1675,464
1676,469
1677,473
1678,474
1679,482
1680,484
1681,484
1682,482
1683,478
1684,474
1685,467
1686,467
1687,482
1688,483
1689,483
1690,483
1691,493
1692,498
1693,492
1694,491
1695,494
1696,492
1697,488
1698,486
1699,490
1700,486
1701,478
1702,481
1703,482
1704,479
1705,468
1707,461
1708,471
1709,464
1710,453
1711,457
1712,475
1712,490
1713,500
1714,504
1715,490
1716,480
1717,482
1718,491
1719,490
1720,496
1721,501
1722,502
1723,515
1724,532
1725,544
1726,552
1727,568
1728,582
1729,589
1730,606
1731,633
1732,647
1733,668
1734,696
1735,715
1736,735
1737,734
1738,745
1739,770
1740,796
1741,822
1742,851
1743,885
1744,914
1745,949
1746,983
1747,990
1748,989
1750,989
1751,989
1752,989
1753,989
1754,989
1755,989
1755,989
1756,990
1757,976
1758,905
1759,824
1760,731
1761,624
1762,528
1763,460
1764,428
1765,408
1766,380
1767,364
1768,347
1769,336
1770,329
1771,309
1772,275
1773,263
1774,278
1775,299
1776,317
1777,329
1778,334
1779,332
1780,343
1781,360
1782,374
1783,385
1784,392
1785,392
1786,392
1787,402
1788,410
1789,407
1790,395
1792,391
1793,410
1794,433
1795,424
1796,421
1797,414
1797,418
1798,445
1799,460
1800,447
1801,437
1802,429
1803,413
1804,401
1805,397
1806,407
1807,410
1808,411
1809,424
1810,429
1811,431
1812,428
1813,431
1814,431
1815,431
1816,433
1817,430
1818,430
1819,435
1820,447
1821,449
1822,451
1823,460
1824,456
1825,442
1826,435
1827,436
1828,449
1829,456
1830,456
1831,455
1832,461
1833,469
1835,476
1836,470
1837,475
1838,479
1839,479
1840,494
1840,503
1841,508
1842,498
1843,485
1844,494
1845,496
1846,489
1847,486
1848,486
1849,490
1850,491
1851,492
1852,476
1853,459
1854,467
1855,478
1856,477
1857,476
1858,479
1859,477
1860,479
1861,488
1862,492
1863,497
1864,499
1865,497
1866,506
1867,510
1868,510
1869,508
1870,496
1871,484
1872,479
1873,478
1874,492
1875,501
1876,506
1878,512
1879,506
1880,498
1881,497
1882,502
1883,495
1883,488
1884,496
1885,502
1886,512
1887,511
1888,515
1889,513
1890,513
1891,514
1892,512
1893,508
1894,514
1895,524
1896,525
1897,531
1898,534
1899,520
1900,510
1901,506
1902,495
1903,491
1904,493
1905,504
1906,521
1907,526
1908,529
1909,529
1910,524
1911,515
1912,523
1913,528
1914,523
1915,519
1916,528
1917,546
1918,536
1920,528
1921,533
1922,534
1923,536
1924,539
1925,546
1925,543
1926,536
1927,530
1928,534
1929,540
1930,543
1931,548
1932,545
1933,537
1934,543
1935,562
1936,562
1937,551
1938,555
1939,565
1940,559
1941,545
1942,535
1943,536
1944,547
1945,556
1946,569
1947,565
1948,560
1949,559
1950,562
1951,571
1952,567
1953,558
1954,567
1955,567
1956,565
1957,566
1958,549
1959,555
1960,574
1961,577
1963,574
1964,575
1965,561
1966,549
1967,548
1968,552
1968,561
1969,583
1970,605
1971,596
1972,587
1973,587
1974,583
1975,575
1976,564
1977,565
1978,562
1979,554
1980,546
1981,533
1982,523
1983,529
1984,540
1985,552
1986,551
1987,533
1988,526
1989,524
1990,515
1991,502
1992,499
1993,516
1994,520
1995,520
1996,519
1997,513
1998,512
1999,508
2000,508
2001,510
2002,518
2003,520
2004,519
2006,521
2007,532
2008,529
2009,511
2010,495
2011,490
2011,491
2012,494
2013,509
2014,508
2015,496
2016,478
2017,482
2018,485
2019,480
2020,458
2021,438
2022,418
2023,411
2024,421
2025,445
2026,450
2027,440
2028,420
2029,410
2030,407
2031,403
2032,407
2033,408
2034,408
2035,420
2036,432
2037,435
2038,438
2039,436
2040,427
2041,416
2042,411
2043,407
2044,424
2045,425
2046,420
2048,427
2049,431
2050,425
2051,413
2052,416
2053,412
2053,398
2054,399
2055,407
2056,408
2057,402
2058,395
2059,387
2060,388
2061,388
2062,392
2063,398
2064,402
2065,408
2066,405
2067,403
2068,400
2069,402
2070,390
2071,379
2072,386
2073,400
2074,419
2075,427
2076,423
2077,418
2078,420
2079,426
2080,426
2081,410
2082,393
2083,392
2084,404
2085,423
2086,427
2087,429
2088,430
2089,426
2091,419
2092,421
2093,422
2094,420
2095,423
2096,423
2096,426
2097,414
2098,396
2099,397
2100,409
2101,406
2102,379
2103,368
2104,388
2105,428
2106,451
2107,448
2108,455
2109,461
2110,461
2111,442
2112,447
2113,452
2114,444
2115,446
2116,445
2117,435
2118,421
2119,412
2120,412
2121,418
2122,429
2123,434
2124,427
2125,412
2126,400
2127,406
2128,414
2129,425
2130,434
2131,445
2132,455
2134,456
2135,464
2136,475
2137,484
2138,478
2139,473
2139,460
2140,460
2141,473
2142,475
2143,468
2144,462
2145,466
2146,465
2147,469
2148,464
2149,462
2150,463
2151,469
2152,473
2153,471
2154,465
2155,462
2156,464
2157,458
2158,455
2159,455
2160,452
2161,460
2162,460
2163,447
2164,443
2165,447
2166,446
2167,451
2168,457
2169,467
2170,468
2171,470
2172,470
2173,465
2174,468
2176,483
2177,490
2178,486
2179,499
2180,497
2181,476
2181,457
2182,471
2183,474
2184,457
2185,441
2186,460
2187,489
2188,486
2189,465
2190,447
2191,445
2192,450
2193,470
2194,487
2195,480
2196,473
2197,466
2198,449
2199,433
2200,425
2201,442
2202,459
2203,450
2204,452
2205,469
2206,462
2207,457
2208,465
2209,472
2210,486
2211,500
2212,487
2213,494
2214,490
2215,489
2216,499
2217,503
2219,488
2220,476
2221,476
2222,480
2223,483
2224,482
2224,477
2225,469
2226,454
2227,449
2228,452
2229,460
2230,471
2231,476
2232,472
2233,467
2234,452
2235,438
2236,432
2237,448
2238,464
2239,474
2240,485
2241,498
2242,512
2243,513
2244,504
2245,492
2246,484
2247,487
2248,488
2249,485
2250,481
2251,483
2252,491
2253,490
2254,480
2255,484
2256,492
2257,486
2258,479
2259,478
2260,477
2262,468
2263,473
2264,475
2265,478
2266,471
2267,462
2267,457
2268,462
2269,449
2270,442
2271,443
2272,454
2273,467
2274,471
2275,474
2276,473
2277,475
2278,480
2279,489
2280,487
2281,480
2282,482
2283,476
2284,469
2285,453
2286,473
2287,497
2288,495
2289,476
2290,465
2291,474
2292,488
2293,494
2294,489
2295,481
2296,480
2297,474
2298,467
2299,466
2300,449
2301,441
2302,449
2304,453
2305,459
2306,466
2307,473
2308,476
2309,472
2309,463
2310,457
2311,469
2312,484
2313,504
2314,516
2315,516
2316,504
2317,496
2318,504
2319,509
2320,501
2321,492
2322,488
2323,487
2324,495
2325,491
2326,483
2327,484
2328,481
2329,472
2330,460
2331,458
2332,463
2333,477
2334,479
2335,475
2336,482
2337,496
2338,486
2339,471
2340,468
2341,483
2342,498
2343,492
2344,495
2345,489
2347,477
2348,473
2349,477
2350,480
2351,474
2352,470
2352,465
2353,462
2354,461
2355,469
2356,484
2357,487
2358,486
2359,489
2360,487
2361,475
2362,464
2363,457
2364,479
2365,492
2366,491
2367,489
2368,482
2369,482
2370,465
2371,461
2372,458
2373,473
2374,492
2375,499
2376,503
2377,499
2378,493
2379,477
2380,462
2381,440
2382,431
2383,445
2384,464
2385,462
2386,449
2387,463
2388,482
2390,487
2391,503
2392,519
2393,517
2394,512
2395,507
2395,504
2396,495
2397,496
2398,493
2399,481
2400,476
2401,493
2402,504
2403,495
2404,491
2405,484
2406,479
2407,477
2408,473
2409,467
2410,467
2411,463
2412,456
2413,447
2414,428
2415,430
2416,454
2417,480
2418,497
2419,496
2420,507
2421,511
2422,505
2423,502
2424,504
2425,497
2426,509
2427,529
2428,531
2429,523
2430,522
2432,511
2433,501
2434,487
2435,472
2436,464
2437,460
2437,461
2438,452
2439,468
2440,467
2441,475
2442,493
2443,491
2444,485
2445,486
2446,479
2447,474
2448,466
2449,458
2450,458
2451,468
2452,471
2453,471
2454,473
2455,480
2456,481
2457,481
2458,500
2459,494
2460,489
2461,484
2462,488
2463,502
2464,518
2465,527
2466,520
2467,510
2468,490
2469,482
2470,507
2471,527
2472,527
2473,530
2475,518
2476,514
2477,516
2478,520
2479,521
2480,519
2480,512
2481,505
2482,494
2483,494
2484,483
2485,474
2486,476
2487,482
2488,484
2489,487
2490,490
2491,484
2492,492
2493,497
2494,494
2495,500
2496,517
2497,525
2498,522
2499,518
2500,532
2501,547
2502,549
2503,558
2504,553
2505,545
2506,551
2507,555
2508,544
2509,535
2510,546
2511,542
2512,538
2513,531
2514,527
2515,523
2516,520
2518,514
2519,505
2520,487
2521,471
2522,467
2523,463
2523,465
2524,456
2525,455
2526,452
2527,447
2528,459
2529,478
2530,494
2531,494
2532,475
2533,457
2534,448
2535,444
2536,446
2537,448
2538,445
2539,447
2540,455
2541,451
2542,458
2543,469
2544,472
2545,491
253
32365,517
32366,520
32367,531
32368,537
32369,532
32370,526
32371,523
32372,525
32373,519
32374,519
32375,525
32376,515
32377,515
32378,497
32379,492
32380,491
32381,495
32382,502
32384,502
32385,511
32386,516
32387,520
32388,527
32389,531
32390,535
32390,526
32391,515
32392,507
32393,512
32394,527
32395,541
32396,556
32397,559
32398,554
32399,553
32400,557
32401,557
32402,547
32403,537
32404,541
32405,545
32406,547
32407,545
32408,544
32409,540
32410,527
32411,520
32412,526
32413,533
32414,556
32415,574
32416,582
32417,577
32418,562
32419,553
32420,544
32421,537
32422,539
32423,550
32424,557
32425,550
32427,548
32428,549
32429,548
32430,545
32431,542
32432,549
32433,570
32433,576
32434,585
32435,586
32436,582
32437,574
32438,570
32439,572
32440,568
32441,571
32442,571
32443,558
32444,555
32445,554
32446,553
32447,553
32448,569
32449,581
32450,570
32451,551
32452,535
32453,513
32454,515
32455,523
32456,536
32457,541
32458,545
32459,540
32460,532
32461,522
32462,513
32463,511
32464,531
32465,538
32466,535
32467,521
32468,505
32470,505
32471,503
32472,499
32473,499
32474,500
32475,510
32475,509
32476,515
32477,510
32478,499
32479,486
32480,472
32481,472
32482,475
32483,467
32484,456
32485,458
32486,468
32487,476
32488,479
32489,473
32490,459
32491,459
32492,462
32493,448
32494,438
32495,437
32496,430
32497,418
32498,424
32499,432
32500,437
32501,430
32502,427
32503,442
32504,460
32505,455
32506,434
32507,431
32508,433
32509,435
32510,431
32512,426
32513,414
32514,401
32515,393
32516,380
32517,383
32518,382
32518,385
32519,382
32520,369
32521,376
32522,405
32523,424
32524,436
32525,428
32526,410
32527,392
32528,378
32529,378
32530,379
32531,381
32532,385
32533,395
32534,408
32535,406
32536,404
32537,396
32538,387
32539,379
32540,372
32541,389
32542,400
32543,410
32544,415
32545,404
32546,402
32547,399
32548,398
32549,408
32550,413
32551,415
32552,413
32553,415
32555,422
32556,406
32557,403
32558,408
32559,412
32560,412
32561,401
32561,408
32562,423
32563,427
32564,436
32565,449
32566,457
32567,447
32568,434
32569,419
32570,410
32571,414
32572,419
32573,413
32574,420
32575,429
32576,438
32577,445
32578,445
32579,434
32580,430
32581,435
32582,434
32583,438
32584,448
32585,452
32586,451
32587,448
32588,443
32589,443
32590,454
32591,459
32592,460
32593,462
32594,475
32595,472
32596,465
32598,456
32599,453
32600,439
32601,429
32602,447
32603,466
32603,475
32604,471
32605,462
32606,454
32607,443
32608,439
32609,433
32610,451
32611,469
32612,476
32613,477
32614,490
32615,481
32616,478
32617,457
32618,441
32619,431
32620,420
32621,437
32622,452
32623,468
32624,476
32625,471
32626,471
32627,468
32628,465
32629,467
32630,473
32631,479
32632,479
32633,482
32634,479
32635,473
32636,461
32637,451
32638,445
32640,449
32641,467
32642,491
32643,488
32644,487
32645,484
32646,481
32646,482
32647,492
32648,488
32649,469
32650,460
32651,455
32652,451
32653,465
32654,476
32655,478
32656,471
32657,466
32658,462
32659,453
32660,447
32661,453
32662,473
32663,499
32664,505
32665,496
32666,487
32667,470
32668,472
32669,467
32670,456
32671,442
32672,439
32673,457
32674,463
32675,475
32676,485
32677,489
32678,489
32679,478
32680,485
32681,500
32683,497
32684,495
32685,489
32686,488
32687,484
32688,478
32689,475
32689,471
32690,468
32691,474
32692,473
32693,491
32694,491
32695,496
32696,499
32697,501
32698,493
32699,491
32700,483
32701,460
32702,451
32703,467
32704,486
32705,495
32706,503
32707,505
32708,502
32709,493
32710,486
32711,482
32712,481
32713,495
32714,487
32715,474
32716,471
32717,476
32718,479
32719,473
32720,477
32721,470
32722,462
32723,464
32724,483
32726,478
32727,460
32728,455
32729,460
32730,480
32731,487
32731,494
32732,495
32733,498
32734,500
32735,507
32736,517
32737,521
32738,509
32739,495
32740,492
32741,489
32742,490
32743,490
32744,488
32745,483
32746,482
32747,489
32748,480
32749,472
32750,470
32751,470
32752,474
32753,489
32754,495
32755,498
32756,496
32757,488
32758,478
32759,477
32760,488
32761,501
32762,504
32763,513
32764,496
32765,483
32766,479
32768,485
32769,478
32770,476
32771,477
32772,484
32773,492
32774,493
32774,488
32775,484
32776,487
32777,498
32778,501
32779,505
32780,503
32781,493
32782,485
32783,487
32784,489
32785,483
32786,485
32787,485
32788,484
32789,482
32790,475
32791,475
32792,495
32793,503
32794,488
32795,470
32796,459
32797,457
32798,454
32799,465
32800,492
32801,511
32802,514
32803,505
32804,502
32805,511
32806,516
32807,508
32808,492
32809,501
32811,501
32812,493
32813,501
32814,509
32815,506
32816,508
32817,509
32817,506
32818,489
32819,475
32820,466
32821,462
32822,476
32823,497
32824,506
32825,513
32826,515
32827,510
32828,501
32829,493
32830,499
32831,496
32832,493
32833,493
32834,504
32835,495
32836,493
32837,488
32838,490
32839,501
32840,510
32841,507
32842,512
32843,511
32844,507
32845,504
32846,503
32847,504
32848,500
32849,489
32850,484
32851,484
32852,504
32854,514
32855,509
32856,498
32857,493
32858,500
32859,531
32859,551
32860,555
32861,546
32862,530
32863,518
32864,512
32865,507
32866,499
32867,503
32868,507
32869,506
32870,508
32871,509
32872,511
32873,497
32874,515
32875,534
32876,538
32877,528
32878,524
32879,520
32880,539
32881,564
32882,566
32883,548
32884,533
32885,530
32886,530
32887,530
32888,534
32889,549
32890,559
32891,559
32892,564
32893,559
32894,553
32896,534
32897,518
32898,516
32899,518
32900,518
32901,521
32902,518
32902,521
32903,522
32904,520
32905,509
32906,497
32907,480
32908,462
32909,442
32910,444
32911,464
32912,476
32913,485
32914,498
32915,498
32916,485
32917,463
32918,444
32919,441
32920,451
32921,481
32922,508
32923,515
32924,508
32925,494
32926,491
32927,476
32928,469
32929,476
32930,478
32931,492
32932,510
32933,524
32934,530
32935,517
32936,497
32937,482
32939,458
32940,451
32941,461
32942,472
32943,484
32944,494
32945,502
32945,501
32946,492
32947,479
32948,464
32949,465
32950,482
32951,492
32952,504
32953,517
32954,528
32955,528
32956,516
32957,501
32958,491
32959,488
32960,494
32961,504
32962,505
32963,510
32964,513
32965,506
32966,505
32967,499
32968,491
32969,498
32970,502
32971,493
32972,490
32973,481
32974,485
32975,491
32976,492
32977,495
32978,515
32979,537
32980,544
32982,560
32983,573
32984,581
32985,589
32986,607
32987,630
32987,647
32988,660
32989,691
32990,727
32991,752
32992,773
32993,784
32994,797
32995,811
32996,826
32997,851
32998,898
32999,949
33000,985
33001,990
33002,990
33003,989
33004,989
33005,989
33006,989
33007,989
33008,990
33009,990
33010,990
33011,939
33012,878
33013,802
33014,712
33015,615
33016,534
33017,462
33018,399
33019,363
33020,341
33021,337
33022,329
33024,322
33025,310
33026,300
33027,295
33028,297
33029,301
33030,310
33030,323
33031,338
33032,343
33033,358
33034,371
33035,369
33036,373
33037,373
33038,377
33039,400
33040,420
33041,438
33042,446
33043,449
33044,452
33045,457
33046,452
33047,429
33048,421
33049,413
33050,411
33051,424
33052,431
33053,436
33054,431
33055,428
33056,435
33057,438
33058,440
33059,444
33060,441
33061,440
33062,438
33063,446
33064,457
33065,458
33067,458
33068,454
33069,464
33070,474
33071,491
33072,499
33073,479
33073,458
33074,446
33075,447
33076,449
33077,455
33078,469
33079,470
33080,465
33081,470
33082,480
33083,479
33084,467
33085,457
33086,448
33087,442
33088,445
33089,459
33090,485
33091,509
33092,498
33093,476
33094,462
33095,458
33096,473
33097,484
33098,491
33099,499
33100,501
33101,495
33102,504
33103,515
33104,512
33105,494
33106,481
33107,478
33108,487
33110,497
33111,508
33112,527
33113,525
33114,524
33115,522
33115,519
33116,500
33117,476
33118,472
33119,479
33120,483
33121,487
33122,489
33123,503
33124,517
33125,514
33126,509
33127,501
33128,494
33129,493
33130,497
33131,515
33132,525
33133,523
33134,525
33135,523
33136,523
33137,527
33138,524
33139,528
33140,537
33141,542
33142,543
33143,536
33144,524
33145,517
33146,513
33147,512
33148,519
33149,536
33150,541
33152,539
33153,526
33154,526
33155,530
33156,535
33157,536
33158,529
33158,518
33159,506
33160,515
33161,538
33162,549
33163,541
33164,535
33165,531
33166,534
33167,540
33168,553
33169,564
33170,550
33171,556
33172,554
33173,554
33174,541
33175,535
33176,537
33177,540
33178,543
33179,545
33180,551
33181,555
33182,556
33183,556
33184,559
33185,567
33186,564
33187,558
33188,563
33189,566
33190,569
33191,587
33192,579
33193,573
33195,571
33196,569
33197,564
33198,570
33199,575
33200,584
33201,606
33201,621
33202,608
33203,595
33204,582
33205,567
33206,563
33207,562
33208,576
33209,592
33210,604
33211,608
33212,592
33213,581
33214,586
33215,586
33216,584
33217,587
33218,571
33219,568
33220,571
33221,577
33222,579
33223,590
33224,595
33225,592
33226,578
33227,575
33228,577
33229,580
33230,590
33231,596
33232,584
33233,570
33234,580
33235,592
33236,585
33238,566
33239,552
33240,548
33241,550
33242,552
33243,548
33243,552
33244,548
33245,540
33246,535
33247,535
33248,536
33249,528
33250,538
33251,547
33252,548
33253,530
33254,519
33255,520
33256,517
33257,509
33258,512
33259,511
33260,516
33261,522
33262,519
33263,505
33264,484
33265,466
33266,450
33267,456
33268,478
33269,476
33270,478
33271,471
33272,461
33273,446
33274,435
33275,425
33276,417
33277,420
33278,432
33280,444
33281,457
33282,470
33283,476
33284,457
33285,429
33286,413
33286,414
33287,421
33288,418
33289,415
33290,426
33291,423
33292,417
33293,408
33294,399
33295,405
33296,418
33297,420
33298,420
33299,416
33300,415
33301,414
33302,409
33303,397
33304,381
33305,374
33306,373
33307,381
33308,398
33309,398
33310,407
33311,400
33312,398
33313,403
33314,411
33315,410
33316,399
33317,380
33318,371
33319,376
33320,397
33321,410
33323,420
33324,432
33325,439
33326,435
33327,426
33328,419
33329,412
33329,403
33330,403
33331,394
33332,402
33333,405
33334,407
33335,416
33336,421
33337,419
33338,423
33339,435
33340,449
33341,449
33342,436
33343,423
33344,418
33345,419
33346,423
33347,431
33348,437
33349,445
33350,446
33351,433
33352,428
33353,421
33354,420
33355,427
33356,430
33357,427
33358,441
33359,457
33360,466
33361,463
33362,451
33363,439
33364,434
33366,424
33367,424
33368,431
33369,439
33370,432
33371,445
33371,447
33372,442
33373,441
33374,452
33375,461
33376,466
33377,477
33378,487
33379,497
33380,499
33381,497
33382,486
33383,476
33384,469
33385,459
33386,445
33387,439
33388,446
33389,447
33390,459
33391,459
33392,452
33393,446
33394,447
33395,451
33396,457
33397,461
33398,465
33399,463
33400,461
33401,465
33402,464
33403,457
33404,465
33405,473
33406,469
33408,470
33409,475
33410,478
33411,483
33412,463
33413,449
33414,452
33414,462
33415,475
33416,480
33417,489
33418,487
33419,503
33420,499
33421,484
33422,472
33423,465
33424,464
33425,464
33426,458
33427,462
33428,459
33429,457
33430,466
33431,471
33432,474
33433,488
33434,491
33435,487
33436,487
33437,488
33438,491
33439,494
33440,494
33441,487
33442,493
33443,494
33444,487
33445,472
33446,474
33447,489
33448,496
33449,498
33451,497
33452,491
33453,486
33454,480
33455,482
33456,487
33457,487
33457,480
33458,476
33459,475
33460,480
33461,463
33462,456
33463,466
33464,476
33465,484
33466,478
33467,472
33468,449
33469,459
33470,475
33471,490
33472,485
33473,479
33474,481
33475,474
33476,462
33477,472
33478,490
33479,494
33480,491
33481,491
33482,487
33483,480
33484,470
33485,469
33486,477
33487,477
33488,463
33489,463
33490,461
33491,462
33492,465
33494,464
33495,470
33496,482
33497,493
33498,495
33499,496
33499,499
33500,495
33501,490
33502,493
33503,500
33504,492
33505,475
33506,470
33507,487
33508,498
33509,510
33510,505
33511,498
33512,496
33513,495
33514,491
33515,481
33516,482
33517,478
33518,477
33519,485
33520,492
33521,488
33522,483
33523,485
33524,483
33525,491
33526,500
33527,506
33528,506
33529,515
33530,506
33531,496
33532,493
33533,494
33534,490
33536,488
33537,485
33538,484
33539,497
33540,497
33541,494
33542,494
33542,499
33543,501
33544,489
33545,481
33546,472
33547,466
33548,479
33549,516
33550,532
33551,540
33552,529
33553,514
33554,496
33555,488
33556,483
33557,490
33558,497
33559,499
33560,486
33561,479
33562,482
33563,488
33564,488
33565,496
33566,513
33567,519
33568,524
33569,527
33570,515
33571,517
33572,511
33573,499
33574,493
33575,494
33576,495
33577,506
33579,515
33580,522
33581,528
33582,527
33583,518
33584,509
33585,504
33585,505
33586,510
33587,516
33588,528
33589,542
33590,541
33591,539
33592,544
33593,543
33594,537
33595,532
33596,534
33597,540
33598,548
33599,550
33600,549
33601,555
33602,558
33603,547
33604,536
33605,530
33606,529
33607,528
33608,528
33609,520
33610,508
33611,503
33612,493
33613,488
33614,472
33615,446
33616,434
33617,436
33618,449
33619,459
33620,461
33622,468
33623,478
33624,478
33625,467
33626,470
33627,489
33627,496
33628,495
33629,510
33630,511
33631,501
33632,483
33633,471
33634,466
33635,467
33636,467
33637,470
33638,475
33639,480
33640,474
33641,454
33642,446
33643,461
33644,478
33645,482
33646,476
33647,471
33648,483
33649,496
33650,501
33651,500
33652,496
33653,488
33654,483
33655,479
33656,478
33657,478
33658,482
33659,490
33660,492
33661,493
33662,492
33664,488
33665,480
33666,476
33667,461
33668,474
33669,495
33670,501
33670,494
33671,484
33672,477
33673,481
33674,485
33675,483
33676,487
33677,488
33678,497
33679,497
33680,485
33681,476
33682,471
33683,470
33684,474
33685,481
33686,482
33687,488
33688,512
33689,531
33690,540
33691,538
33692,541
33693,546
33694,558
33695,570
33696,592
33697,613
33698,637
33699,657
33700,677
33701,698
33702,716
33703,730
33704,725
33705,733
33707,758
33708,785
33709,825
33710,864
33711,903
33712,940
33713,974
33713,990
33714,989
33715,989
33716,989
33717,989
33718,989
33719,989
33720,989
33721,989
33722,990
33723,946
33724,868
33725,768
33726,663
33727,572
33728,502
33729,437
33730,402
33731,370
33732,332
33733,291
33734,261
33735,256
33736,274
33737,290
33738,305
33739,320
33740,323
33741,322
33742,313
33743,299
33744,294
33745,311
33746,339
33747,374
33748,410
33750,422
33751,423
33752,408
33753,396
33754,396
33755,403
33755,408
33756,418
33757,435
33758,447
33759,447
33760,443
33761,442
33762,445
33763,445
33764,436
33765,425
33766,425
33767,428
33768,440
33769,431
33770,432
33771,432
33772,426
33773,422
33774,418
33775,425
33776,435
33777,450
33778,452
33779,444
33780,441
33781,441
33782,444
33783,438
33784,435
33785,441
33786,444
33787,445
33788,456
33789,449
33790,443
33792,441
33793,450
33794,449
33795,451
33796,459
33797,470
33798,491
33798,504
33799,510
33800,505
33801,495
33802,471
33803,454
33804,451
33805,457
33806,461
33807,462
33808,466
33809,463
33810,467
33811,477
33812,487
33813,492
33814,491
33815,472
33816,469
33817,469
33818,476
33819,484
33820,480
33821,472
33822,472
33823,475
33824,475
33825,480
33826,482
33827,484
33828,493
33829,495
33830,490
33831,476
33832,474
33833,475
33835,479
33836,480
33837,483
33838,482
33839,473
33840,480
33841,492
33841,500
33842,498
33843,495
33844,499
33845,505
33846,514
33847,521
33848,525
33849,520
33850,507
33851,493
33852,495
33853,494
33854,484
33855,482
33856,488
33857,500
33858,509
33859,508
33860,507
33861,512
33862,516
33863,514
33864,499
33865,491
33866,493
33867,507
33868,518
33869,524
33870,533
33871,527
33872,519
33873,508
33874,508
33875,516
33876,522
33878,530
33879,530
33880,529
33881,535
33882,536
33883,537
33883,531
33884,531
33885,539
33886,545
33887,545
33888,550
33889,564
33890,559
33891,543
33892,526
33893,522
33894,521
33895,529
33896,541
33897,548
33898,545
33899,543
33900,540
33901,531
33902,520
33903,517
33904,516
33905,512
33906,510
33907,531
33908,544
33909,554
33910,552
33911,550
33912,552
33913,560
33914,546
33915,553
33916,567
33917,574
33918,572
33920,579
33921,584
33922,587
33923,581
33924,565
33925,544
33926,538
33926,539
33927,562
33928,575
33929,587
33930,591
33931,595
33932,597
33933,588
33934,580
33935,578
33936,584
33937,591
33938,590
33939,586
33940,576
33941,557
33942,540
33943,532
33944,543
33945,544
33946,533
33947,543
33948,538
33949,531
33950,525
33951,518
33952,508
33953,505
33954,511
33955,512
33956,516
33957,529
33958,530
33959,527
33960,524
33961,506
33963,490
33964,486
33965,481
33966,495
33967,506
33968,516
33969,498
33969,487
33970,482
33971,479
33972,479
33973,471
33974,467
33975,473
33976,472
33977,472
33978,469
33979,467
33980,467
33981,454
33982,441
33983,432
33984,432
33985,427
33986,408
33987,403
33988,383
33989,376
33990,377
33991,396
33992,408
33993,404
33994,401
33995,403
33996,405
33997,405
33998,398
33999,393
34000,384
34001,373
34002,368
34003,366
34004,365
34006,369
34007,387
34008,402
34009,402
34010,405
34011,402
34011,403
34012,395
34013,393
34014,397
34015,403
34016,403
34017,392
34018,380
34019,380
34020,377
34021,367
34022,366
34023,364
34024,360
34025,368
34026,378
34027,385
34028,381
34029,364
34030,360
34031,364
34032,368
34033,373
34034,378
34035,383
34036,383
34037,390
34038,386
34039,378
34040,369
34041,371
34042,371
34043,369
34044,372
34045,375
34046,386
34048,400
34049,404
34050,412
34051,417
34052,418
34053,409
34054,403
34054,408
34055,413
34056,410
34057,403
34058,406
34059,416
34060,425
34061,419
34062,411
34063,398
34064,406
34065,402
34066,404
34067,416
34068,419
34069,421
34070,424
34071,417
34072,401
34073,388
34074,384
34075,390
34076,409
34077,418
34078,421
34079,426
34080,438
34081,448
34082,443
34083,433
34084,433
34085,430
34086,415
34087,407
34088,402
34089,404
34091,407
34092,407
34093,411
34094,419
34095,426
34096,430
34097,429
34097,425
34098,427
34099,440
34100,442
34101,435
34102,426
34103,422
34104,426
34105,422
34106,434
34107,442
34108,443
34109,439
34110,446
34111,444
34112,436
34113,421
34114,427
34115,430
34116,430
34117,431
34118,440
34119,444
34120,446
34121,443
34122,430
34123,435
34124,446
34125,444
34126,450
34127,452
34128,444
34129,424
34130,414
34131,424
34132,449
34134,464
34135,464
34136,459
34137,461
34138,460
34139,456
34139,448
34140,444
34141,444
34142,451
34143,460
34144,461
34145,448
34146,461
34147,475
34148,463
34149,445
34150,430
34151,416
34152,404
34153,406
34154,425
34155,443
34156,456
34157,471
34158,478
34159,475
34160,462
34161,459
34162,428
34163,414
34164,414
34165,421
34166,414
34167,421
34168,453
34169,469
34170,464
34171,456
34172,444
34173,431
34174,429
34176,440
34177,455
34178,450
34179,439
34180,432
34181,430
34182,435
34182,440
34183,443
34184,441
34185,440
34186,442
34187,440
34188,445
34189,445
34190,449
34191,458
34192,464
34193,467
34194,461
34195,461
34196,459
34197,459
34198,451
34199,453
34200,457
34201,448
34202,458
34203,471
34204,476
34205,467
34206,476
34207,479
34208,475
34209,459
34210,434
34211,422
34212,397
34213,396
34214,421
34215,458
34216,489
34217,506
34219,507
34220,512
34221,492
34222,469
34223,456
34224,457
34225,450
34225,449
34226,458
34227,453
34228,443
34229,436
34230,435
34231,433
34232,432
34233,432
34234,440
34235,453
34236,465
34237,474
34238,486
34239,474
34240,456
34241,446
34242,439
34243,431
34244,433
34245,444
34246,462
34247,474
34248,475
34249,466
34250,454
34251,445
34252,445
34253,455
34254,460
34255,461
34256,456
34257,442
34258,432
34259,441
34260,454
34262,452
34263,443
34264,447
34265,452
34266,462
34267,468
34267,465
34268,464
34269,474
34270,480
34271,473
34272,464
34273,467
34274,470
34275,468
34276,452
34277,437
34278,434
34279,444
34280,452
34281,454
34282,458
34283,470
34284,479
34285,484
34286,478
34287,464
34288,465
34289,472
34290,480
34291,481
34292,475
34293,466
34294,459
34295,463
34296,463
34297,467
34298,466
34299,455
34300,453
34301,447
34302,439
34304,444
34305,447
34306,470
34307,476
34308,476
34309,479
34310,474
34310,471
34311,454
34312,454
34313,461
34314,467
34315,474
34316,478
34317,474
34318,476
34319,477
34320,463
34321,450
34322,446
34323,455
34324,453
34325,452
34326,445
34327,447
34328,448
34329,451
34330,465
34331,470
34332,466
34333,462
34334,464
34335,463
34336,466
34337,457
34338,463
34339,473
34340,470
34341,457
34342,442
34343,445
34344,451
34345,477
34347,498
34348,503
34349,495
34350,480
34351,465
34352,463
34353,461
34353,472
34354,488
34355,496
34356,489
34357,480
34358,483
34359,484
34360,479
34361,461
34362,474
34363,482
34364,475
34365,474
34366,472
34367,477
34368,485
34369,495
34370,497
34371,495
34372,493
34373,496
34374,497
34375,496
34376,491
34377,490
34378,497
34379,498
34380,499
34381,503
34382,512
34383,519
34384,522
34385,528
34386,518
34387,505
34388,498
34390,497
34391,494
34392,490
34393,494
34394,503
34395,506
34395,501
34396,492
34397,497
34398,503
34399,491
34400,474
34401,464
34402,454
34403,446
34404,445
34405,454
34406,454
34407,456
34408,448
34409,461
34410,462
34411,456
34412,455
34413,461
34414,462
34415,472
34416,472
34417,470
34418,467
34419,460
34420,447
34421,437
34422,437
34423,443
34424,447
34425,448
34426,432
34427,415
34428,410
34429,419
34430,431
34432,445
34433,458
34434,463
34435,467
34436,481
34437,486
34438,475
34438,474
34439,472
34440,457
34441,433
34442,431
34443,445
34444,460
34445,464
34446,457
34447,461
34448,460
34449,469
34450,465
34451,456
34452,448
34453,454
34454,459
34455,458
34456,465
34457,472
34458,470
34459,461
34460,435
34461,432
34462,447
34463,450
34464,447
34465,451
34466,439
34467,448
34468,469
34469,472
34470,476
34471,492
34472,499
34473,502
34475,490
34476,472
34477,460
34478,459
34479,477
34480,493
34481,512
34481,528
34482,527
34483,524
34484,537
34485,566
34486,575
34487,594
34488,626
34489,661
34490,672
34491,680
34492,700
34493,720
34494,732
34495,740
34496,763
34497,799
34498,837
34499,871
34500,908
34501,946
34502,988
34503,990
34504,989
34505,989
34506,989
34507,989
34508,989
34509,989
34510,990
34511,990
34512,967
34513,896
34514,803
34515,698
34516,592
34518,501
34519,443
34520,408
34521,371
34522,330
34523,308
34523,299
34524,291
34525,283
34526,275
34527,273
34528,271
34529,268
34530,275
34531,284
34532,299
34533,308
34534,322
34535,339
34536,351
34537,357
34538,352
34539,351
34540,355
34541,360
34542,370
34543,392
34544,413
34545,409
34546,405
34547,409
34548,406
34549,394
34550,394
34551,406
34552,412
34553,420
34554,434
34555,433
34556,431
34557,431
34558,436
34560,414
34561,401
34562,396
34563,391
34564,384
34565,395
34566,395
34566,403
34567,409
34568,410
34569,410
34570,412
34571,419
34572,428
34573,423
34574,429
34575,430
34576,437
34577,435
34578,432
34579,430
34580,421
34581,426
34582,433
34583,433
34584,441
34585,434
34586,438
34587,438
34588,434
34589,435
34590,443
34591,443
34592,452
34593,464
34594,471
34595,470
34596,466
34597,459
34598,453
34599,453
34600,443
34601,439
34603,441
34604,440
34605,450
34606,457
34607,455
34608,455
34609,458
34609,447
34610,447
34611,455
34612,471
34613,463
34614,461
34615,463
34616,456
34617,458
34618,470
34619,490
34620,484
34621,480
34622,476
34623,473
34624,487
34625,490
34626,488
34627,491
34628,501
34629,494
34630,473
34631,466
34632,465
34633,469
34634,479
34635,487
34636,497
34637,503
34638,503
34639,496
34640,488
34641,491
34642,498
34643,497
34644,495
34646,492
34647,500
34648,503
34649,504
34650,495
34651,494
34651,488
34652,477
34653,471
34654,482
34655,495
34656,511
34657,529
34658,519
34659,502
34660,484
34661,473
34662,479
34663,492
34664,518
34665,529
34666,530
34667,519
34668,512
34669,506
34670,497
34671,499
34672,495
34673,503
34674,516
34675,519
34676,526
34677,524
34678,519
34679,513
34680,518
34681,525
34682,521
34683,518
34684,518
34685,519
34686,525
34688,527
34689,536
34690,540
34691,532
34692,523
34693,528
34694,549
34694,563
34695,561
34696,561
34697,569
34698,588
34699,590
34700,582
34701,567
34702,542
34703,518
34704,512
34705,514
34706,527
34707,544
34708,547
34709,555
34710,554
34711,549
34712,539
34713,541
34714,545
34715,543
34716,539
34717,534
34718,529
34719,525
34720,524
34721,529
34722,539
34723,551
34724,562
34725,556
34726,542
34727,549
34728,553
34729,546
34731,534
34732,544
34733,552
34734,566
34735,570
34736,557
34737,546
34737,533
34738,527
34739,528
34740,543
34741,551
34742,540
34743,539
34744,527
34745,512
34746,506
34747,498
34748,496
34749,492
34750,490
34751,501
34752,511
34753,516
34754,513
34755,505
34756,491
34757,488
34758,478
34759,475
34760,480
34761,482
34762,480
34763,481
34764,479
34765,481
34766,479
34767,466
34768,448
34769,429
34770,430
34771,448
34772,454
34774,460
34775,453
34776,447
34777,444
34778,445
34779,441
34779,432
34780,435
34781,438
34782,439
34783,449
34784,453
34785,424
34786,398
34787,398
34788,410
34789,418
34790,418
34791,407
34792,399
34793,399
34794,392
34795,392
34796,390
34797,394
34798,387
34799,374
34800,370
34801,376
34802,382
34803,385
34804,382
34805,391
34806,405
34807,396
34808,389
34809,386
34810,391
34811,396
34812,392
34813,394
34814,389
34816,392
34817,403
34818,403
34819,395
34820,381
34821,375
34822,379
34822,392
34823,404
34824,394
34825,389
34826,390
34827,392
34828,388
34829,383
34830,374
34831,363
34832,368
34833,390
34834,416
34835,429
34836,437
34837,435
34838,420
34839,409
34840,406
34841,413
34842,425
34843,437
34844,425
34845,404
34846,397
34847,395
34848,392
34849,390
34850,393
34851,403
34852,415
34853,423
34854,429
34855,444
34856,454
34857,439
34859,438
34860,429
34861,426
34862,437
34863,443
34864,455
34865,447
34865,426
34866,426
34867,432
34868,427
34869,419
34870,423
34871,442
34872,460
34873,476
34874,477
34875,468
34876,457
34877,443
34878,432
34879,428
34880,436
34881,442
34882,446
34883,453
34884,442
34885,439
34886,443
34887,448
34888,426
34889,399
34890,403
34891,404
34892,417
34893,440
34894,465
34895,486
34896,515
34897,510
34898,478
34899,447
34900,426
34902,428
34903,437
34904,460
34905,459
34906,460
34907,449
34907,451
34908,464
34909,469
34910,456
34911,447
34912,455
34913,460
34914,467
34915,473
34916,479
34917,478
34918,468
34919,470
34920,472
34921,468
34922,465
34923,468
34924,459
34925,458
34926,468
34927,472
34928,464
34929,461
34930,465
34931,477
34932,488
34933,482
34934,475
34935,466
34936,456
34937,450
34938,443
34939,447
34940,460
34941,466
34942,464
34944,452
34945,438
34946,432
34947,449
34948,460
34949,463
34950,454
34950,467
34951,475
34952,477
34953,486
34954,483
34955,477
34956,474
34957,482
34958,480
34959,480
34960,485
34961,488
34962,494
34963,490
34964,480
34965,474
34966,476
34967,481
34968,479
34969,478
34970,482
34971,489
34972,490
34973,484
34974,483
34975,483
34976,478
34977,468
34978,462
34979,466
34980,474
34981,479
34982,478
34983,468
34984,480
34985,496
34987,501
34988,490
34989,478
34990,482
34991,488
34992,482
34993,485
34993,495
34994,493
34995,480
34996,454
34997,445
34998,446
34999,452
35000,455
35001,460
35002,472
35003,468
35004,460
35005,467
35006,480
35007,488
35008,489
35009,486
35010,494
35011,499
35012,503
35013,499
35014,480
35015,469
35016,473
35017,479
35018,487
35019,500
35020,511
35021,499
35022,489
35023,466
35024,466
35025,481
35026,493
35027,493
35028,495
35030,491
35031,485
35032,486
35033,486
35034,488
35035,482
35035,481
35036,479
35037,482
35038,482
35039,492
35040,500
35041,507
35042,513
35043,507
35044,491
35045,478
35046,477
35047,475
35048,466
35049,465
35050,472
35051,479
35052,496
35053,495
35054,498
35055,484
35056,484
35057,479
35058,464
35059,455
35060,458
35061,462
35062,483
35063,493
35064,511
35065,518
35066,514
35067,503
35068,498
35069,481
35070,476
35072,473
35073,460
35074,454
35075,458
35076,458
35077,468
35078,474
35078,474
35079,482
35080,491
35081,504
35082,515
35083,514
35084,518
35085,516
35086,510
35087,495
35088,472
35089,454
35090,456
35091,485
35092,497
35093,501
35094,498
35095,494
35096,487
35097,477
35098,465
35099,483
35100,498
35101,498
35102,496
35103,498
35104,503
35105,506
35106,505
35107,488
35108,476
35109,480
35110,489
35111,499
35112,508
35113,504
35115,497
35116,492
35117,494
35118,498
35119,501
35120,508
35121,506
35121,502
35122,503
35123,499
35124,493
35125,489
35126,492
35127,497
35128,494
35129,495
35130,499
35131,502
35132,496
35133,493
35134,499
35135,502
35136,501
35137,490
35138,480
35139,476
35140,466
35141,473
35142,475
35143,478
35144,488
35145,500
35146,492
35147,476
35148,476
35149,499
35150,516
35151,512
35152,502
35153,489
35154,480
35155,478
35156,490
35158,503
35159,500
35160,493
35161,495
35162,502
35163,499
35163,499
35164,493
35165,482
35166,486
35167,490
35168,495
35169,504
35170,509
35171,515
35172,509
35173,508
35174,514
35175,518
35176,507
35177,485
35178,472
35179,475
35180,477
35181,494
35182,494
35183,493
35184,477
35185,473
35186,486
35187,485
35188,489
35189,499
35190,506
35191,508
35192,510
35193,500
35194,500
35195,508
35196,510
35197,494
35198,479
35200,482
35201,497
35202,520
35203,519
35204,518
35205,496
35206,493
35206,493
35207,486
35208,476
35209,473
35210,482
35211,497
35212,511
35213,530
35214,535
35215,528
35216,522
35217,511
35218,503
35219,488
35220,481
35221,488
35222,484
35223,493
35224,506
35225,511
35226,506
35227,495
35228,493
35229,504
35230,522
35231,544
35232,544
35233,537
35234,529
35235,521
35236,515
35237,513
35238,509
35239,511
35240,517
35241,522
35243,516
35244,517
35245,512
35246,510
35247,505
35248,500
35249,489
35249,495
35250,521
35251,544
35252,563
35253,574
35254,553
35255,540
35256,532
35257,523
35258,529
35259,525
35260,515
35261,523
35262,529
35263,536
35264,548
35265,561
35266,566
35267,548
35268,526
35269,517
35270,512
35271,514
35272,513
35273,498
35274,488
35275,489
35276,485
35277,482
35278,480
35279,479
35280,477
35281,480
35282,482
35283,479
35284,476
35286,476
35287,466
35288,454
35289,437
35290,441
35291,478
35291,503
35292,511
35293,489
35294,465
35295,466
35296,470
35297,476
35298,480
35299,488
35300,498
35301,512
35302,514
35303,494
35304,483
35305,474
35306,467
35307,473
35308,483
35309,487
35310,485
35311,493
35312,496
35313,490
35314,480
35315,482
35316,478
35317,477
35318,483
35319,485
35320,489
35321,496
35322,488
35323,481
35324,479
35325,474
35326,472
35328,491
35329,517
35330,518
35331,518
35332,513
35333,504
35334,498
35334,496
35335,493
35336,499
35337,495
35338,497
35339,507
35340,520
35341,523
35342,523
35343,532
35344,526
35345,528
35346,535
35347,538
35348,542
35349,554
35350,561
35351,575
35352,598
35353,615
35354,636
35355,642
35356,651
35357,672
35358,690
35359,711
35360,736
35361,772
35362,816
35363,835
35364,851
35365,872
35366,910
35367,948
35368,979
35369,990
35371,990
35372,989
35373,989
35374,989
35375,989
35376,989
35377,989
35377,989
35378,990
35379,932
35380,881
35381,815
35382,744
35383,651
35384,549
35385,457
35386,383
35387,341
35388,334
35389,325
35390,317
35391,308
35392,304
35393,313
35394,313
35395,306
35396,297
35397,299
35398,310
35399,320
35400,352
35401,371
35402,378
35403,374
35404,387
35405,402
35406,411
35407,414
35408,420
35409,426
35410,430
35411,437
35412,443
35414,441
35415,433
35416,429
35417,421
35418,417
35419,418
35419,422
35420,437
35421,445
35422,444
35423,433
35424,423
35425,416
35426,413
35427,428
35428,437
35429,445
35430,459
35431,464
35432,475
35433,476
35434,465
35435,461
35436,453
35437,457
35438,465
35439,461
35440,470
35441,467
35442,460
35443,460
35444,460
35445,464
35446,459
35447,459
35448,468
35449,471
35450,470
35451,478
35452,472
35453,479
35454,493
35456,495
35457,484
35458,482
35459,485
35460,485
35461,492
35462,485
35462,484
35463,494
35464,507
35465,515
35466,521
35467,522
35468,522
35469,522
35470,512
35471,496
35472,491
35473,495
35474,500
35475,500
35476,488
35477,481
35478,483
35479,476
35480,480
35481,483
35482,490
35483,492
35484,491
35485,491
35486,493
35487,497
35488,503
35489,507
35490,517
35491,514
35492,511
35493,501
35494,486
35495,478
35496,471
35497,471
35499,481
35500,507
35501,538
35502,543
35503,535
35504,535
35505,531
35505,524
35506,525
35507,519
35508,516
35509,519
35510,516
35511,519
35512,531
35513,535
35514,534
35515,529
35516,528
35517,524
35518,526
35519,522
35520,534
35521,535
35522,533
35523,528
35524,526
35525,521
35526,524
35527,542
35528,559
35529,566
35530,565
35531,562
35532,560
35533,546
35534,540
35535,531
35536,534
35537,536
35538,536
35539,539
35540,549
35542,552
35543,553
35544,552
35545,544
35546,548
35547,550
35547,544
35548,547
35549,551
35550,556
35551,541
35552,555
35553,568
35554,571
35555,565
35556,568
35557,571
35558,564
35559,554
35560,549
35561,552
35562,551
35563,538
35564,533
35565,534
35566,545
35567,565
35568,589
35569,606
35570,592
35571,573
35572,568
35573,571
35574,575
35575,571
35576,564
35577,561
35578,562
35579,569
35580,574
35581,579
35582,571
35584,563
35585,560
35586,549
35587,536
35588,546
35589,574
35590,604
35590,608
35591,592
35592,587
35593,584
35594,581
35595,571
35596,562
35597,559
35598,555
35599,565
35600,565
35601,562
35602,563
35603,554
35604,549
35605,549
35606,554
35607,562
35608,557
35609,550
35610,544
35611,538
35612,526
35613,523
35614,536
35615,542
35616,538
35617,542
35618,542
35619,554
35620,550
35621,540
35622,536
35623,534
35624,525
35625,510
35627,507
35628,507
35629,500
35630,504
35631,494
35632,496
35633,504
35633,510
35634,504
35635,477
35636,480
35637,490
35638,486
35639,475
35640,467
35641,469
35642,468
35643,463
35644,462
35645,468
35646,479
35647,476
35648,473
35649,473
35650,460
35651,430
35652,417
35653,415
35654,416
35655,415
35656,408
35657,408
35658,413
35659,433
35660,439
35661,438
35662,443
35663,435
35664,431
35665,429
35666,419
35667,421
35668,433
35670,453
35671,459
35672,456
35673,433
35674,404
35675,381
35675,370
35676,375
35677,384
35678,390
35679,393
35680,390
35681,393
35682,399
35683,400
35684,396
35685,390
35686,388
35687,393
35688,402
35689,416
35690,420
35691,425
35692,431
35693,425
35694,422
35695,419
35696,420
35697,420
35698,425
35699,448
35700,429
35701,428
35702,426
35703,421
35704,423
35705,437
35706,439
35707,439
35708,440
35709,435
35710,434
35712,443
35713,449
35714,443
35715,433
35716,424
35717,419
35718,417
35718,418
35719,433
35720,445
35721,452
35722,448
35723,444
35724,434
35725,430
35726,435
35727,439
35728,439
35729,441
35730,447
35731,462
35732,464
35733,461
35734,455
35735,450
35736,455
35737,459
35738,461
35739,469
35740,471
35741,465
35742,462
35743,460
35744,456
35745,449
35746,449
35747,447
35748,444
35749,455
35750,463
35751,486
35752,489
35753,485
35755,470
35756,451
35757,452
35758,458
35759,457
35760,464
35761,467
35761,470
35762,470
35763,467
35764,462
35765,469
35766,479
35767,484
35768,479
35769,474
35770,467
35771,461
35772,450
35773,455
35774,465
35775,467
35776,476
35777,484
35778,486
35779,474
35780,475
35781,485
35782,492
35783,481
35784,476
35785,479
35786,470
35787,473
35788,482
35789,488
35790,490
35791,490
35792,479
35793,462
35794,461
35795,469
35796,474
35798,475
35799,494
35800,485
35801,479
35802,467
35803,451
35803,462
35804,483
35805,491
35806,492
35807,496
35808,509
35809,508
35810,510
35811,510
35812,496
35813,476
35814,460
35815,448
35816,460
35817,476
35818,496
35819,499
35820,494
35821,497
35822,497
35823,496
35824,493
35825,491
35826,488
35827,483
35828,479
35829,471
35830,470
35831,482
35832,496
35833,502
35834,493
35835,487
35836,476
35837,471
35838,485
35840,494
35841,502
35842,495
35843,479
35844,463
35845,450
35846,447
35846,460
35847,482
35848,508
35849,499
35850,486
35851,473
35852,475
35853,481
35854,479
35855,478
35856,479
35857,481
35858,500
35859,509
35860,509
35861,494
35862,484
35863,481
35864,480
35865,473
35866,473
35867,477
35868,484
35869,483
35870,483
35871,492
35872,502
35873,505
35874,496
35875,500
35876,515
35877,524
35878,524
35879,501
35880,496
35881,494
35883,494
35884,490
35885,484
35886,484
35887,489
35888,496
35889,500
35889,500
35890,495
35891,490
35892,486
35893,487
35894,481
35895,481
35896,473
35897,476
35898,484
35899,464
35900,469
35901,475
35902,478
35903,488
35904,496
35905,492
35906,494
35907,501
35908,497
35909,494
35910,495
35911,495
35912,492
35913,489
35914,480
35915,467
35916,464
35917,473
35918,493
35919,497
35920,498
35921,487
35922,481
35923,483
35924,497
35926,502
35927,503
35928,502
35929,492
35930,483
35931,494
35931,512
35932,525
35933,515
35934,498
35935,495
35936,498
35937,486
35938,481
35939,482
35940,488
35941,498
35942,511
35943,513
35944,499
35945,494
35946,492
35947,499
35948,480
35949,480
35950,495
35951,510
35952,511
35953,490
35954,474
35955,474
35956,479
35957,495
35958,513
35959,515
35960,506
35961,497
35962,494
35963,490
35964,491
35965,494
35966,497
35968,503
35969,511
35970,517
35971,512
35972,501
35973,494
35974,496
35974,501
35975,506
35976,500
35977,499
35978,495
35979,489
35980,491
35981,495
35982,499
35983,501
35984,488
35985,477
35986,476
35987,499
35988,510
35989,510
35990,505
35991,498
35992,491
35993,482
35994,479
35995,476
35996,478
35997,484
35998,483
35999,491
36000,492
36001,496
36002,501
36003,502
36004,505
36005,501
36006,497
36007,496
36008,495
36009,489
36011,481
36012,483
36013,478
36014,466
36015,467
36016,485
36017,503
36017,525
36018,529
36019,519
36020,510
36021,507
36022,502
36023,497
36024,485
36025,478
36026,476
36027,474
36028,474
36029,483
36030,494
36031,496
36032,489
36033,485
36034,493
36035,506
36036,517
36037,522
36038,511
36039,499
36040,491
36041,490
36042,487
36043,480
36044,480
36045,483
36046,495
36047,493
36048,493
36049,502
36050,501
36051,496
36052,484
36054,476
36055,483
36056,498
36057,508
36058,520
36059,517
36059,518
36060,526
36061,527
36062,515
36063,505
36064,495
36065,493
36066,497
36067,504
36068,509
36069,511
36070,509
36071,496
36072,485
36073,487
36074,494
36075,503
36076,508
36077,515
36078,506
36079,510
36080,515
36081,513
36082,510
36083,507
36084,504
36085,512
36086,526
36087,525
36088,519
36089,517
36090,501
36091,493
36092,487
36093,489
36094,501
36096,512
36097,527
36098,522
36099,524
36100,529
36101,525
36102,522
36102,512
36103,511
36104,523
36105,537
36106,540
36107,541
36108,545
36109,542
36110,539
36111,538
36112,541
36113,539
36114,548
36115,552
36116,540
36117,540
36118,530
36119,513
36120,506
36121,500
36122,493
36123,488
36124,482
36125,484
36126,490
36127,495
36128,492
36129,483
36130,469
36131,464
36132,473
36133,485
36134,491
36135,491
36136,496
36137,499
36139,489
36140,481
36141,480
36142,474
36143,463
36144,456
36145,465
36145,477
36146,491
36147,504
36148,513
36149,511
36150,498
36151,477
36152,462
36153,456
36154,467
36155,472
36156,470
36157,469
36158,465
36159,466
36160,462
36161,461
36162,471
36163,481
36164,480
36165,483
36166,487
36167,493
36168,502
36169,504
36170,503
36171,494
36172,481
36173,474
36174,475
36175,479
36176,484
36177,488
36178,484
36179,479
36180,479
36182,472
36183,470
36184,472
36185,478
36186,487
36187,504
36187,512
36188,514
36189,513
36190,509
36191,499
36192,483
36193,481
36194,493
36195,495
36196,492
36197,502
36198,513
36199,519
36200,521
36201,529
36202,537
36203,544
36204,565
36205,584
36206,598
36207,612
36208,629
36209,652
36210,680
36211,704
36212,719
36213,728
36214,750
36215,779
36216,812
36217,831
36218,855
36219,876
36220,913
36221,948
36222,972
36224,990
36225,990
36226,989
36227,989
36228,989
36229,989
36230,989
36230,989
36231,990
36232,956
36233,897
36234,834
36235,760
36236,683
36237,597
36238,515
36239,448
36240,405
36241,372
36242,340
36243,319
36244,302
36245,299
36246,291
36247,297
36248,301
36249,299
36250,303
36251,313
36252,320
36253,336
36254,356
36255,369
36256,381
36257,385
36258,403
36259,423
36260,427
36261,423
36262,402
36263,385
36264,393
36265,408
36267,422
36268,432
36269,429
36270,422
36271,416
36272,412
36273,412
36273,431
36274,442
36275,441
36276,449
36277,442
36278,440
36279,443
36280,439
36281,435
36282,428
36283,430
36284,436
36285,440
36286,450
36287,455
36288,458
36289,456
36290,458
36291,453
36292,450
36293,448
36294,447
36295,441
36296,454
36297,452
36298,451
36299,443
36300,445
36301,454
36302,462
36303,467
36304,458
36305,443
36306,436
36307,443
36308,461
36310,475
36311,484
36312,493
36313,492
36314,477
36315,464
36315,464
36316,467
36317,473
36318,494
36319,517
36320,532
36321,524
36322,506
36323,474
36324,453
36325,453
36326,462
36327,483
36328,504
36329,508
36330,498
36331,476
36332,471
36333,479
36334,481
36335,481
36336,491
36337,487
36338,487
36339,483
36340,484
36341,484
36342,486
36343,483
36344,486
36345,478
36346,485
36347,498
36348,507
36349,509
36350,501
36352,489
36353,488
36354,503
36355,502
36356,494
36357,503
36358,504
36358,514
36359,529
36360,524
36361,513
36362,507
36363,512
36364,513
36365,517
36366,525
36367,532
36368,528
36369,521
36370,515
36371,508
36372,501
36373,501
36374,506
36375,507
36376,513
36377,518
36378,526
36379,522
36380,518
36381,511
36382,494
36383,489
36384,500
36385,524
36386,536
36387,555
36388,563
36389,555
36390,546
36391,541
36392,534
36393,533
36395,541
36396,539
36397,543
36398,539
36399,542
36400,538
36401,532
36401,527
36402,533
36403,549
36404,556
36405,557
36406,552
36407,548
36408,560
36409,568
36410,565
36411,557
36412,552
36413,551
36414,553
36415,554
36416,547
36417,536
36418,535
36419,540
36420,540
36421,543
36422,555
36423,569
36424,576
36425,583
36426,587
36427,580
36428,560
36429,538
36430,548
36431,559
36432,568
36433,571
36434,577
36435,576
36436,559
36438,546
36439,541
36440,539
36441,537
36442,535
36443,542
36443,565
36444,556
36445,562
36446,559
36447,553
36448,552
36449,558
36450,563
36451,560
36452,557
36453,549
36454,545
36455,551
36456,550
36457,552
36458,550
36459,549
36460,548
36461,537
36462,526
36463,528
36464,522
36465,524
36466,519
36467,520
36468,515
36469,500
36470,496
36471,507
36472,517
36473,516
36474,526
36475,546
36476,540
36477,530
36478,513
36480,496
36481,483
36482,471
36483,472
36484,474
36485,476
36486,476
36486,479
36487,474
36488,463
36489,450
36490,440
36491,432
36492,423
36493,425
36494,427
36495,439
36496,441
36497,444
36498,441
36499,432
36500,417
36501,412
36502,421
36503,429
36504,433
36505,441
36506,440
36507,437
36508,436
36509,433
36510,428
36511,418
36512,416
36513,422
36514,424
36515,428
36516,422
36517,417
36518,415
36519,409
36520,398
36521,389
36523,395
36524,397
36525,395
36526,395
36527,392
36528,386
36529,375
36529,371
36530,360
36531,358
36532,378
36533,400
36534,403
36535,411
36536,399
36537,388
36538,383
36539,393
36540,395
36541,400
36542,411
36543,413
36544,410
36545,409
36546,413
36547,411
36548,419
36549,421
36550,410
36551,408
36552,416
36553,416
36554,417
36555,430
36556,421
36557,409
36558,407
36559,407
36560,403
36561,400
36562,406
36563,410
36564,418
36566,422
36567,425
36568,409
36569,403
36570,424
36571,437
36571,438
36572,441
36573,438
36574,439
36575,434
36576,419
36577,415
36578,423
36579,427
36580,429
36581,434
36582,435
36583,436
36584,437
36585,440
36586,449
36587,451
36588,448
36589,443
36590,433
36591,427
36592,431
36593,428
36594,438
36595,448
36596,445
36597,450
36598,454
36599,455
36600,453
36601,454
36602,458
36603,453
36604,454
36605,458
36606,458
36608,457
36609,459
36610,459
36611,449
36612,444
36613,443
36614,437
36614,449
36615,472
36616,483
36617,470
36618,459
36619,460
36620,458
36621,460
36622,465
36623,461
36624,459
36625,454
36626,456
36627,468
36628,478
36629,472
36630,459
36631,452
36632,458
36633,464
36634,463
36635,458
36636,458
36637,459
36638,458
36639,452
36640,458
36641,467
36642,467
36643,460
36644,461
36645,461
36646,471
36647,470
36648,471
36649,473
36651,467
36652,460
36653,473
36654,483
36655,500
36656,495
36657,485
36657,479
36658,484
36659,482
36660,469
36661,458
36662,465
36663,475
36664,478
36665,476
36666,473
36667,473
36668,472
36669,468
36670,461
36671,462
36672,468
36673,469
36674,479
36675,479
36676,480
36677,483
36678,488
36679,490
36680,480
36681,471
36682,465
36683,462
36684,465
36685,462
36686,463
36687,463
36688,472
36689,474
36690,466
36691,465
36692,466
36694,477
36695,492
36696,483
36697,480
36698,479
36699,478
36699,478
36700,476
36701,475
36702,477
36703,479
36704,483
36705,482
36706,482
36707,478
36708,475
36709,462
36710,448
36711,456
36712,464
36713,463
36714,461
36715,457
36716,460
36717,463
36718,468
36719,476
36720,476
36721,478
36722,485
36723,483
36724,486
36725,495
36726,502
36727,503
36728,506
36729,506
36730,505
36731,499
36732,487
36733,477
36734,474
36736,468
36737,466
36738,464
36739,466
36740,462
36741,462
36742,475
36742,484
36743,491
36744,496
36745,500
36746,496
36747,484
36748,479
36749,475
36750,462
36751,464
36752,470
36753,453
36754,444
36755,454
36756,465
36757,468
36758,475
36759,492
36760,496
36761,494
36762,494
36763,494
36764,494
36765,488
36766,474
36767,466
36768,467
36769,468
36770,468
36771,479
36772,487
36773,504
36774,512
36775,500
36776,500
36777,500
36779,497
36780,481
36781,466
36782,461
36783,467
36784,474
36785,479
36785,480
36786,479
36787,472
36788,464
36789,458
36790,479
36791,484
36792,480
36793,493
36794,513
36795,512
36796,509
36797,501
36798,488
36799,480
36800,476
36801,479
36802,486
36803,492
36804,498
36805,496
36806,493
36807,491
36808,492
36809,491
36810,486
36811,483
36812,473
36813,477
36814,484
36815,479
36816,473
36817,467
36818,461
36819,462
36820,466
36822,477
36823,482
36824,480
36825,482
36826,492
36827,496
36827,496
36828,496
36829,491
36830,488
36831,498
36832,502
36833,503
36834,501
36835,492
36836,490
36837,494
36838,498
36839,495
36840,506
36841,497
36842,500
36843,505
36844,516
36845,517
36846,516
36847,516
36848,500
36849,478
36850,465
36851,470
36852,484
36853,497
36854,496
36855,489
36856,474
36857,464
36858,443
36859,432
36860,441
36861,459
36862,470
36864,486
36865,498
36866,513
36867,520
36868,515
36869,505
36870,498
36870,488
36871,480
36872,481
36873,490
36874,487
36875,481
36876,481
36877,479
36878,479
36879,488
36880,499
36881,502
36882,510
36883,513
36884,505
36885,496
36886,497
36887,489
36888,488
36889,485
36890,487
36891,495
36892,494
36893,490
36894,478
36895,478
36896,484
36897,486
36898,485
36899,477
36900,476
36901,483
36902,486
36903,488
36904,491
36905,493
36907,490
36908,493
36909,485
36910,472
36911,471
36912,485
36913,496
36913,508
36914,496
36915,496
36916,498
36917,503
36918,495
36919,478
36920,471
36921,482
36922,497
36923,505
36924,512
36925,517
36926,524
36927,528
36928,528
36929,519
36930,520
36931,520
36932,519
36933,517
36934,495
36935,476
36936,466
36937,469
36938,472
36939,480
36940,476
36941,478
36942,473
36943,471
36944,479
36945,479
36946,474
36947,469
36948,456
36950,457
36951,478
36952,504
36953,511
36954,513
36955,500
36955,488
36956,480
36957,476
36958,472
36959,466
36960,474
36961,494
36962,511
36963,516
36964,512
36965,515
36966,505
36967,493
36968,492
36969,495
36970,503
36971,507
36972,509
36973,509
36974,506
36975,507
36976,507
36977,502
36978,498
36979,495
36980,491
36981,492
36982,490
36983,486
36984,482
36985,480
36986,480
36987,481
36988,481
36989,476
36990,482
36992,492
36993,497
36994,495
36995,482
36996,481
36997,492
36998,505
36998,511
36999,501
37000,494
37001,494
37002,502
37003,515
37004,517
37005,518
37006,523
37007,524
37008,520
37009,523
37010,538
37011,541
37012,542
37013,531
37014,513
37015,498
37016,494
37017,492
37018,496
37019,497
37020,504
37021,509
37022,514
37023,517
37024,523
37025,515
37026,507
37027,516
37028,527
37029,524
37030,527
37031,534
37032,540
37033,540
37035,539
37036,539
37037,523
37038,521
37039,531
37040,532
37041,536
37041,545
37042,561
37043,569
37044,557
37045,539
37046,526
37047,521
37048,511
37049,499
37050,497
37051,493
37052,497
37053,498
37054,488
37055,480
37056,472
37057,465
37058,461
37059,457
37060,460
37061,465
37062,468
37063,466
37064,471
37065,471
37066,468
37067,466
37068,460
37069,460
37070,459
37071,464
37072,474
37073,478
37074,483
37075,489
37076,490
37078,487
37079,483
37080,488
37081,491
37082,489
37083,494
37083,497
37084,496
37085,490
37086,486
37087,479
37088,470
37089,468
37090,467
37091,471
37092,478
37093,478
37094,481
37095,478
37096,478
37097,474
37098,472
37099,477
37100,487
37101,497
37102,504
37103,497
37104,492
37105,486
37106,475
37107,468
37108,454
37109,458
37110,473
37111,491
37112,507
37113,503
37114,501
37115,492
37116,480
37117,474
37118,473
37120,480
37121,486
37122,491
37123,490
37124,492
37125,499
37126,505
37126,512
37127,525
37128,532
37129,540
37130,548
37131,559
37132,578
37133,588
37134,602
37135,620
37136,642
37137,657
37138,667
37139,684
37140,706
37141,733
37142,751
37143,768
37144,786
37145,820
37146,857
37147,887
37148,921
37149,961
37150,990
37151,989
37152,989
37153,989
37154,988
37155,988
37156,988
37157,989
37158,989
37159,989
37160,990
37161,923
37163,844
37164,743
37165,638
37166,543
37167,469
37168,412
37169,370
37169,342
37170,323
37171,311
37172,303
37173,296
37174,299
37175,304
37176,296
37177,291
37178,295
37179,307
37180,326
37181,354
37182,376
37183,383
37184,382
37185,387
37186,392
37187,397
37188,399
37189,408
37190,416
37191,421
37192,426
37193,420
37194,414
37195,415
37196,414
37197,405
37198,409
37199,416
37200,430
37201,448
37202,441
37203,430
37204,424
37206,421
37207,419
37208,412
37209,408
37210,414
37211,415
37211,418
37212,427
37213,430
37214,430
37215,418
37216,411
37217,409
37218,428
37219,441
37220,450
37221,452
37222,447
37223,445
37224,448
37225,452
37226,462
37227,456
37228,442
37229,432
37230,429
37231,446
37232,474
37233,481
37234,478
37235,473
37236,470
37237,460
37238,454
37239,468
37240,472
37241,477
37242,479
37243,482
37244,484
37245,481
37246,479
37248,467
37249,464
37250,472
37251,481
37252,486
37253,492
37254,501
37254,501
37255,495
37256,493
37257,492
37258,489
37259,493
37260,495
37261,498
37262,494
37263,485
37264,484
37265,481
37266,484
37267,491
37268,487
37269,491
37270,499
37271,518
37272,512
37273,507
37274,499
37275,494
37276,499
37277,492
37278,480
37279,486
37280,492
37281,497
37282,498
37283,502
37284,507
37285,501
37286,495
37287,484
37288,471
37289,471
37291,483
37292,511
37293,520
37294,519
37295,516
37296,515
37297,506
37297,496
37298,489
37299,493
37300,501
37301,510
37302,523
37303,530
37304,532
37305,530
37306,527
37307,517
37308,516
37309,513
37310,514
37311,541
37312,543
37313,541
37314,543
37315,544
37316,544
37317,529
37318,514
37319,521
37320,529
37321,540
37322,546
37323,550
37324,552
37325,552
37326,540
37327,529
37328,532
37329,540
37330,549
37331,555
37332,547
37334,544
37335,536
37336,541
37337,547
37338,550
37339,560
37339,565
37340,567
37341,566
37342,566
37343,561
37344,549
37345,542
37346,539
37347,535
37348,547
37349,552
37350,564
37351,571
37352,560
37353,553
37354,555
37355,560
37356,557
37357,554
37358,558
37359,563
37360,562
37361,566
37362,564
37363,562
37364,563
37365,560
37366,561
37367,563
37368,564
37369,569
37370,569
37371,576
37372,575
37373,575
37374,576
37376,574
37377,570
37378,558
37379,539
37380,533
37381,541
37382,554
37382,556
37383,554
37384,539
37385,532
37386,542
37387,538
37388,531
37389,526
37390,526
37391,529
37392,530
37393,529
37394,529
37395,530
37396,527
37397,517
37398,513
37399,523
37400,540
37401,544
37402,534
37403,517
37404,500
37405,485
37406,467
37407,457
37408,469
37409,481
37410,486
37411,480
37412,475
37413,476
37414,483
37415,490
37416,483
37417,476
37419,477
37420,482
37421,482
37422,478
37423,472
37424,467
37425,454
37425,448
37426,444
37427,442
37428,446
37429,452
37430,444
37431,434
37432,429
37433,432
37434,430
37435,424
37436,421
37437,423
37438,431
37439,424
37440,427
37441,433
37442,429
37443,417
37444,410
37445,405
37446,393
37447,384
37448,397
37449,402
37450,402
37451,397
37452,398
37453,398
37454,397
37455,398
37456,398
37457,398
37458,404
37459,408
37460,414
37462,409
37463,408
37464,412
37465,409
37466,409
37467,399
37467,389
37468,390
37469,390
37470,399
37471,407
37472,406
37473,402
37474,397
37475,401
37476,401
37477,403
37478,406
37479,405
37480,407
37481,411
37482,415
37483,428
37484,425
37485,412
37486,394
37487,394
37488,407
37489,412
37490,422
37491,426
37492,421
37493,426
37494,426
37495,420
37496,411
37497,411
37498,421
37499,436
37500,442
37501,429
37502,416
37504,416
37505,415
37506,416
37507,414
37508,420
37509,436
37510,438
37510,443
37511,433
37512,426
37513,427
37514,427
37515,428
37516,425
37517,420
37518,420
37519,415
37520,417
37521,430
37522,442
37523,439
37524,428
37525,427
37526,432
37527,440
37528,452
37529,463
37530,471
37531,461
37532,463
37533,463
37534,468
37535,470
37536,468
37537,465
37538,465
37539,470
37540,472
37541,470
37542,469
37543,465
37544,457
37545,459
37547,451
37548,441
37549,436
37550,441
37551,465
37552,477
37553,477
37553,479
37554,481
37555,469
37556,450
37557,447
37558,452
37559,452
37560,454
37561,448
37562,444
37563,448
37564,477
37565,490
37566,486
37567,476
37568,468
37569,468
37570,489
37571,493
37572,485
37573,475
37574,467
37575,453
37576,446
37577,450
37578,473
37579,483
37580,487
37581,490
37582,478
37583,463
37584,464
37585,448
37586,454
37587,473
37588,480
37590,481
37591,488
37592,479
37593,483
37594,487
37595,497
37595,501
37596,497
37597,500
37598,497
37599,493
37600,483
37601,473
37602,465
37603,457
37604,448
37605,436
37606,438
37607,444
37608,463
37609,469
37610,471
37611,475
37612,478
37613,477
37614,470
37615,466
37616,467
37617,474
37618,474
37619,475
37620,484
37621,492
37622,493
37623,478
37624,470
37625,463
37626,456
37627,457
37628,458
37629,462
37630,472
37632,472
37633,471
37634,464
37635,460
37636,458
37637,449
37638,453
37638,455
37639,462
37640,471
37641,484
37642,488
37643,492
37644,493
37645,479
37646,470
37647,487
37648,490
37649,485
37650,484
37651,470
37652,453
37653,452
37654,459
37655,472
37656,485
37657,492
37658,494
37659,505
37660,513
37661,507
37662,492
37663,485
37664,482
37665,478
37666,476
37667,475
37668,472
37669,492
37670,505
37671,509
37672,501
37673,491
37675,479
37676,475
37677,477
37678,483
37679,478
37680,482
37681,493
37681,491
37682,484
37683,481
37684,478
37685,477
37686,474
37687,476
37688,472
37689,481
37690,482
37691,479
37692,476
37693,465
37694,467
37695,464
37696,462
37697,454
37698,461
37699,490
37700,509
37701,500
37702,492
37703,496
37704,502
37705,486
37706,478
37707,477
37708,476
37709,490
37710,492
37711,471
37712,453
37713,461
37714,467
37715,469
37716,470
37718,473
37719,481
37720,490
37721,490
37722,488
37723,483
37723,485
37724,480
37725,464
37726,463
37727,471
37728,482
37729,495
37730,498
37731,493
37732,473
37733,462
37734,456
37735,457
37736,462
37737,484
37738,495
37739,497
37740,491
37741,487
37742,487
37743,480
37744,473
37745,478
37746,480
37747,483
37748,482
37749,494
37750,491
37751,494
37752,490
37753,481
37754,477
37755,478
37756,481
37757,481
37758,475
37760,479
37761,486
37762,488
37763,484
37764,482
37765,463
37766,452
37766,460
37767,472
37768,473
37769,481
37770,477
37771,479
37772,484
37773,486
37774,477
37775,461
37776,458
37777,474
37778,480
37779,485
37780,490
37781,493
37782,485
37783,475
37784,476
37785,484
37786,480
37787,468
37788,472
37789,488
37790,481
37791,477
37792,476
37793,483
37794,482
37795,472
37796,473
37797,480
37798,491
37799,498
37800,492
37801,472
37803,460
37804,456
37805,459
37806,465
37807,477
37808,476
37809,473
37809,484
37810,502
37811,514
37812,503
37813,489
37814,480
37815,476
37816,490
37817,503
37818,506
37819,498
37820,485
37821,478
37822,473
37823,470
37824,471
37825,477
37826,481
37827,481
37828,480
37829,473
37830,453
37831,453
37832,470
37833,491
37834,490
37835,477
37836,478
37837,489
37838,506
37839,525
37840,526
37841,517
37842,501
37843,493
37844,479
37846,467
37847,482
37848,490
37849,492
37850,492
37851,489
37851,483
37852,481
37853,481
37854,480
37855,475
37856,478
37857,467
37858,469
37859,479
37860,490
37861,492
37862,486
37863,482
37864,481
37865,469
37866,459
37867,460
37868,473
37869,478
37870,480
37871,475
37872,451
37873,440
37874,441
37875,458
37876,475
37877,474
37878,475
37879,472
37880,472
37881,477
37882,476
37883,476
37884,468
37885,465
37886,470
37888,466
37889,484
37890,505
37891,516
37892,513
37893,500
37894,483
37894,466
37895,469
37896,483
37897,485
37898,491
37899,499
37900,498
37901,497
37902,499
37903,497
37904,499
37905,492
37906,481
37907,482
37908,491
37909,490
37910,491
37911,492
37912,485
37913,482
37914,478
37915,478
37916,478
37917,487
37918,492
37919,488
37920,492
37921,485
37922,475
37923,495
37924,503
37925,505
37926,513
37927,515
37928,531
37929,530
37931,521
37932,510
37933,507
37934,501
37935,496
37936,497
37937,500
37937,500
37938,494
37939,487
37940,491
37941,495
37942,492
37943,500
37944,510
37945,515
37946,511
37947,516
37948,530
37949,529
37950,522
37951,517
37952,518
37953,509
37954,498
37955,497
37956,496
37957,494
37958,502
37959,512
37960,520
37961,521
37962,510
37963,512
37964,508
37965,512
37966,521
37967,515
37968,505
37969,482
37970,471
37971,464
37972,463
37974,462
37975,462
37976,468
37977,481
37978,482
37979,477
37979,472
37980,464
37981,468
37982,470
37983,466
37984,458
37985,440
37986,430
37987,439
37988,458
37989,463
37990,473
37991,472
37992,466
37993,458
37994,454
37995,448
37996,449
37997,448
37998,450
37999,446
38000,453
38001,459
38002,459
38003,457
38004,454
38005,462
38006,472
38007,476
38008,477
38009,468
38010,466
38011,459
38012,458
38013,460
38014,457
38016,464
38017,471
38018,475
38019,467
38020,463
38021,472
38022,477
38022,475
38023,460
38024,444
38025,445
38026,441
38027,441
38028,451
38029,458
38030,456
38031,460
38032,469
38033,469
38034,470
38035,474
38036,488
38037,501
38038,501
38039,498
38040,494
38041,492
38042,484
38043,476
38044,486
38045,507
38046,524
38047,530
38048,538
38049,543
38050,552
38051,567
38052,580
38053,588
38054,597
38055,613
38056,632
38057,656
38059,681
38060,710
38061,723
38062,736
38063,755
38064,774
38065,793
38065,824
38066,863
38067,899
38068,925
38069,947
38070,968
38071,990
38072,989
38073,989
38074,990
38075,990
38076,990
38077,983
38078,955
38079,893
38080,822
38081,752
38082,685
38083,601
38084,516
38085,443
38086,386
38087,366
38088,351
38089,326
38090,304
38091,287
38092,285
38093,285
38094,289
38095,296
38096,294
38097,301
38098,294
38099,286
38100,299
38102,313
38103,326
38104,328
38105,346
38106,363
38107,377
38107,393
38108,399
38109,402
38110,408
38111,414
38112,413
38113,398
38114,395
38115,405
38116,413
38117,421
38118,414
38119,407
38120,408
38121,414
38122,417
38123,401
38124,398
38125,406
38126,415
38127,429
38128,429
38129,426
38130,420
38131,418
38132,415
38133,406
38134,412
38135,428
38136,440
38137,445
38138,438
38139,440
38140,446
38141,439
38142,429
38144,433
38145,448
38146,467
38147,475
38148,482
38149,469
38150,451
38150,439
38151,430
38152,430
38153,444
38154,456
38155,460
38156,454
38157,449
38158,450
38159,447
38160,446
38161,448
38162,448
38163,442
38164,444
38165,450
38166,456
38167,466
38168,463
38169,466
38170,452
38171,453
38172,460
38173,456
38174,458
38175,466
38176,471
38177,467
38178,466
38179,467
38180,469
38181,467
38182,462
38183,469
38184,479
38185,473
38187,467
38188,471
38189,469
38190,469
38191,484
38192,494
38193,489
38193,482
38194,483
38195,485
38196,483
38197,469
38198,462
38199,475
38200,484
38201,489
38202,487
38203,484
38204,489
38205,490
38206,496
38207,519
38208,523
38209,519
38210,503
38211,493
38212,488
38213,485
38214,491
38215,495
38216,490
38217,487
38218,488
38219,497
38220,503
38221,504
38222,497
38223,498
38224,506
38225,513
38226,516
38227,528
38228,524
38230,520
38231,505
38232,493
38233,489
38234,489
38235,501
38235,510
38236,521
38237,524
38238,521
38239,517
38240,520
38241,526
38242,523
38243,517
38244,521
38245,530
38246,535
38247,545
38248,541
38249,542
38250,536
38251,523
38252,515
38253,520
38254,540
38255,547
38256,547
38257,542
38258,536
38259,523
38260,518
38261,518
38262,524
38263,521
38264,516
38265,516
38266,528
38267,539
38268,538
38269,543
38270,567
38272,569
38273,558
38274,547
38275,547
38276,545
38277,554
38278,561
38278,563
38279,558
38280,545
38281,539
38282,545
38283,543
38284,550
38285,557
38286,562
38287,556
38288,546
38289,538
38290,536
38291,537
38292,536
38293,536
38294,540
38295,548
38296,556
38297,556
38298,546
38299,541
38300,539
38301,529
38302,519
38303,513
38304,510
38305,502
38306,513
38307,516
38308,527
38309,522
38310,516
38311,514
38312,520
38313,517
38315,512
38316,507
38317,515
38318,514
38319,517
38320,514
38321,509
38321,507
38322,499
38323,497
38324,499
38325,499
38326,498
38327,492
38328,493
38329,488
38330,472
38331,457
38332,445
38333,433
38334,430
38335,430
38336,434
38337,446
38338,456
38339,462
38340,458
38341,448
38342,433
38343,425
38344,427
38345,428
38346,438
38347,427
38348,420
38349,417
38350,416
38351,414
38352,416
38353,412
38354,411
38355,413
38356,414
38358,416
38359,409
38360,399
38361,392
38362,385
38363,373
38363,368
38364,368
38365,368
38366,387
38367,388
38368,386
38369,379
38370,384
38371,377
38372,371
38373,372
38374,371
38375,382
38376,400
38377,406
38378,405
38379,398
38380,389
38381,382
38382,375
38383,381
38384,386
38385,390
38386,394
38387,391
38388,388
38389,385
38390,378
38391,369
38392,365
38393,364
38394,365
38395,371
38396,380
38397,384
38398,380
38400,374
38401,368
38402,365
38403,370
38404,378
38405,381
38406,379
38406,372
38407,366
38408,372
38409,379
38410,392
38411,406
38412,410
38413,416
38414,409
38415,399
38416,399
38417,402
38418,402
38419,403
38420,417
38421,416
38422,413
38423,414
38424,415
38425,423
38426,436
38427,434
38428,431
38429,427
38430,422
38431,410
38432,409
38433,413
38434,426
38435,439
38436,445
38437,448
38438,449
38439,441
38440,441
38441,435
38443,432
38444,430
38445,421
38446,416
38447,425
38448,426
38449,428
38449,434
38450,433
38451,417
38452,404
38453,414
38454,415
38455,427
38456,448
38457,464
38458,468
38459,463
38460,455
38461,450
38462,444
38463,445
38464,445
38465,451
38466,457
38467,460
38468,458
38469,454
38470,459
38471,463
38472,453
38473,449
38474,443
38475,454
38476,456
38477,449
38478,442
38479,431
38480,435
38481,443
38482,447
38483,446
38484,445
38486,450
38487,462
38488,461
38489,452
38490,444
38491,443
38491,444
38492,449
38493,460
38494,463
38495,461
38496,460
38497,454
38498,445
38499,435
38500,430
38501,434
38502,458
38503,475
38504,475
38505,477
38506,470
38507,465
38508,463
38509,465
38510,458
38511,446
38512,447
38513,451
38514,457
38515,468
38516,474
38517,472
38518,469
38519,456
38520,454
38521,444
38522,446
38523,459
38524,461
38525,470
38526,474
38528,482
38529,474
38530,465
38531,465
38532,458
38533,459
38534,466
38534,480
38535,497
38536,488
38537,488
38538,486
38539,476
38540,466
38541,445
38542,437
38543,442
38544,445
38545,455
38546,452
38547,465
38548,468
38549,464
38550,455
38551,447
38552,444
38553,447
38554,457
38555,466
38556,474
38557,473
38558,474
38559,476
38560,477
38561,468
38562,464
38563,466
38564,467
38565,483
38566,477
38567,477
38568,478
38569,478
38571,481
38572,476
38573,470
38574,460
38575,463
38576,473
38577,474
38577,464
38578,453
38579,445
38580,442
38581,441
38582,458
38583,471
38584,479
38585,491
38586,490
38587,487
38588,479
38589,473
38590,473
38591,474
38592,476
38593,485
38594,490
38595,492
38596,488
38597,477
38598,468
38599,459
38600,448
38601,447
38602,453
38603,461
38604,462
38605,468
38606,461
38607,463
38608,466
38609,475
38610,480
38611,475
38612,477
38614,480
38615,475
38616,472
38617,471
38618,478
38619,477
38619,469
38620,474
38621,478
38622,480
38623,479
38624,473
38625,486
38626,495
38627,493
38628,491
38629,487
38630,474
38631,460
38632,458
38633,460
38634,470
38635,476
38636,477
38637,483
38638,487
38639,488
38640,479
38641,467
38642,458
38643,460
38644,469
38645,490
38646,501
38647,499
38648,488
38649,479
38650,471
38651,470
38652,475
38653,481
38654,490
38656,493
38657,485
38658,472
38659,461
38660,460
38661,467
38662,473
38662,480
38663,480
38664,480
38665,481
38666,480
38667,479
38668,482
38669,484
38670,480
38671,471
38672,462
38673,463
38674,485
38675,497
38676,500
38677,509
38678,509
38679,502
38680,494
38681,485
38682,477
38683,474
38684,483
38685,488
38686,489
38687,487
38688,488
38689,485
38690,475
38691,469
38692,471
38693,475
38694,488
38695,493
38696,482
38697,469
38699,472
38700,479
38701,471
38702,463
38703,469
38704,475
38705,485
38705,490
38706,494
38707,489
38708,482
38709,480
38710,477
38711,476
38712,481
38713,490
38714,495
38715,497
38716,494
38717,491
38718,481
38719,474
38720,453
38721,454
38722,465
38723,471
38724,495
38725,501
38726,504
38727,496
38728,483
38729,476
38730,472
38731,478
38732,491
38733,495
38734,489
38735,478
38736,478
38737,479
38738,471
38739,471
38740,464
38742,457
38743,478
38744,499
38745,520
38746,515
38747,506
38747,489
38748,481
38749,489
38750,498
38751,498
38752,493
38753,482
38754,482
38755,485
38756,487
38757,485
38758,481
38759,482
38760,475
38761,473
38762,468
38763,474
38764,496
38765,505
38766,508
38767,499
38768,491
38769,489
38770,488
38771,489
38772,501
38773,500
38774,487
38775,482
38776,485
38777,487
38778,485
38779,481
38780,487
38781,488
38782,491
38784,495
38785,495
38786,482
38787,485
38788,487
38789,478
38790,477
38790,484
38791,500
38792,508
38793,511
38794,509
38795,488
38796,466
38797,471
38798,477
38799,471
38800,464
38801,477
38802,482
38803,486
38804,502
38805,495
38806,501
38807,508
38808,505
38809,496
38810,483
38811,474
38812,470
38813,477
38814,487
38815,493
38816,500
38817,503
38818,509
38819,511
38820,508
38821,500
38822,492
38823,483
38824,482
38825,480
38827,482
38828,476
38829,470
38830,467
38831,474
38832,480
38833,493
38833,497
38834,489
38835,483
38836,483
38837,481
38838,481
38839,481
38840,490
38841,513
38842,526
38843,530
38844,536
38845,527
38846,527
38847,528
38848,523
38849,506
38850,503
38851,512
38852,518
38853,523
38854,523
38855,523
38856,521
38857,528
38858,535
38859,538
38860,541
38861,543
38862,540
38863,534
38864,530
38865,518
38866,514
38867,518
38868,522
38870,518
38871,511
38872,512
38873,514
38874,525
38875,540
38875,549
38876,551
38877,542
38878,529
38879,520
38880,519
38881,513
38882,508
38883,511
38884,514
38885,512
38886,496
38887,472
38888,462
38889,460
38890,458
38891,466
38892,467
38893,473
38894,478
38895,488
38896,490
38897,480
38898,470
38899,463
38900,453
38901,455
38902,463
38903,475
38904,480
38905,480
38906,482
38907,479
38908,479
38909,482
38910,481
38912,484
38913,480
38914,478
38915,469
38916,468
38917,469
38918,464
38918,459
38919,453
38920,459
38921,464
38922,467
38923,476
38924,477
38925,479
38926,484
38927,478
38928,475
38929,474
38930,472
38931,463
38932,457
38933,477
38934,496
38935,501
38936,495
38937,499
38938,499
38939,488
38940,481
38941,482
38942,485
38943,495
38944,480
38945,476
38946,474
38947,475
38948,479
38949,473
38950,468
38951,464
38952,468
38953,483
38955,497
38956,504
38957,498
38958,494
38959,487
38960,482
38961,486
38961,502
38962,519
38963,538
38964,542
38965,545
38966,554
38967,564
38968,571
38969,584
38970,600
38971,618
38972,637
38973,661
38974,685
38975,710
38976,733
38977,751
38978,764
38979,776
38980,800
38981,835
38982,866
38983,913
38984,951
38985,981
38986,990
38987,989
38988,989
38989,989
38990,989
38991,989
38992,989
38993,989
38994,989
38995,990
38996,955
38998,872
38999,783
39000,692
39001,601
39002,522
39003,460
39003,420
39004,387
39005,346
39006,323
39007,306
39008,295
39009,290
39010,284
39011,282
39012,290
39013,304
39014,320
39015,338
39016,347
39017,350
39018,353
39019,358
39020,359
39021,369
39022,380
39023,399
39024,414
39025,421
39026,418
39027,425
39028,428
39029,420
39030,402
39031,391
39032,393
39033,400
39034,411
39035,421
39036,433
39037,427
39038,407
39040,390
39041,397
39042,412
39043,433
39044,453
39045,452
39046,455
39046,461
39047,447
39048,422
39049,414
39050,421
39051,430
39052,442
39053,451
39054,442
39055,429
39056,424
39057,425
39058,421
39059,421
39060,424
39061,428
39062,425
39063,432
39064,439
39065,449
39066,460
39067,474
39068,481
39069,479
39070,476
39071,480
39072,477
39073,470
39074,468
39075,472
39076,478
39077,478
39078,471
39079,470
39080,473
39081,475
39083,471
39084,470
39085,465
39086,459
39087,469
39088,481
39089,478
39089,470
39090,462
39091,455
39092,467
39093,481
39094,496
39095,500
39096,498
39097,487
39098,484
39099,491
39100,493
39101,492
39102,495
39103,497
39104,497
39105,496
39106,488
39107,485
39108,490
39109,491
39110,490
39111,497
39112,509
39113,508
39114,505
39115,508
39116,508
39117,508
39118,492
39119,483
39120,485
39121,491
39122,500
39123,511
39124,525
39126,526
39127,525
39128,522
39129,516
39130,518
39131,519
39131,511
39132,510
39133,510
39134,503
39135,510
39136,527
39137,532
39138,516
39139,507
39140,497
39141,494
39142,506
39143,505
39144,514
39145,515
39146,515
39147,520
39148,521
39149,520
39150,527
39151,526
39152,537
39153,539
39154,532
39155,539
39156,539
39157,537
39158,531
39159,534
39160,537
39161,535
39162,543
39163,538
39164,531
39165,529
39166,533
39168,530
39169,527
39170,531
39171,542
39172,552
39173,557
39174,555
39174,552
39175,551
39176,546
39177,554
39178,558
39179,562
39180,565
39181,560
39182,563
39183,554
39184,550
39185,559
39186,558
39187,553
39188,542
39189,548
39190,554
39191,559
39192,564
39193,568
39194,572
39195,572
39196,570
39197,573
39198,560
39199,561
39200,569
39201,587
39202,603
39203,596
39204,585
39205,576
39206,570
39207,565
39208,563
39209,561
39211,561
39212,560
39213,552
39214,557
39215,564
39216,562
39217,556
39217,549
39218,544
39219,538
39220,528
39221,518
39222,518
39223,526
39224,546
39225,557
39226,555
39227,548
39228,537
39229,530
39230,527
39231,524
39232,516
39233,518
39234,523
39235,522
39236,517
39237,516
39238,503
39239,498
39240,497
39241,501
39242,508
39243,499
39244,491
39245,483
39246,472
39247,469
39248,475
39249,479
39250,483
39251,488
39252,484
39254,484
39255,482
39256,480
39257,465
39258,445
39259,438
39259,443
39260,448
39261,438
39262,440
39263,438
39264,437
39265,429
39266,417
39267,406
39268,414
39269,437
39270,453
39271,453
39272,444
39273,436
39274,427
39275,419
39276,413
39277,407
39278,404
39279,404
39280,406
39281,420
39282,425
39283,412
39284,404
39285,398
39286,396
39287,386
39288,380
39289,391
39290,405
39291,419
39292,430
39293,424
39294,415
39296,402
39297,394
39298,389
39299,392
39300,406
39301,408
39302,412
39302,406
39303,394
39304,386
39305,384
39306,390
39307,392
39308,388
39309,392
39310,406
39311,416
39312,411
39313,411
39314,405
39315,397
39316,393
39317,399
39318,410
39319,410
39320,410
39321,419
39322,415
39323,405
39324,402
39325,402
39326,404
39327,405
39328,400
39329,406
39330,417
39331,442
39332,457
39333,455
39334,447
39335,443
39336,443
39337,433
39339,426
39340,421
39341,414
39342,421
39343,430
39344,427
39345,420
39345,426
39346,442
39347,445
39348,441
39349,441
39350,439
39351,446
39352,455
39353,457
39354,451
39355,445
39356,439
39357,435
39358,443
39359,440
39360,434
39361,445
39362,447
39363,450
39364,459
39365,460
39366,455
39367,453
39368,454
39369,465
39370,468
39371,464
39372,465
39373,460
39374,450
39375,454
39376,460
39377,456
39378,450
39379,455
39380,460
39382,472
39383,464
39384,460
39385,460
39386,451
39387,437
39387,429
39388,424
39389,426
39390,440
39391,455
39392,471
39393,481
39394,476
39395,473
39396,464
39397,450
39398,444
39399,449
39400,458
39401,470
39402,467
39403,471
39404,478
39405,475
39406,463
39407,441
39408,437
39409,463
39410,477
39411,489
39412,499
39413,505
39414,495
39415,483
39416,467
39417,447
39418,446
39419,468
39420,484
39421,495
39422,493
39424,489
39425,477
39426,463
39427,451
39428,446
39429,465
39430,478
39430,487
39431,491
39432,485
39433,479
39434,471
39435,468
39436,462
39437,453
39438,450
39439,455
39440,459
39441,473
39442,488
39443,502
39444,503
39445,497
39446,491
39447,477
39448,467
39449,464
39450,477
39451,491
39452,488
39453,481
39454,487
39455,494
39456,484
39457,476
39458,473
39459,472
39460,474
39461,482
39462,489
39463,498
39464,503
39465,494
39467,486
39468,485
39469,496
39470,503
39471,509
39472,513
39473,506
39473,491
39474,480
39475,470
39476,452
39477,447
39478,464
39479,480
39480,492
39481,496
39482,490
39483,484
39484,481
39485,482
39486,484
39487,488
39488,494
39489,488
39490,486
39491,482
39492,475
39493,478
39494,480
39495,477
39496,485
39497,489
39498,492
39499,483
39500,478
39501,480
39502,479
39503,477
39504,476
39505,480
39506,482
39507,485
39508,491
39510,493
39511,500
39512,497
39513,485
39514,479
39515,476
39515,479
39516,478
39517,472
39518,469
39519,471
39520,495
39521,498
39522,500
39523,495
39524,489
39525,483
39526,479
39527,480
39528,484
39529,483
39530,482
39531,483
39532,489
39533,499
39534,507
39535,493
39536,468
39537,461
39538,475
39539,506
39540,528
39541,521
39542,515
39543,506
39544,490
39545,478
39546,482
39547,490
39548,493
39549,491
39550,487
39552,481
39553,481
39554,487
39555,491
39556,488
39557,479
39558,471
39558,466
39559,470
39560,481
39561,481
39562,486
39563,486
39564,490
39565,488
39566,479
39567,474
39568,471
39569,477
39570,484
39571,488
39572,490
39573,492
39574,487
39575,487
39576,491
39577,495
39578,495
39579,495
39580,514
39581,512
39582,513
39583,516
39584,515
39585,492
39586,477
39587,477
39588,485
39589,488
39590,484
39591,479
39592,480
39593,473
39595,470
39596,479
39597,485
39598,486
39599,495
39600,501
39601,510
39601,503
39602,500
39603,488
39604,482
39605,478
39606,467
39607,466
39608,486
39609,505
39610,510
39611,508
39612,507
39613,504
39614,498
39615,493
39616,491
39617,492
39618,491
39619,489
39620,499
39621,504
39622,501
39623,490
39624,485
39625,479
39626,471
39627,476
39628,489
39629,492
39630,480
39631,477
39632,487
39633,500
39634,508
39635,504
39636,505
39638,506
39639,504
39640,504
39641,511
39642,503
39643,501
39643,501
39644,499
39645,499
39646,509
39647,503
39648,487
39649,486
39650,491
39651,489
39652,480
39653,470
39654,480
39655,478
39656,470
39657,471
39658,471
39659,489
39660,518
39661,519
39662,506
39663,494
39664,486
39665,488
39666,482
39667,489
39668,485
39669,491
39670,495
39671,493
39672,490
39673,492
39674,497
39675,502
39676,507
39677,513
39678,512
39680,508
39681,508
39682,502
39683,494
39684,485
39685,472
39686,462
39686,469
39687,481
39688,486
39689,491
39690,499
39691,497
39692,487
39693,483
39694,489
39695,478
39696,480
39697,492
39698,497
39699,507
39700,518
39701,516
39702,500
39703,484
39704,474
39705,469
39706,471
39707,485
39708,501
39709,525
39710,531
39711,514
39712,512
39713,513
39714,511
39715,506
39716,502
39717,500
39718,503
39719,504
39720,498
39721,502
39723,496
39724,491
39725,485
39726,477
39727,477
39728,477
39729,482
39729,501
39730,510
39731,507
39732,496
39733,494
39734,487
39735,486
39736,503
39737,517
39738,520
39739,521
39740,511
39741,504
39742,494
39743,484
39744,476
39745,474
39746,492
39747,496
39748,491
39749,493
39750,498
39751,495
39752,499
39753,511
39754,507
39755,502
39756,516
39757,528
39758,526
39759,529
39760,530
39761,509
39762,482
39763,464
39764,456
39766,469
39767,499
39768,515
39769,515
39770,511
39771,506
39771,514
39772,523
39773,524
39774,513
39775,505
39776,514
39777,524
39778,520
39779,524
39780,527
39781,524
39782,511
39783,506
39784,497
39785,492
39786,507
39787,530
39788,543
39789,550
39790,539
39791,533
39792,533
39793,523
39794,508
39795,507
39796,510
39797,513
39798,512
39799,524
39800,530
39801,542
39802,552
39803,563
39804,560
39805,549
39806,547
39808,541
39809,534
39810,529
39811,517
39812,510
39813,520
39814,518
39814,509
39815,504
39816,510
39817,502
39818,491
39819,497
39820,485
39821,474
39822,474
39823,471
39824,469
39825,471
39826,476
39827,479
39828,487
39829,495
39830,498
39831,495
39832,481
39833,463
39834,458
39835,448
39836,452
39837,470
39838,483
39839,489
39840,485
39841,487
39842,491
39843,491
39844,486
39845,490
39846,489
39847,483
39848,479
39849,481
39851,482
39852,482
39853,482
39854,485
39855,484
39856,481
39857,486
39857,490
39858,496
39859,499
39860,486
39861,472
39862,468
39863,467
39864,467
39865,468
39866,477
39867,489
39868,497
39869,514
39870,523
39871,508
39872,489
39873,478
39874,464
39875,457
39876,466
39877,481
39878,495
39879,508
39880,504
39881,493
39882,489
39883,479
39884,471
39885,470
39886,484
39887,490
39888,495
39889,503
39890,506
39891,509
39892,501
39894,491
39895,477
39896,483
39897,501
39898,531
39899,563
39899,575
39900,581
39901,589
39902,602
39903,620
39904,629
39905,660
39906,699
39907,733
39908,755
39909,773
39910,784
39911,806
39912,827
39913,859
39914,890
39915,933
39916,982
39917,990
39918,989
39919,989
39920,989
39921,989
39922,989
39923,989
39924,989
39925,989
39926,989
39927,990
39928,949
39929,875
39930,803
39931,723
39932,620
39933,520
39934,441
39936,389
39937,357
39938,334
39939,330
39940,323
39941,308
39942,293
39942,286
39943,289
39944,296
39945,303
39946,318
39947,336
39948,344
39949,352
39950,365
39951,374
39952,371
39953,373
39954,384
39955,391
39956,394
39957,407
39958,422
39959,401
39960,391
39961,397
39962,422
39963,433
39964,435
39965,441
39966,434
39967,428
39968,431
39969,430
39970,423
39971,424
39972,421
39973,425
39974,430
39975,435
39976,435
39977,428
39979,436
39980,432
39981,428
39982,418
39983,409
39984,402
39985,401
39985,411
39986,437
39987,458
39988,465
39989,468
39990,465
39991,460
39992,452
39993,448
39994,442
39995,439
39996,443
39997,446
39998,445
39999,435
40000,436
40001,445
40002,464
40003,478
40004,482
40005,483
40006,475
40007,460
40008,465
40009,470
40010,465
40011,463
40012,463
40013,464
40014,463
40015,466
40016,459
40017,456
40018,459
40019,455
40020,455
40022,450
40023,465
40024,485
40025,492
40026,502
40027,509
40027,506
40028,502
40029,500
40030,503
40031,504
40032,503
40033,496
40034,494
40035,502
40036,505
40037,510
40038,512
40039,500
40040,486
40041,481
40042,477
40043,478
40044,477
40045,479
40046,500
40047,520
40048,528
40049,527
40050,534
40051,531
40052,519
40053,508
40054,495
40055,491
40056,484
40057,480
40058,494
40059,504
40060,503
40061,506
40062,510
40064,511
40065,517
40066,518
40067,526
40068,533
40069,523
40070,511
40070,514
40071,511
40072,518
40073,517
40074,510
40075,507
40076,498
40077,490
40078,498
40079,508
40080,521
40081,541
40082,551
40083,537
40084,522
40085,511
40086,511
40087,526
40088,526
40089,540
40090,559
40091,559
40092,567
40093,569
40094,563
40095,550
40096,538
40097,549
40098,552
40099,549
40100,549
40101,545
40102,547
40103,545
40104,544
40105,552
40107,552
40108,553
40109,561
40110,560
40111,563
40112,574
40113,572
40113,565
40114,554
40115,558
40116,554
40117,563
40118,573
40119,591
40120,596
40121,592
40122,587
40123,587
40124,582
40125,580
40126,568
40127,557
40128,557
40129,557
40130,562
40131,576
40132,579
40133,571
40134,559
40135,552
40136,548
40137,553
40138,550
40139,550
40140,548
40141,547
40142,547
40143,543
40144,550
40145,552
40146,558
40147,553
40148,556
40150,559
40151,559
40152,555
40153,543
40154,530
40155,534
40155,543
40156,547
40157,562
40158,571
40159,583
40160,582
40161,554
40162,535
40163,522
40164,525
40165,519
40166,516
40167,514
40168,513
40169,521
40170,524
40171,516
40172,502
40173,484
40174,479
40175,495
40176,502
40177,509
40178,501
40179,481
40180,465
40181,459
40182,456
40183,458
40184,461
40185,453
40186,440
40187,439
40188,450
40189,454
40190,453
40192,449
40193,452
40194,449
40195,439
40196,444
40197,451
40198,457
40198,437
40199,413
40200,413
40201,414
40202,416
40203,416
40204,421
40205,423
40206,417
40207,407
40208,404
40209,414
40210,428
40211,439
40212,443
40213,421
40214,404
40215,395
40216,388
40217,398
40218,403
40219,406
40220,397
40221,398
40222,407
40223,394
40224,389
40225,398
40226,408
40227,406
40228,403
40229,410
40230,409
40231,404
40232,401
40233,389
40235,378
40236,387
40237,395
40238,414
40239,422
40240,414
40241,405
40241,400
40242,400
40243,409
40244,419
40245,416
40246,406
40247,398
40248,399
40249,412
40250,413
40251,414
40252,414
40253,417
40254,410
40255,400
40256,403
40257,420
40258,423
40259,423
40260,408
40261,396
40262,404
40263,412
40264,415
40265,412
40266,419
40267,432
40268,433
40269,434
40270,431
40271,426
40272,420
40273,420
40274,425
40275,427
40276,425
40278,430
40279,434
40280,429
40281,426
40282,427
40283,423
40283,418
40284,421
40285,428
40286,438
40287,449
40288,443
40289,442
40290,437
40291,432
40292,425
40293,424
40294,431
40295,445
40296,467
40297,467
40298,465
40299,460
40300,453
40301,447
40302,436
40303,442
40304,464
40305,477
40306,481
40307,469
40308,452
40309,444
40310,439
40311,449
40312,465
40313,467
40314,473
40315,489
40316,495
40317,476
40318,470
40320,464
40321,464
40322,476
40323,480
40324,477
40325,485
40326,489
40326,485
40327,478
40328,478
40329,478
40330,477
40331,483
40332,470
40333,461
40334,463
40335,469
40336,479
40337,473
40338,474
40339,471
40340,466
40341,447
40342,438
40343,450
40344,470
40345,478
40346,478
40347,479
40348,472
40349,463
40350,452
40351,454
40352,459
40353,465
40354,464
40355,465
40356,475
40357,467
40358,460
40359,449
40360,443
40361,447
40363,454
40364,458
40365,459
40366,478
40367,492
40368,494
40369,484
40369,487
40370,491
40371,487
40372,473
40373,465
40374,465
40375,467
40376,481
40377,480
40378,475
40379,478
40380,470
40381,460
40382,468
40383,495
40384,494
40385,490
40386,497
40387,498
40388,494
40389,497
40390,493
40391,487
40392,480
40393,470
40394,473
40395,485
40396,498
40397,504
40398,508
40399,506
40400,510
40401,502
40402,492
40403,492
40404,492
40406,478
40407,467
40408,465
40409,468
40410,476
40411,473
40411,464
40412,464
40413,463
40414,457
40415,457
40416,475
40417,483
40418,492
40419,493
40420,482
40421,470
40422,464
40423,462
40424,467
40425,477
40426,477
40427,474
40428,471
40429,469
40430,481
40431,490
40432,489
40433,488
40434,488
40435,489
40436,492
40437,480
40438,470
40439,459
40440,460
40441,456
40442,463
40443,477
40444,495
40445,503
40446,503
40448,506
40449,521
40450,515
40451,491
40452,464
40453,454
40454,453
40454,459
40455,476
40456,499
40457,504
40458,509
40459,511
40460,505
40461,485
40462,470
40463,472
40464,477
40465,480
40466,491
40467,498
40468,498
40469,498
40470,491
40471,485
40472,476
40473,476
40474,483
40475,490
40476,492
40477,490
40478,490
40479,482
40480,476
40481,471
40482,473
40483,479
40484,493
40485,508
40486,507
40487,495
40488,493
40489,499
40491,502
40492,493
40493,477
40494,476
40495,476
40496,491
40497,495
40497,486
40498,470
40499,456
40500,446
40501,441
40502,450
40503,464
40504,477
40505,495
40506,502
40507,500
40508,495
40509,491
40510,489
40511,478
40512,468
40513,470
40514,466
40515,468
40516,467
40517,468
40518,465
40519,464
40520,478
40521,490
40522,500
40523,507
40524,497
40525,501
40526,501
40527,497
40528,503
40529,509
40530,506
40531,490
40532,489
40534,503
40535,500
40536,508
40537,501
40538,501
40539,495
40539,487
40540,477
40541,465
40542,465
40543,466
40544,473
40545,486
40546,494
40547,497
40548,500
40549,493
40550,486
40551,481
40552,481
40553,488
40554,497
40555,517
40556,515
40557,491
40558,472
40559,469
40560,469
40561,469
40562,461
40563,459
40564,455
40565,459
40566,472
40567,477
40568,488
40569,503
40570,505
40571,503
40572,504
40573,511
40574,507
40576,507
40577,495
40578,490
40579,488
40580,492
40581,493
40582,487
40582,484
40583,474
40584,466
40585,471
40586,476
40587,475
40588,469
40589,460
40590,462
40591,469
40592,478
40593,492
40594,506
40595,508
40596,481
40597,478
40598,490
40599,498
40600,489
40601,478
40602,472
40603,469
40604,476
40605,493
40606,497
40607,497
40608,501
40609,504
40610,499
40611,491
40612,493
40613,489
40614,482
40615,484
40616,480
40617,482
40619,471
40620,478
40621,485
40622,494
40623,505
40624,507
40625,507
40625,501
40626,501
40627,498
40628,501
40629,498
40630,477
40631,463
40632,466
40633,472
40634,475
40635,485
40636,496
40637,493
40638,484
40639,475
40640,480
40641,496
40642,511
40643,518
40644,530
40645,529
40646,517
40647,508
40648,497
40649,492
40650,483
40651,485
40652,499
40653,503
40654,508
40655,517
40656,518
40657,514
40658,510
40659,510
40660,509
40662,508
40663,506
40664,517
40665,518
40666,516
40667,518
40667,516
40668,520
40669,520
40670,510
40671,507
40672,512
40673,517
40674,524
40675,532
40676,536
40677,549
40678,560
40679,558
40680,543
40681,533
40682,524
40683,523
40684,526
40685,511
40686,486
40687,479
40688,474
40689,466
40690,458
40691,450
40692,447
40693,446
40694,455
40695,468
40696,484
40697,500
40698,514
40699,509
40700,494
40701,480
40702,474
40704,473
40705,471
40706,464
40707,459
40708,459
40709,470
40710,481
40710,486
40711,487
40712,489
40713,492
40714,499
40715,492
40716,487
40717,482
40718,475
40719,466
40720,456
40721,455
40722,460
40723,465
40724,468
40725,471
40726,474
40727,482
40728,489
40729,488
40730,483
40731,478
40732,475
40733,475
40734,479
40735,467
40736,469
40737,470
40738,467
40739,456
40740,447
40741,450
40742,457
40743,466
40744,481
40745,481
40747,471
40748,476
40749,487
40750,493
40751,476
40752,478
40753,484
40753,488
40754,498
40755,499
40756,495
40757,484
40758,477
40759,474
40760,477
40761,479
40762,484
40763,498
40764,507
40765,499
40766,503
40767,507
40768,498
40769,486
40770,489
40771,503
40772,522
40773,546
40774,580
40775,585
40776,595
40777,613
40778,629
40779,634
40780,651
40781,673
40782,698
40783,734
40784,767
40785,787
40786,797
40787,814
40788,837
40790,868
40791,899
40792,945
40793,985
40794,989
40795,989
40795,989
40796,989
40797,989
40798,989
40799,989
40800,989
40801,990
40802,957
40803,890
40804,816
40805,734
40806,650
40807,560
40808,483
40809,417
40810,368
40811,340
40812,325
40813,316
40814,317
40815,311
40816,306
40817,301
40818,302
40819,300
40820,294
40821,295
40822,314
40823,329
40824,341
40825,355
40826,370
40827,374
40828,374
40829,379
40830,388
40832,395
40833,400
40834,406
40835,418
40836,422
40837,417
40838,410
40838,406
40839,404
40840,403
40841,411
40842,415
40843,422
40844,420
40845,416
40846,414
40847,422
40848,429
40849,426
40850,426
40851,413
40852,409
40853,413
40854,425
40855,427
40856,437
40857,436
40858,423
40859,403
40860,401
40861,420
40862,438
40863,451
40864,463
40865,473
40866,469
40867,456
40868,448
40869,446
40870,447
40871,448
40872,449
40873,463
40875,467
40876,463
40877,460
40878,452
40879,455
40880,455
40881,457
40881,468
40882,482
40883,487
40884,484
40885,478
40886,476
40887,474
40888,465
40889,449
40890,439
40891,441
40892,444
40893,457
40894,463
40895,473
40896,485
40897,501
40898,500
40899,486
40900,474
40901,478
40902,492
40903,502
40904,498
40905,490
40906,494
40907,506
40908,501
40909,492
40910,487
40911,490
40912,494
40913,499
40914,488
40915,479
40916,482
40918,485
40919,483
40920,488
40921,501
40922,508
40923,513
40923,522
40924,514
40925,490
40926,493
40927,506
40928,518
40929,518
40930,514
40931,505
40932,501
40933,506
40934,502
40935,502
40936,501
40937,503
40938,506
40939,511
40940,513
40941,519
40942,526
40943,529
40944,526
40945,520
40946,522
40947,524
40948,529
40949,525
40950,517
40951,518
40952,509
40953,508
40954,498
40955,505
40956,510
40957,511
40958,514
40960,516
40961,523
40962,531
40963,537
40964,542
40965,535
40966,531
40966,534
40967,528
40968,520
40969,516
40970,523
40971,539
40972,545
40973,552
40974,550
40975,545
40976,541
40977,542
40978,537
40979,532
40980,533
40981,541
40982,551
40983,551
40984,547
40985,550
40986,553
40987,557
40988,554
40989,545
40990,543
40991,545
40992,556
40993,581
40994,592
40995,589
40996,573
40997,567
40998,566
40999,571
41000,572
41001,567
41003,563
41004,569
41005,572
41006,574
41007,580
41008,580
41009,574
41009,566
41010,570
41011,572
41012,572
41013,573
41014,565
41015,566
41016,556
41017,551
41018,546
41019,543
41020,554
41021,567
41022,569
41023,566
41024,560
41025,556
41026,552
41027,546
41028,537
41029,532
41030,541
41031,552
41032,556
41033,555
41034,535
41035,510
41036,504
41037,509
41038,517
41039,512
41040,517
41041,527
41042,533
41043,531
41044,519
41046,510
41047,511
41048,513
41049,503
41050,505
41051,515
41051,503
41052,486
41053,483
41054,482
41055,481
41056,473
41057,463
41058,447
41059,434
41060,434
41061,444
41062,458
41063,457
41064,451
41065,451
41066,448
41067,449
41068,424
41069,409
41070,427
41071,435
41072,441
41073,434
41074,424
41075,422
41076,413
41077,400
41078,388
41079,392
41080,401
41081,407
41082,413
41083,410
41084,418
41085,427
41086,423
41088,410
41089,404
41090,399
41091,393
41092,390
41093,403
41094,406
41094,403
41095,395
41096,394
41097,395
41098,394
41099,403
41100,409
41101,405
41102,401
41103,395
41104,392
41105,394
41106,388
41107,384
41108,380
41109,382
41110,390
41111,396
41112,403
41113,390
41114,383
41115,373
41116,373
41117,386
41118,394
41119,389
41120,392
41121,400
41122,423
41123,435
41124,433
41125,424
41126,415
41127,411
41128,411
41129,414
41131,417
41132,417
41133,425
41134,417
41135,412
41136,405
41137,395
41137,382
41138,377
41139,395
41140,417
41141,427
41142,434
41143,441
41144,435
41145,419
41146,408
41147,403
41148,400
41149,395
41150,411
41151,425
41152,430
41153,421
41154,433
41155,437
41156,436
41157,436
41158,433
41159,435
41160,442
41161,451
41162,452
41163,448
41164,440
41165,429
41166,419
41167,410
41168,411
41169,425
41170,433
41171,431
41172,445
41174,444
41175,445
41176,444
41177,452
41178,443
41179,441
41179,450
41180,461
41181,478
41182,488
41183,487
41184,476
41185,461
41186,449
41187,430
41188,424
41189,430
41190,440
41191,454
41192,472
41193,462
41194,451
41195,452
41196,463
41197,459
41198,444
41199,445
41200,452
41201,458
41202,465
41203,474
41204,473
41205,469
41206,454
41207,435
41208,428
41209,431
41210,443
41211,461
41212,482
41213,488
41214,498
41216,490
41217,475
41218,464
41219,456
41220,465
41221,467
41222,462
41222,462
41223,466
41224,474
41225,479
41226,478
41227,469
41228,463
41229,467
41230,480
41231,485
41232,491
41233,483
41234,474
41235,461
41236,455
41237,455
41238,459
41239,469
41240,474
41241,485
41242,489
41243,493
41244,496
41245,493
41246,491
41247,482
41248,476
41249,475
41250,478
41251,481
41252,481
41253,472
41254,463
41255,461
41256,458
41257,455
41259,457
41260,478
41261,489
41262,488
41263,477
41264,480
41265,477
41265,466
41266,455
41267,446
41268,456
41269,483
41270,497
41271,501
41272,495
41273,492
41274,489
41275,486
41276,478
41277,469
41278,462
41279,465
41280,474
41281,493
41282,499
41283,490
41284,473
41285,463
41286,463
41287,458
41288,457
41289,471
41290,479
41291,487
41292,483
41293,476
41294,464
41295,455
41296,458
41297,461
41298,470
41299,477
41300,481
41302,477
41303,469
41304,456
41305,447
41306,450
41307,454
41307,449
41308,450
41309,454
41310,456
41311,460
41312,467
41313,474
41314,479
41315,479
41316,475
41317,465
41318,470
41319,487
41320,500
41321,514
41322,517
41323,513
41324,502
41325,497
41326,491
41327,478
41328,475
41329,476
41330,483
41331,499
41332,481
41333,464
41334,464
41335,474
41336,477
41337,473
41338,482
41339,493
41340,501
41341,509
41342,516
41344,506
41345,490
41346,485
41347,487
41348,480
41349,483
41350,483
41350,490
41351,501
41352,496
41353,495
41354,495
41355,495
41356,493
41357,490
41358,483
41359,481
41360,485
41361,488
41362,478
41363,473
41364,479
41365,487
41366,491
41367,478
41368,475
41369,481
41370,502
41371,523
41372,518
41373,495
41374,463
41375,446
41376,444
41377,458
41378,470
41379,486
41380,495
41381,499
41382,491
41383,491
41384,498
41385,502
41387,489
41388,481
41389,489
41390,498
41391,500
41392,500
41393,483
41393,466
41394,459
41395,456
41396,453
41397,461
41398,476
41399,489
41400,497
41401,510
41402,516
41403,517
41404,502
41405,485
41406,465
41407,450
41408,445
41409,454
41410,470
41411,492
41412,497
41413,490
41414,489
41415,480
41416,459
41417,450
41418,467
41419,487
41420,492
41421,497
41422,490
41423,481
41424,479
41425,488
41426,490
41427,487
41428,499
41430,507
41431,517
41432,516
41433,511
41434,510
41435,509
41435,499
41436,482
41437,480
41438,497
41439,511
41440,524
41441,530
41442,526
41443,516
41444,505
41445,501
41446,488
41447,483
41448,491
41449,496
41450,496
41451,490
41452,480
41453,472
41454,477
41455,488
41456,493
41457,494
41458,491
41459,484
41460,488
41461,499
41462,499
41463,497
41464,494
41465,497
41466,489
41467,479
41468,474
41469,474
41470,475
41472,478
41473,483
41474,492
41475,496
41476,501
41477,506
41478,502
41478,504
41479,502
41480,499
41481,481
41482,470
41483,471
41484,475
41485,482
41486,473
41487,468
41488,470
41489,473
41490,493
41491,502
41492,502
41493,485
41494,470
41495,461
41496,460
41497,472
41498,481
41499,499
41500,515
41501,513
41502,500
41503,489
41504,489
41505,488
41506,484
41507,488
41508,491
41509,489
41510,502
41511,500
41512,495
41513,483
41515,479
41516,478
41517,483
41518,493
41519,497
41520,500
41521,502
41521,500
41522,497
41523,489
41524,482
41525,475
41526,475
41527,491
41528,509
41529,511
41530,531
41531,530
41532,521
41533,507
41534,502
41535,495
41536,490
41537,492
41538,501
41539,503
41540,506
41541,509
41542,509
41543,507
41544,493
41545,485
41546,476
41547,473
41548,475
41549,488
41550,501
41551,507
41552,514
41553,512
41554,508
41555,510
41556,508
41558,503
41559,513
41560,525
41561,541
41562,541
41563,536
41563,521
41564,511
41565,508
41566,503
41567,506
41568,509
41569,511
41570,525
41571,526
41572,529
41573,535
41574,540
41575,535
41576,527
41577,522
41578,516
41579,520
41580,526
41581,525
41582,525
41583,520
41584,517
41585,520
41586,519
41587,518
41588,509
41589,506
41590,520
41591,525
41592,533
41593,534
41594,526
41595,521
41596,526
41597,529
41598,531
41600,536
41601,533
41602,521
41603,512
41604,495
41605,492
41606,490
41606,495
41607,501
41608,494
41609,475
41610,469
41611,473
41612,481
41613,485
41614,478
41615,448
41616,426
41617,430
41618,439
41619,452
41620,466
41621,469
41622,470
41623,470
41624,471
41625,461
41626,465
41627,478
41628,486
41629,487
41630,479
41631,468
41632,463
41633,469
41634,475
41635,473
41636,468
41637,472
41638,482
41639,488
41640,489
41641,490
41643,488
41644,482
41645,479
41646,469
41647,467
41648,469
41649,471
41649,480
41650,480
41651,475
41652,472
41653,471
41654,472
41655,473
41656,480
41657,479
41658,482
41659,486
41660,493
41661,492
41662,487
41663,488
41664,489
41665,479
41666,469
41667,473
41668,484
41669,500
41670,502
41671,502
41672,499
41673,505
41674,502
41675,488
41676,479
41677,483
41678,502
41679,523
41680,527
41681,530
41682,531
41683,542
41684,561
41686,573
41687,594
41688,619
41689,642
41690,664
41691,678
41691,689
41692,697
41693,716
41694,733
41695,756
41696,793
41697,828
41698,864
41699,906
41700,950
41701,978
41702,990
41703,990
41704,989
41705,989
41706,989
41707,989
41708,989
41709,989
41710,989
41711,989
41712,990
41713,946
41714,862
41715,780
41716,686
41717,595
41718,530
41719,477
41720,417
41721,370
41722,336
41723,310
41724,292
41725,288
41726,292
41728,292
41729,292
41730,303
41731,299
41732,305
41733,319
41734,333
41734,343
41735,348
41736,356
41737,362
41738,381
41739,398
41740,407
41741,410
41742,412
41743,409
41744,407
41745,400
41746,387
41747,380
41748,381
41749,401
41750,425
41751,435
41752,433
41753,425
41754,422
41755,420
41756,421
41757,420
41758,423
41759,423
41760,417
41761,420
41762,421
41763,424
41764,429
41765,429
41766,432
41767,437
41768,449
41769,464
41771,458
41772,456
41773,446
41774,440
41775,431
41776,427
41777,422
41777,420
41778,422
41779,438
41780,459
41781,475
41782,478
41783,474
41784,462
41785,447
41786,432
41787,428
41788,436
41789,451
41790,456
41791,462
41792,459
41793,454
41794,449
41795,442
41796,444
41797,450
41798,473
41799,485
41800,484
41801,486
41802,485
41803,480
41804,466
41805,462
41806,471
41807,481
41808,491
41809,499
41810,484
41811,472
41812,458
41814,454
41815,462
41816,482
41817,488
41818,484
41819,491
41819,498
41820,498
41821,508
41822,513
41823,502
41824,481
41825,470
41826,482
41827,488
41828,495
41829,489
41830,488
41831,500
41832,519
41833,522
41834,514
41835,508
41836,508
41837,506
41838,505
41839,505
41840,521
41841,523
41842,509
41843,504
41844,495
41845,486
41846,488
41847,488
41848,503
41849,509
41850,514
41851,520
41852,525
41853,527
41854,521
41856,520
41857,524
41858,521
41859,521
41860,522
41861,519
41862,512
41862,504
41863,506
41864,508
41865,517
41866,519
41867,515
41868,525
41869,531
41870,536
41871,528
41872,524
41873,516
41874,513
41875,514
41876,518
41877,525
41878,537
41879,538
41880,537
41881,538
41882,539
41883,537
41884,530
41885,524
41886,515
41887,525
41888,556
41889,568
41890,569
41891,563
41892,556
41893,553
41894,548
41895,551
41896,558
41897,559
41899,558
41900,555
41901,548
41902,549
41903,552
41904,549
41905,546
41905,553
41906,558
41907,561
41908,570
41909,568
41910,566
41911,562
41912,566
41913,561
41914,554
41915,556
41916,562
41917,571
41918,577
41919,578
41920,574
41921,569
41922,568
41923,566
41924,562
41925,565
41926,578
41927,583
41928,579
41929,564
41930,570
41931,570
41932,556
41933,537
41934,536
41935,547
41936,546
41937,542
41938,543
41939,543
41940,542
41942,540
41943,536
41944,533
41945,528
41946,526
41947,529
41947,538
41948,545
41949,533
41950,523
41951,511
41952,503
41953,493
41954,486
41955,495
41956,500
41957,514
41958,521
41959,516
41960,504
41961,488
41962,472
41963,456
41964,450
41965,459
41966,476
41967,488
41968,493
41969,481
41970,471
41971,462
41972,456
41973,452
41974,441
41975,435
41976,438
41977,444
41978,440
41979,439
41980,441
41981,440
41982,438
41984,438
41985,438
41986,444
41987,443
41988,427
41989,421
41990,423
41990,423
41991,420
41992,413
41993,396
41994,389
41995,388
41996,397
41997,414
41998,419
41999,420
42000,419
42001,419
42002,412
42003,395
42004,384
42005,390
42006,398
42007,402
42008,404
42009,402
42010,394
42011,383
42012,375
42013,373
42014,377
42015,392
42016,400
42017,401
42018,401
42019,409
42020,409
42021,402
42022,398
42023,388
42024,380
42025,380
42027,386
42028,399
42029,403
42030,403
42031,398
42032,396
42033,403
42033,405
42034,404
42035,405
42036,399
42037,392
42038,391
42039,391
42040,393
42041,394
42042,408
42043,420
42044,419
42045,420
42046,431
42047,445
42048,440
42049,418
42050,396
42051,389
42052,403
42053,418
42054,439
42055,459
42056,471
42057,470
42058,459
42059,443
42060,429
42061,416
42062,407
42063,402
42064,403
42065,413
42066,434
42067,454
42068,443
42070,429
42071,426
42072,422
42073,433
42074,435
42075,438
42075,446
42076,456
42077,459
42078,460
42079,455
42080,450
42081,450
42082,452
42083,448
42084,447
42085,444
42086,434
42087,443
42088,437
42089,432
42090,428
42091,417
42092,407
42093,410
42094,433
42095,464
42096,476
42097,475
42098,479
42099,480
42100,474
42101,475
42102,477
42103,467
42104,455
42105,445
42106,442
42107,453
42108,452
42109,449
42110,450
42112,453
42113,459
42114,463
42115,472
42116,472
42117,462
42118,465
42118,473
42119,478
42120,478
42121,476
42122,470
42123,467
42124,463
42125,466
42126,478
42127,488
42128,482
42129,475
42130,471
42131,475
42132,486
42133,486
42134,484
42135,486
42136,494
42137,495
42138,484
42139,478
42140,468
42141,466
42142,463
42143,461
42144,481
42145,504
42146,501
42147,498
42148,491
42149,486
42150,480
42151,463
42152,450
42153,454
42155,466
42156,481
42157,484
42158,476
42159,469
42160,467
42161,469
42161,467
42162,461
42163,457
