733133,454
733134,448
733135,434
733136,429
733137,427
733138,427
733139,429
733140,432
733142,442
733143,449
733144,450
733145,446
733146,444
733147,445
733147,453
733148,463
733149,475
733150,498
733151,489
733152,453
733153,442
733154,443
733155,465
733156,450
733157,437
733158,437
733159,430
733160,439
733161,447
733162,461
733163,448
733165,432
733166,439
733167,436
733168,440
733169,448
733170,456
733171,458
733172,455
733173,459
733174,466
733175,463
733176,455
733177,460
733178,449
733179,451
733180,452
733181,455
733182,459
733184,461
733185,465
733186,469
733187,470
733188,465
733189,474
733190,462
733190,443
733191,454
733192,467
733193,493
733194,520
733195,493
733196,474
733197,461
733199,470
733200,471
733201,481
733202,497
733203,500
733204,496
733205,510
733206,534
733207,555
733208,574
733209,591
733210,609
733211,627
733212,646
733213,666
733214,687
733215,707
733216,726
733217,747
733218,769
733219,790
733220,805
733221,832
733222,835
733223,847
733224,890
733225,935
733227,960
733228,985
733229,990
733230,990
733231,989
733232,990
733232,990
733234,952
733235,918
733236,854
733237,760
733238,668
733239,575
733240,498
733241,431
733242,384
733243,371
733244,350
733245,319
733246,295
733247,279
733248,280
733249,284
733250,287
733251,281
733252,286
733253,298
733254,306
733255,315
733256,331
733257,344
733258,345
733259,351
733260,365
733261,380
733262,383
733263,384
733264,384
733265,373
733266,391
733267,398
733270,379
733271,384
733272,392
733273,395
733274,398
733275,402
733275,403
733276,385
733277,384
733278,383
733279,383
733280,395
733281,411
733282,422
733283,410
733284,387
733285,383
733286,398
733287,409
733288,418
733289,419
733290,420
733291,412
733292,410
733293,406
733294,415
733295,421
733296,428
733297,436
733298,437
733299,442
733300,452
733302,441
733303,434
733304,418
733305,398
733306,393
733307,416
733308,453
733309,446
733310,450
733312,464
733313,471
733314,475
733315,470
733316,447
733317,434
733317,425
733318,430
733319,447
733320,458
733321,455
733322,456
733323,459
733324,466
733325,470
733326,461
733327,454
733328,445
733329,446
733330,454
733331,461
733332,469
733333,475
733334,475
733336,482
733337,478
733338,466
733339,467
733340,480
733341,494
733342,491
733343,480
733344,478
733345,458
733346,442
733347,451
733348,458
733349,460
733350,460
733351,459
733352,458
733353,473
733355,476
733356,478
733357,487
733358,481
733359,478
733360,482
733360,486
733361,484
733362,486
733363,494
733364,508
733365,492
733366,468
733367,467
733368,473
733370,496
733371,498
733372,509
733373,510
733374,496
733375,479
733376,486
733377,485
733378,488
733379,495
733380,475
733381,489
733382,496
733383,511
733384,527
733385,518
733386,500
733387,500
733388,497
733389,483
733390,485
733391,491
733392,503
733393,501
733394,486
733395,483
733396,497
733398,516
733399,527
733400,518
733401,496
733402,496
733403,498
733404,508
733405,516
733406,520
733407,519
733408,514
733409,509
733410,515
733411,524
733412,529
733413,539
733414,547
733415,544
733416,519
733417,503
733418,500
733419,512
733420,511
733421,521
733422,532
733423,533
733424,539
733425,538
733426,536
733427,526
733428,520
733429,524
733430,524
733431,523
733432,520
733433,526
733434,533
733435,537
733436,535
733437,533
733440,538
733441,531
733442,534
733443,533
733444,534
733445,532
733446,535
733446,540
733447,542
733448,542
733449,532
733450,524
733451,519
733452,517
733453,523
733454,533
733455,520
733456,510
733457,516
733458,524
733459,520
733460,529
733461,555
733462,539
733463,510
733464,479
733465,473
733466,469
733467,487
733468,498
733469,518
733470,504
733471,497
733473,509
733474,508
733475,493
733476,491
733477,479
733478,470
733479,466
733480,471
733481,477
733483,491
733484,494
733485,483
733486,462
733487,468
733488,480
733488,474
733489,475
733490,471
733491,459
733492,463
733493,466
733494,458
733495,447
733496,447
733497,461
733498,469
733499,452
733500,440
733501,439
733502,424
733503,417
733504,412
733505,401
733507,407
733508,395
733509,402
733510,409
733511,389
733512,400
733513,409
733514,407
733515,413
733516,420
733517,416
733518,423
733519,421
733520,418
733521,408
733522,385
733523,380
733524,376
733526,381
733527,389
733528,393
733529,395
733530,394
733531,370
733531,378
733532,388
733533,396
733534,398
733535,397
733536,384
733537,392
733538,388
733540,384
733541,382
733542,389
733543,401
733544,407
733545,403
733546,417
733547,413
733548,384
733549,388
733550,391
733551,392
733552,415
733553,423
733554,416
733555,414
733556,407
733557,396
733558,399
733559,396
733560,399
733561,397
733562,390
733563,395
733564,405
733565,409
733566,404
733568,403
733569,409
733570,406
733571,393
733572,394
733573,399
733574,409
733575,408
733576,415
733577,415
733578,413
733579,420
733580,423
733581,427
733582,423
733583,423
733584,422
733585,421
733586,427
733587,434
733588,431
733589,425
733590,426
733591,438
733592,452
733593,456
733594,430
733595,402
733596,412
733597,432
733598,441
733599,440
733600,435
733601,434
733602,427
733603,432
733604,439
733605,434
733606,434
733607,437
733608,435
733611,430
733612,439
733613,446
733614,452
733615,452
733616,447
733616,438
733617,435
733618,461
733619,449
733620,432
733621,425
733622,428
733623,444
733624,446
733625,446
733626,461
733627,464
733628,456
733629,443
733630,449
733631,470
733632,479
733633,458
733634,444
733635,429
733636,417
733637,436
733638,444
733639,447
733640,450
733641,448
733642,455
733644,458
733645,455
733646,450
733647,444
733648,439
733649,454
733650,460
733651,465
733652,469
733654,473
733655,473
733656,471
733657,465
733658,457
733659,457
733659,439
733660,435
733661,443
733662,462
733663,464
733664,451
733665,439
733666,436
733667,443
733668,458
733669,467
733670,465
733671,466
733672,454
733673,455
733674,458
733675,460
733677,482
733678,494
733679,486
733680,471
733681,464
733682,462
733683,474
733684,492
733685,483
733686,463
733687,444
733688,429
733689,447
733690,450
733691,449
733692,444
733693,447
733694,450
733696,451
733697,456
733698,457
733699,469
733700,475
733701,489
733701,479
733702,451
733703,437
733704,447
733705,463
733706,468
733707,467
733708,451
733709,447
733711,469
733712,485
733713,492
733714,484
733715,455
733716,437
733717,441
733718,446
733719,449
733720,459
733721,459
733722,459
733723,453
733724,451
733725,463
733726,465
733727,480
733728,492
733729,493
733730,471
733731,463
733732,474
733733,486
733734,481
733735,475
733736,465
733737,475
733739,481
733740,471
733741,470
733742,481
733743,478
733744,464
733744,461
733746,472
733747,480
733748,483
733749,484
733750,475
733751,462
733752,465
733753,479
733754,475
733755,468
733756,463
733757,469
733758,492
733759,491
733760,466
733761,453
733762,463
733763,484
733764,494
733765,478
733766,476
733767,486
733768,470
733769,461
733770,451
733771,459
733772,464
733773,458
733774,457
733775,462
733776,462
733777,460
733778,458
733779,465
733782,485
733783,480
733784,477
733785,470
733786,471
733787,475
733787,480
733788,481
733789,482
733790,480
733791,480
733792,477
733793,486
733794,485
733795,492
733796,499
733797,502
733798,488
733799,464
733800,448
733801,447
733802,468
733803,486
733804,495
733805,504
733806,502
733807,474
733808,445
733809,458
733810,472
733811,488
733812,481
733814,476
733815,463
733816,476
733817,483
733818,481
733819,479
733820,491
733821,492
733822,477
733824,478
733825,470
733826,467
733827,470
733828,472
733829,479
733830,494
733830,491
733831,486
733832,489
733833,485
733834,474
733835,468
733836,475
733837,484
733838,476
733839,468
733840,476
733841,464
733842,461
733843,468
733844,467
733845,475
733846,490
733848,501
733849,501
733850,500
733851,486
733852,470
733853,474
733854,474
733855,474
733856,477
733857,480
733858,484
733859,484
733860,479
733861,482
733862,478
733863,475
733864,478
733865,483
733867,489
733868,480
733869,481
733870,493
733871,510
733872,509
733872,480
733873,463
733874,476
733875,509
733876,527
733877,524
733878,520
733879,506
733880,470
733882,454
733883,433
733884,457
733885,476
733886,474
733887,477
733888,473
733889,464
733890,465
733891,477
733892,493
733893,497
733894,483
733895,478
733896,487
733897,484
733898,477
733899,473
733900,480
733901,492
733902,497
733903,498
733904,501
733905,501
733906,502
733907,495
733908,490
733910,494
733911,495
733912,496
733913,504
733914,510
733915,511
733916,512
733917,506
733918,506
733919,508
733920,510
733921,512
733922,525
733923,517
733924,505
733925,488
733926,493
733927,515
733928,519
733929,501
733930,497
733931,507
733932,520
733933,526
733934,524
733935,520
733936,522
733937,523
733938,525
733939,522
733940,521
733941,533
733942,538
733943,534
733944,536
733945,536
733946,541
733947,526
733948,501
733949,480
733952,488
733953,497
733954,493
733955,479
733956,479
733957,481
733957,480
733958,469
733959,459
733960,460
733961,480
733962,495
733963,498
733964,504
733965,482
733966,464
733967,459
733968,456
733969,467
733970,466
733971,444
733972,418
733973,419
733974,430
733975,445
733976,448
733977,454
733978,460
733979,463
733980,465
733981,472
733982,472
733983,472
733985,464
733986,467
733987,466
733988,466
733989,468
733990,462
733991,455
733992,465
733993,472
733995,472
733996,472
733997,468
733998,488
733999,489
734000,490
734000,494
734001,491
734002,477
734003,479
734004,478
734005,474
734006,475
734007,451
734008,449
734009,456
734010,469
734011,473
734012,461
734013,479
734014,479
734015,475
734016,469
734017,474
734019,489
734020,487
734021,484
734022,477
734023,476
734024,485
734025,484
734026,478
734027,490
734028,524
734029,534
734030,537
734031,533
734032,552
734033,579
734034,577
734035,580
734036,601
734038,613
734039,630
734040,656
734041,671
734042,692
734043,707
734043,718
734044,733
734045,751
734046,780
734047,810
734048,835
734049,865
734050,897
734052,955
734053,978
734054,990
734055,990
734056,989
734057,989
734058,989
734059,989
734060,990
734061,990
734062,956
734063,889
734064,816
734065,740
734066,658
734067,573
734068,500
734069,428
734070,386
734071,372
734072,355
734073,302
734074,242
734075,243
734076,269
734077,269
734078,263
734080,278
734081,291
734082,300
734083,316
734084,323
734085,337
734085,348
734087,352
734088,370
734089,368
734090,380
734091,391
734092,427
734093,435
734094,402
734095,374
734096,375
734097,393
734098,412
734099,417
734100,416
734101,418
734102,411
734103,410
734104,418
734105,422
734106,420
734107,425
734108,429
734109,432
734110,440
734111,440
734112,429
734113,425
734114,426
734115,410
734116,412
734117,434
734118,433
734119,419
734120,412
734123,428
734124,423
734125,423
734126,419
734127,419
734128,429
734128,452
734129,449
734130,452
734131,450
734132,442
734133,443
734134,456
734135,449
734136,438
734137,458
734138,456
734139,448
734140,451
734141,458
734142,453
734143,448
734144,456
734145,447
734146,443
734147,443
734148,454
734149,473
734150,479
734151,471
734152,466
734153,466
734154,449
734156,461
734157,474
734158,473
734159,468
734160,469
734161,464
734162,452
734163,458
734164,450
734166,455
734167,465
734168,472
734169,480
734170,477
734171,478
734171,485
734172,489
734173,506
734174,511
734175,508
734176,501
734177,489
734178,486
734179,476
734180,457
734181,456
734182,464
734183,474
734184,475
734185,477
734186,482
734187,486
734189,495
734190,494
734191,505
734192,504
734193,510
734194,509
734195,493
734196,477
734197,492
734198,512
734199,509
734200,496
734201,484
734202,486
734203,496
734204,496
734205,503
734206,511
734208,515
734209,503
734210,484
734211,479
734212,477
734213,480
734214,488
734214,478
734215,485
734216,506
734217,512
734218,500
734219,514
734220,528
734221,515
734223,511
734224,512
734225,502
734226,501
734227,497
734228,516
734229,530
734230,538
734231,532
734232,522
734233,496
734234,497
734235,504
734236,520
734237,535
734238,532
734239,527
734240,519
734241,518
734242,522
734243,535
734244,540
734245,533
734246,532
734247,531
734248,537
734249,545
734251,515
734252,504
734253,517
734254,522
734255,529
734256,528
734256,526
734258,522
734259,534
734260,534
734261,522
734262,526
734263,532
734264,544
734265,546
734266,550
734267,543
734268,538
734269,539
734270,543
734271,545
734272,530
734273,523
734274,527
734275,521
734276,524
734277,529
734278,535
734279,543
734280,544
734281,539
734282,529
734283,538
734284,532
734285,510
734286,502
734287,510
734288,507
734289,489
734290,488
734291,495
734294,486
734295,500
734296,504
734297,507
734298,508
734299,498
734299,497
734300,503
734301,504
734302,502
734303,494
734304,489
734305,501
734306,497
734307,486
734308,491
734309,488
734310,485
734311,484
734312,479
734313,475
734314,458
734315,456
734316,468
734317,484
734318,484
734319,486
734320,465
734321,443
734322,435
734323,419
734324,425
734326,435
734327,432
734328,446
734329,444
734330,404
734331,382
734332,397
734333,422
734334,439
734336,430
734337,408
734338,395
734339,407
734340,428
734341,421
734341,424
734342,425
734343,418
734344,411
734345,409
734346,408
734347,415
734348,423
734349,416
734350,406
734351,388
734352,380
734353,387
734354,383
734355,388
734356,388
734357,391
734358,370
734360,378
734361,387
734362,398
734363,384
734364,379
734365,386
734366,383
734367,376
734368,382
734369,379
734370,385
734371,389
734372,385
734373,385
734374,387
734375,384
734376,380
734377,377
734379,385
734380,393
734381,400
734382,401
734383,401
734384,405
734384,400
734385,394
734386,400
734387,415
734388,421
734389,411
734390,399
734391,403
734392,409
734394,405
734395,404
734396,399
734397,394
734398,403
734399,411
734400,417
734401,426
734402,421
734403,405
734404,399
734405,406
734406,403
734407,402
734408,405
734409,409
734410,405
734411,406
734412,417
734413,407
734414,419
734415,438
734416,450
734417,461
734418,465
734419,450
734420,412
734422,376
734423,387
734424,418
734425,421
734426,419
734427,418
734428,423
734429,427
734430,439
734431,437
734432,426
734433,414
734434,422
734435,422
734436,414
734437,404
734438,409
734439,434
734440,444
734441,452
734442,460
734443,450
734444,448
734445,445
734446,444
734447,439
734448,431
734449,429
734450,432
734451,449
734452,454
734453,450
734454,449
734455,460
734456,465
734457,462
734458,457
734459,454
734460,449
734461,439
734464,441
734465,450
734466,457
734467,465
734468,468
734469,458
734470,454
734470,467
734471,459
734472,437
734473,447
734474,453
734475,447
734476,428
734477,428
734478,427
734479,440
734480,461
734481,455
734482,447
734483,453
734484,460
734485,463
734486,462
734487,486
734488,505
734489,497
734490,495
734491,480
734492,461
734493,441
734494,423
734495,425
734497,444
734498,435
734499,430
734500,435
734501,440
734502,434
734503,418
734504,435
734505,441
734507,444
734508,469
734509,471
734510,457
734511,463
734512,458
734512,426
734513,431
734514,450
734515,458
734516,449
734517,443
734518,426
734519,420
734520,421
734521,422
734522,450
734523,455
734524,446
734525,400
734526,386
734527,430
734528,480
734529,509
734531,493
734532,422
734533,419
734534,444
734535,471
734536,475
734537,475
734538,474
734539,470
734540,451
734541,462
734542,462
734543,451
734544,439
734545,432
734546,449
734547,474
734548,478
734550,462
734551,465
734552,469
734553,460
734554,439
734555,442
734555,460
734556,467
734557,486
734558,487
734559,487
734560,486
734561,472
734562,468
734564,482
734565,488
734566,472
734567,474
734568,478
734569,475
734570,483
734571,494
734572,464
734573,450
734574,457
734575,452
734576,450
734577,445
734578,456
734579,466
734580,465
734581,464
734582,460
734583,463
734584,475
734585,480
734586,479
734587,482
734588,485
734589,499
734590,494
734592,483
734593,478
734594,483
734595,496
734596,486
734597,472
734597,461
734599,446
734600,447
734601,452
734602,453
734603,448
734604,441
734605,425
734606,430
734607,448
734608,439
734609,435
734610,443
734611,453
734612,460
734613,461
734614,484
734615,515
734616,513
734617,503
734618,471
734619,433
734620,437
734621,448
734622,448
734623,415
734624,429
734625,457
734626,460
734627,465
734628,468
734629,477
734630,478
734631,492
734632,501
734635,535
734636,557
734637,498
734638,454
734639,465
734640,480
734640,451
734641,433
734642,470
734643,493
734644,483
734645,465
734646,462
734647,468
734648,470
734649,464
734650,439
734651,411
734652,447
734653,480
734654,488
734655,479
734656,475
734657,480
734658,488
734659,493
734660,478
734661,449
734662,420
734663,419
734664,443
734665,451
734666,456
734668,457
734669,456
734670,485
734671,509
734672,476
734673,436
734674,444
734675,456
734676,465
734678,454
734679,467
734680,488
734681,493
734682,480
734683,467
734683,446
734684,432
734685,436
734686,434
734687,439
734688,439
734689,439
734690,447
734691,460
734692,469
734693,472
734694,493
734695,502
734696,512
734697,489
734698,477
734699,451
734701,434
734702,476
734703,514
734704,523
734705,511
734706,509
734707,478
734708,456
734709,478
734710,465
734711,446
734712,429
734713,431
734714,433
734715,453
734716,481
734717,495
734718,493
734720,486
734721,483
734722,481
734723,461
734724,453
734725,474
734726,497
734726,508
734727,506
734728,498
734729,493
734730,500
734731,491
734732,476
734733,482
734735,491
734736,502
734737,518
734738,496
734739,466
734740,481
734741,505
734742,509
734743,495
734744,491
734745,495
734746,512
734747,517
734748,510
734749,523
734750,536
734751,534
734752,519
734753,509
734754,520
734755,480
734756,449
734757,411
734758,423
734759,460
734760,478
734761,496
734763,515
734764,504
734765,492
734766,481
734767,469
734768,464
734768,456
734770,454
734771,453
734772,454
734773,466
734774,480
734775,477
734776,469
734777,460
734778,457
734779,457
734780,450
734781,438
734782,429
734783,439
734784,444
734785,449
734786,449
734787,449
734788,429
734789,430
734790,458
734791,468
734792,461
734793,454
734794,445
734795,442
734796,447
734797,442
734798,441
734799,451
734800,451
734801,460
734802,470
734803,474
734806,476
734807,469
734808,466
734809,467
734810,453
734811,446
734811,459
734812,468
734813,471
734814,477
734815,479
734816,480
734817,472
734818,458
734819,449
734820,455
734821,454
734822,446
734823,445
734824,450
734825,472
734826,469
734827,478
734828,484
734829,470
734830,464
734831,463
734832,474
734833,485
734834,493
734835,495
734836,485
734838,448
734839,463
734840,468
734841,474
734842,480
734843,482
734844,492
734845,520
734846,549
734848,570
734849,571
734850,593
734851,630
734852,654
734853,662
734854,664
734854,666
734855,684
734856,712
734857,740
734858,778
734859,782
734860,797
734861,801
734862,825
734863,854
734864,896
734865,922
734866,966
734867,990
734868,989
734869,989
734870,989
734872,989
734873,989
734874,989
734875,989
734876,990
734877,951
734878,864
734879,771
734880,671
734881,569
734882,489
734883,436
734884,391
734885,346
734886,327
734887,317
734888,304
734889,288
734891,281
734892,269
734893,266
734894,267
734895,286
734896,294
734896,294
734897,301
734898,315
734899,329
734900,346
734901,368
734902,371
734903,373
734904,390
734906,408
734907,396
734908,396
734909,389
734910,401
734911,416
734912,411
734913,405
734914,390
734915,387
734916,399
734917,421
734918,433
734919,443
734920,430
734921,421
734922,410
734923,405
734924,399
734925,398
734926,407
734927,420
734928,427
734929,429
734930,432
734931,418
734932,417
734934,437
734935,455
734936,440
734937,434
734938,442
734939,460
734940,478
734941,493
734942,482
734943,436
734944,420
734945,422
734946,429
734947,435
734948,435
734949,450
734950,464
734951,448
734952,439
734953,436
734954,436
734955,433
734956,439
734957,456
734958,477
734959,482
734960,477
734961,471
734962,464
734963,465
734964,464
734965,466
734966,479
734967,482
734968,490
734969,487
734970,481
734971,460
734972,444
734973,462
734976,499
734977,495
734978,484
734979,478
734980,482
734981,488
734982,496
734982,506
734983,494
734984,485
734985,482
734986,489
734987,481
734988,474
734989,479
734990,491
734991,499
734992,495
734993,490
734994,494
734995,484
734996,480
734997,502
734998,504
734999,494
735000,493
735001,502
735002,508
735003,507
735004,520
735005,522
735006,516
735007,506
735009,488
735010,504
735011,511
735012,497
735013,494
735014,490
735015,494
735016,514
735017,524
735019,512
735020,504
735021,526
735022,533
735023,531
735024,538
735024,532
735025,526
735026,516
735027,509
735028,505
735029,510
735030,516
735031,516
735032,515
735033,515
735034,517
735035,498
735036,486
735037,515
735038,542
735039,552
735040,551
735041,545
735043,526
735044,529
735045,540
735046,559
735047,565
735048,564
735049,543
735050,499
735051,483
735052,511
735053,520
735054,520
735055,532
735056,538
735057,545
735058,548
735059,530
735060,528
735062,538
735063,543
735064,548
735065,558
735066,562
735067,552
735067,538
735068,546
735069,552
735070,553
735071,555
735072,552
735073,553
735074,548
735076,541
735077,547
735078,552
735079,556
735080,545
735081,534
735082,530
735083,535
735084,549
735085,564
735086,567
735087,558
735088,551
735089,546
735090,525
735091,515
735092,535
735093,556
735094,564
735095,563
735096,559
735097,566
735098,556
735099,538
735100,521
735101,517
735102,515
735104,519
735105,523
735106,534
735107,552
735108,536
735109,525
735110,522
735111,513
735112,493
735113,482
735114,484
735115,506
735116,522
735117,516
735118,509
735119,504
735120,494
735121,481
735122,482
735123,485
735124,482
735125,478
735126,489
735127,490
735128,471
735129,472
735130,481
735131,491
735132,487
735133,486
735134,482
735135,483
735136,477
735137,469
735138,460
735139,455
735140,440
735141,426
735142,427
735143,434
735144,453
735147,460
735148,465
735149,467
735150,448
735151,420
735152,411
735152,407
735153,400
735154,399
735155,413
735156,439
735157,447
735158,444
735159,443
735160,422
735161,400
735162,394
735163,392
735164,377
735165,385
735166,397
735167,390
735168,396
735169,395
735170,389
735171,387
735172,395
735173,410
735174,408
735175,408
735176,392
735177,380
735178,386
735180,431
735181,399
735182,380
735183,390
735184,409
735185,423
735186,419
735187,416
735188,412
735190,405
735191,399
735192,390
735193,378
735194,377
735195,387
735195,397
735196,402
735197,414
735198,412
735199,397
735200,408
735201,410
735202,411
735203,405
735204,413
735205,417
735206,426
735207,423
735208,434
735209,437
735210,442
735211,448
735213,444
735214,435
735215,428
735216,430
735217,436
735218,440
735219,426
735220,402
735221,400
735222,398
735223,406
735224,417
735225,409
735226,431
735227,432
735228,417
735229,418
735230,419
735232,420
735233,420
735234,414
735235,428
735236,437
735237,436
735237,423
735238,427
735239,434
735240,421
735241,424
735242,432
735243,446
735244,455
735245,451
735246,447
735248,445
735249,448
735250,
811091
811079,408
811080,421
811081,428
811082,432
811083,438
811084,452
811085,458
811086,463
811087,458
811088,456
811089,447
811408
811080,421
811081,428
811082,432
811083,438
811084,452
811085,458
811086,463
811087,458
811088,456
811089,447
811090,454
811091,466
811092,466
811094,461
811095,449
811096,464
811097,474
811098,484
811099,494
811099,506
811100,472
811101,444
811102,451
811103,454
811104,450
811105,465
811106,480
811108,470
811109,461
811110,465
811111,471
811112,479
811113,481
811114,478
811115,461
811116,453
811117,468
811118,489
811119,503
811120,504
811121,481
811122,485
811123,500
811124,499
811125,485
811126,469
811127,450
811128,448
811129,456
811130,457
811131,458
811132,449
811133,450
811134,453
811136,468
811137,466
811138,455
811139,465
811140,457
811141,442
811141,434
811143,431
811144,447
811145,463
811146,462
811147,478
811148,492
811149,490
811150,475
811151,467
811152,471
811153,474
811154,481
811155,497
811156,500
811157,498
811158,495
811159,485
811160,478
811161,502
811162,504
811163,475
811164,443
811165,450
811166,455
811167,454
811168,459
811169,460
811170,459
811171,459
811172,447
811173,433
811174,433
811175,437
811176,444
811179,472
811180,463
811181,466
811182,465
811183,462
811184,468
811184,476
811185,467
811186,466
811187,472
811188,481
811189,492
811190,461
811191,448
811192,462
811193,447
811194,436
811195,453
811196,458
811197,472
811198,469
811199,464
811200,470
811201,475
811202,487
811203,483
811204,487
811205,497
811206,512
811207,515
811208,494
811209,488
811210,500
811212,475
811213,448
811214,439
811215,433
811216,442
811217,462
811218,447
811219,444
811220,451
811222,464
811223,465
811224,465
811225,463
811226,454
811227,454
811227,464
811228,459
811229,453
811230,457
811231,456
811232,451
811233,435
811234,432
811235,429
811236,425
811237,441
811238,449
811239,448
811240,453
811241,468
811242,476
811243,479
811245,475
811246,478
811247,486
811248,486
811249,487
811250,485
811251,482
811252,470
811253,454
811254,449
811255,454
811256,451
811257,462
811258,473
811259,471
811260,476
811261,482
811262,462
811264,460
811265,459
811266,468
811267,479
811268,481
811269,483
811269,486
811270,485
811271,482
811272,469
811273,453
811274,460
811275,466
811276,473
811277,491
811279,477
811280,476
811281,486
811282,486
811283,484
811284,503
811285,506
811286,501
811287,494
811288,487
811289,481
811290,484
811291,491
811292,473
811293,455
811294,430
811295,423
811296,424
811297,446
811298,453
811299,450
811300,439
811301,436
811302,432
811303,441
811304,441
811305,452
811307,460
811308,472
811309,477
811310,479
811311,483
811312,502
811312,509
811314,483
811315,479
811316,479
811317,482
811318,481
811319,485
811320,476
811321,479
811322,483
811323,478
811324,483
811325,484
811326,483
811327,487
811328,480
811329,474
811330,469
811331,470
811332,473
811333,467
811334,478
811335,485
811336,488
811337,509
811338,520
811339,521
811340,520
811341,521
811342,510
811343,506
811344,505
811345,511
811346,519
811347,536
811350,547
811351,513
811352,497
811353,489
811354,469
811355,449
811355,446
811356,455
811357,477
811358,488
811359,480
811360,479
811361,477
811362,453
811363,457
811364,457
811365,452
811366,464
811367,469
811368,463
811369,458
811370,467
811371,470
811372,468
811373,470
811374,473
811375,468
811376,462
811377,470
811378,464
811379,450
811380,455
811382,452
811383,449
811384,455
811385,459
811386,463
811387,461
811388,463
811389,463
811390,467
811392,460
811393,450
811394,450
811395,452
811396,450
811397,447
811398,452
811398,465
811399,465
811400,457
811401,452
811402,455
811403,452
811404,448
811405,452
811406,452
811407,451
811408,449
811409,452
811410,455
811411,450
811412,444
811413,448
811414,462
811416,510
811417,499
811418,475
811419,464
811420,464
811421,465
811422,457
811423,454
811424,462
811425,462
811426,448
811427,442
811428,442
811429,443
811430,449
811431,444
811432,429
811433,432
811435,449
811436,459
811437,469
811438,477
811439,484
811440,491
811440,504
811441,497
811442,498
811443,495
811444,490
811445,486
811446,495
811447,518
811448,527
811450,559
811451,559
811452,542
811453,539
811454,558
811455,587
811456,616
811457,637
811458,653
811459,672
811460,694
811461,717
811462,725
811463,739
811464,770
811465,795
811466,816
811467,854
811468,886
811469,914
811470,947
811471,982
811472,990
811473,990
811474,990
811475,989
811476,989
811478,989
811479,990
811480,990
811481,937
811482,848
811483,760
811484,584
811485,509
811486,455
811487,403
811488,366
811489,336
811490,316
811491,279
811492,255
811493,265
811494,269
811495,279
811496,287
811497,285
811498,299
811499,308
811500,313
811501,323
811502,335
811503,344
811504,352
811505,364
811506,377
811507,389
811508,394
811509,398
811510,397
811511,399
811512,397
811513,400
811514,403
811515,397
811516,408
811517,412
811520,403
811521,404
811522,407
811523,407
811524,398
811525,394
811526,401
811526,413
811527,423
811528,430
811529,417
811530,404
811531,397
811532,392
811533,389
811534,390
811535,393
811536,405
811537,418
811538,439
811539,459
811540,458
811541,463
811542,455
811543,443
811544,453
811545,446
811546,433
811547,427
811548,432
811549,421
811550,415
811551,423
811553,434
811554,430
811555,436
811556,446
811557,445
811558,447
811559,447
811560,447
811561,446
811563,444
811564,443
811565,460
811566,463
811567,464
811568,476
811568,486
811569,482
811570,469
811571,464
811572,469
811573,474
811574,468
811575,469
811576,471
811577,458
811578,459
811579,461
811580,477
811581,466
811582,451
811583,465
811584,461
811585,445
811587,460
811588,461
811589,467
811590,452
811591,445
811592,443
811593,461
811594,486
811595,506
811596,520
811597,520
811598,529
811599,508
811600,469
811601,456
811602,462
811603,477
811604,488
811606,491
811607,491
811608,494
811609,491
811610,489
811611,478
811611,473
811612,469
811613,466
811614,473
811615,481
811616,491
811617,487
811618,486
811620,489
811621,487
811622,496
811623,502
811624,510
811625,512
811626,511
811627,499
811628,491
811629,488
811630,506
811631,517
811632,501
811633,501
811634,510
811635,517
811636,534
811637,536
811638,538
811639,533
811640,540
811641,544
811642,527
811643,515
811644,519
811645,514
811646,513
811648,518
811649,513
811650,509
811651,511
811652,507
811653,495
811653,491
811655,504
811656,510
811657,511
811658,518
811659,529
811660,531
811661,531
811662,539
811663,545
811664,555
811665,556
811666,561
811667,560
811668,555
811669,560
811670,567
811671,547
811672,540
811673,554
811674,560
811675,563
811676,563
811677,553
811678,538
811679,531
811680,532
811681,531
811682,528
811683,539
811684,558
811685,566
811686,568
811687,574
811688,583
811691,523
811692,522
811693,529
811694,540
811695,551
811696,557
811696,564
811697,545
811698,526
811699,515
811700,513
811701,518
811702,519
811703,528
811704,532
811705,531
811706,533
811707,530
811708,530
811709,527
811710,522
811711,529
811712,522
811713,515
811714,509
811715,509
811716,519
811717,523
811718,533
811719,530
811720,518
811721,510
811722,513
811724,502
811725,507
811726,503
811727,501
811728,501
811729,487
811730,483
811731,476
811732,468
811734,474
811735,474
811736,467
811737,461
811738,456
811739,462
811739,466
811740,462
811741,449
811742,442
811743,447
811744,449
811745,446
811746,445
811747,447
811748,449
811749,440
811750,430
811751,424
811752,419
811753,427
811754,430
811755,428
811757,429
811758,425
811759,422
811760,426
811761,407
811762,410
811763,430
811764,439
811765,448
811766,466
811767,448
811768,423
811769,381
811770,357
811771,359
811772,369
811773,375
811774,378
811776,394
811777,400
811778,395
811779,394
811780,391
811781,385
811781,388
811782,396
811783,401
811784,403
811785,410
811786,418
811787,417
811788,402
811789,382
811791,375
811792,366
811793,370
811794,378
811795,386
811796,391
811797,397
811798,402
811799,405
811800,401
811801,397
811802,406
811803,413
811804,418
811805,428
811806,422
811807,416
811808,405
811809,397
811810,397
811811,392
811812,388
811813,392
811814,403
811815,418
811816,418
811817,419
811819,422
811820,427
811821,428
811822,422
811823,432
811824,444
811824,446
811825,450
811827,429
811828,433
811829,455
811830,452
811831,439
811832,431
811833,431
811834,432
811835,447
811836,449
811837,450
811838,432
811839,430
811840,432
811841,442
811842,451
811843,455
811844,453
811845,442
811846,427
811847,424
811848,421
811849,421
811850,413
811851,406
811852,426
811853,444
811854,452
811855,468
811856,475
811857,476
811858,458
811859,440
811860,426
811862,426
811864,427
811865,433
811866,448
811867,465
811867,470
811868,467
811869,468
811870,463
811871,456
811872,463
811873,472
811874,464
811875,463
811876,455
811877,458
811878,463
811879,470
811880,470
811881,461
811882,446
811883,452
811884,461
811885,461
811886,446
811887,435
811888,424
811889,435
811890,447
811891,455
811892,465
811893,451
811894,437
811895,441
811897,444
811898,447
811899,451
811900,447
811901,435
811902,439
811904,444
811905,457
811906,474
811907,485
811908,479
811909,469
811910,466
811910,457
811911,453
811912,452
811913,452
811914,452
811915,463
811916,467
811917,464
811918,470
811919,471
811920,464
811921,460
811922,455
811923,453
811924,450
811925,446
811926,441
811927,449
811928,464
811929,461
811931,463
811932,467
811933,473
811934,479
811935,493
811936,480
811937,456
811938,454
811939,465
811940,468
811941,461
811942,465
811943,464
811944,458
811945,459
811947,449
811948,445
811949,457
811950,465
811951,461
811952,468
811952,461
811953,461
811954,464
811955,487
811956,469
811957,471
811958,468
811959,460
811960,457
811961,456
811962,454
811963,456
811965,470
811966,459
811967,457
811968,467
811969,471
811970,469
811971,466
811972,472
811973,470
811974,488
811975,516
811976,501
811977,480
811978,466
811979,456
811980,448
811981,439
811982,447
811983,464
811984,476
811985,485
811986,490
811987,477
811988,477
811990,476
811991,466
811992,461
811993,463
811994,472
811995,487
811995,491
811996,480
811998,463
811999,461
812000,466
812001,469
812002,477
812003,483
812004,485
812005,480
812006,484
812007,490
812008,490
812009,494
812010,489
812011,472
812012,462
812013,454
812014,468
812015,484
812016,483
812017,481
812018,481
812019,478
812020,464
812021,451
812022,452
812023,466
812024,488
812025,489
812026,475
812027,471
812028,466
812029,456
812030,454
812032,455
812033,461
812035,467
812036,490
812037,488
812038,472
812038,485
812039,487
812040,486
812041,479
812042,472
812043,482
812044,497
812045,486
812046,496
812047,517
812048,521
812049,500
812050,475
812051,465
812052,463
812053,467
812054,468
812055,469
812056,469
812057,477
812058,483
812059,483
812060,478
812061,470
812062,456
812063,453
812064,463
812065,474
812066,479
812068,488
812069,487
812070,477
812071,466
812072,465
812073,478
812075,490
812076,506
812077,513
812078,497
812079,484
812080,470
812080,450
812081,449
812082,460
812083,474
812084,485
812085,496
812086,477
812087,477
812088,499
812089,513
812090,511
812091,498
812092,479
812093,475
812094,481
812095,480
812096,470
812097,478
812098,475
812099,473
812100,472
812102,475
812103,482
812104,490
812105,485
812106,486
812107,489
812108,502
812109,496
812110,488
812111,484
812112,487
812113,484
812114,490
812115,488
812116,487
812118,483
812119,484
812120,494
812121,472
812122,470
812123,475
812123,466
812124,465
812125,471
812126,484
812127,488
812128,489
812129,489
812130,476
812131,477
812132,486
812133,487
812135,497
812136,481
812137,474
812138,475
812139,476
812140,474
812141,466
812142,467
812143,474
812144,481
812145,483
812146,482
812147,475
812148,477
812149,474
812150,470
812151,466
812152,471
812153,482
812154,493
812155,491
812156,483
812157,474
812158,474
812160,482
812161,487
812162,492
812163,498
812164,498
812165,499
812165,501
812166,502
812167,505
812169,475
812170,470
812171,473
812172,471
812173,466
812174,467
812175,455
812176,454
812177,456
812178,456
812179,457
812180,463
812181,468
812182,480
812183,491
812184,499
812185,488
812186,486
812187,491
812188,495
812189,489
812190,472
812191,472
812192,483
812193,476
812194,480
812195,481
812196,481
812197,485
812198,489
812199,490
812200,483
812201,473
812203,479
812204,459
812206,462
812207,467
812208,478
812208,488
812209,498
812210,493
812211,490
812212,488
812213,483
812214,493
812215,495
812216,494
812217,490
812218,482
812219,472
812220,470
812221,478
812222,488
812223,491
812224,478
812225,475
812226,479
812227,479
812228,475
812229,473
812230,478
812231,490
812232,491
812233,487
812234,512
812235,501
812236,495
812237,500
812239,494
812240,492
812241,497
812242,504
812243,491
812244,483
812246,490
812247,492
812248,485
812249,478
812250,462
812251,453
812251,450
812252,453
812253,465
812254,479
812255,482
812256,479
812257,479
812258,481
812259,480
812260,486
812261,489
812262,487
812263,494
812264,502
812265,514
812266,523
812267,519
812268,500
812269,485
812270,471
812272,476
812273,489
812274,502
812275,499
812276,486
812277,472
812278,458
812279,462
812280,447
812281,449
812282,462
812283,456
812284,452
812285,464
812286,476
812288,474
812289,469
812290,474
812291,479
812292,482
812293,483
812294,493
812294,511
812295,517
812296,518
812297,519
812298,506
812299,491
812300,484
812301,487
812302,498
812303,505
812304,494
812306,482
812307,472
812308,474
812309,477
812310,471
812311,464
812312,473
812313,475
812314,472
812315,464
812316,471
812317,475
812318,469
812319,474
812320,486
812321,490
812322,499
812323,492
812324,481
812325,492
812326,498
812327,494
812328,498
812329,501
812331,485
812332,476
812333,493
812334,504
812335,503
812336,508
812336,496
812337,476
812338,473
812340,484
812341,497
812342,508
812343,521
812344,527
812345,524
812346,525
812347,516
812348,517
812349,514
812350,508
812351,509
812352,503
812353,500
812354,504
812355,495
812356,489
812357,494
812358,501
812359,510
812360,511
812361,500
812362,493
812363,504
812364,516
812365,519
812366,527
812367,524
812368,518
812369,524
812370,492
812371,484
812372,505
812374,522
812375,532
812377,515
812378,508
812379,514
812379,504
812380,488
812381,495
812382,504
812383,519
812384,508
812385,505
812386,501
812387,505
812388,513
812389,510
812390,509
812391,508
812392,508
812393,509
812394,509
812395,506
812396,503
812397,499
812398,486
812399,477
812400,481
812401,491
812402,495
812403,490
812404,481
812405,458
812406,458
812407,464
812409,468
812410,474
812411,493
812412,498
812413,490
812414,480
812416,489
812417,491
812418,493
812419,480
812420,462
812421,450
812421,448
812422,446
812423,462
812424,475
812425,473
812426,463
812427,460
812428,453
812429,453
812430,453
812431,448
812432,455
812433,467
812434,492
812435,497
812436,486
812437,478
812438,477
812439,471
812440,465
812441,465
812443,472
812444,472
812445,475
812446,479
812447,477
812448,465
812449,457
812450,465
812451,473
812452,479
812453,489
812454,485
812455,484
812456,477
812457,476
812459,476
812460,476
812461,472
812462,473
812463,481
812464,487
812464,484
812465,482
812466,482
812467,479
812468,480
812469,479
812470,482
812471,483
812472,478
812473,495
812474,491
812475,484
812477,506
812478,512
812479,517
812480,533
812481,561
812482,602
812483,575
812484,583
812485,585
812486,609
812487,641
812488,659
812489,667
812490,676
812491,691
812492,715
812493,757
812494,797
812495,833
812496,840
812497,849
812498,870
812499,895
812500,929
812502,980
812503,990
812504,990
812505,989
812506,989
812507,989
812507,989
812508,989
812510,990
812511,960
812512,895
812513,825
812514,741
812515,668
812516,587
812517,499
812518,429
812519,391
812520,361
812521,337
812522,315
812523,300
812524,283
812525,269
812526,265
812527,261
812528,265
812529,266
812530,284
812531,312
812532,344
812533,370
812534,381
812535,395
812536,400
812537,399
812538,410
812539,405
812540,393
812541,403
812542,410
812544,412
812545,408
812547,405
812548,389
812549,385
812550,391
812550,399
812551,404
812552,405
812553,422
812554,419
812555,412
812556,415
812557,448
812558,449
812559,430
812560,425
812561,432
812562,431
812563,422
812564,427
812565,428
812566,427
812567,420
812568,418
812569,420
812570,419
812571,414
812572,416
812573,435
812574,435
812575,436
812576,438
812577,437
812578,428
812580,425
812581,444
812582,439
812583,442
812584,449
812585,457
812587,460
812588,451
812589,443
812590,445
812591,451
812592,453
812592,453
812593,466
812594,470
812595,475
812596,467
812597,464
812598,454
812599,458
812600,458
812601,462
812602,472
812603,475
812604,473
812605,467
812606,462
812607,459
812608,463
812609,465
812610,472
812611,473
812612,486
812614,513
812615,509
812616,485
812617,481
812618,471
812619,467
812620,471
812621,473
812622,478
812623,495
812624,505
812625,509
812626,508
812627,509
812628,499
812630,493
812631,494
812632,499
812633,494
812634,509
812635,485
812635,489
812636,485
812637,487
812638,494
812639,499
812640,500
812641,498
812642,497
812643,501
812644,495
812645,496
812647,488
812648,485
812649,490
812650,500
812651,500
812652,506
812653,519
812654,519
812655,519
812656,514
812657,513
812658,505
812659,493
812660,491
812661,500
812662,516
812663,527
812664,533
812665,535
812666,541
812667,548
812668,546
812669,538
812670,509
812672,507
812673,517
812674,534
812675,541
812676,543
812677,542
812677,547
812678,540
812679,529
812681,546
812682,515
812683,512
812684,525
812685,534
812686,539
812687,537
812688,532
812689,520
812690,519
812691,534
812692,545
812693,554
812694,551
812695,559
812696,562
812697,559
812698,558
812699,549
812700,558
812701,569
812702,574
812703,579
812704,580
812705,576
812706,569
812707,567
812708,554
812709,542
812710,541
812711,532
812712,520
812713,528
812715,536
812716,534
812718,547
812719,541
812720,537
812720,550
812721,567
812722,574
812723,584
812724,597
812725,575
812726,568
812727,568
812728,564
812729,563
812730,577
812731,564
812732,566
812733,563
812734,552
812735,553
812736,567
812737,565
812738,551
812739,557
812740,543
812741,527
812742,521
812743,509
812744,510
812745,522
812746,530
812747,535
812748,533
812749,542
812751,561
812752,529
812753,507
812754,498
812755,495
812756,493
812758,499
812759,498
812760,493
812761,492
812762,494
812763,495
812763,488
812764,488
812765,493
812766,499
812767,496
812768,485
812769,484
812770,493
812771,494
812772,490
812773,482
812774,473
812775,463
812776,461
812777,454
812778,446
812779,445
812780,450
812781,445
812782,442
812784,449
812785,445
812786,436
812787,430
812788,412
812789,401
812790,406
812791,410
812792,416
812793,409
812794,402
812795,407
812796,418
812797,423
812798,424
812800,424
812801,431
812802,439
812803,428
812804,409
812805,411
812806,426
812806,426
812807,416
812808,410
812809,411
812810,403
812811,404
812812,418
812813,412
812814,414
812815,412
812816,410
812818,411
812819,415
812820,419
812821,414
812822,419
812823,421
812824,416
812825,415
812826,415
812827,419
812828,413
812829,410
812830,402
812831,410
812832,421
812833,410
812834,414
812835,412
812836,403
812837,402
812838,402
812839,411
812840,433
812841,428
812843,429
812844,432
812845,442
812846,429
812847,416
812848,415
812848,415
812849,422
812850,426
812852,440
812853,426
812854,424
812855,430
812856,441
812857,439
812858,432
812859,436
812860,443
812861,439
812862,438
812863,453
812864,445
812865,446
812866,452
812867,437
812868,426
812869,436
812870,446
812871,444
812872,466
812873,469
812874,469
812875,457
812876,442
812877,441
812878,446
812879,452
812880,452
812881,464
812882,465
812883,472
812884,477
812886,473
812887,467
812889,442
812890,443
812891,451
812891,453
812892,458
812893,455
812894,454
812895,459
812896,464
812897,462
812898,450
812899,445
812900,449
812901,457
812902,463
812903,465
812904,458
812905,451
812906,446
812907,441
812908,437
812909,442
812910,450
812911,453
812912,471
812913,474
812914,475
812915,474
812916,469
812917,456
812918,447
812919,453
812921,464
812922,478
812923,488
812924,483
812925,483
812926,480
812928,476
812929,470
812930,467
812931,472
812932,454
812933,439
812934,431
812934,434
812935,428
812936,440
812937,456
812938,451
812939,455
812940,459
812941,459
812942,464
812943,474
812944,484
812945,501
812946,509
812947,506
812948,504
812949,496
812950,484
812951,479
812952,482
812953,487
812955,474
812956,477
812957,490
812958,480
812959,467
812960,464
812961,472
812962,474
812963,474
812964,469
812965,475
812966,476
812967,479
812968,470
812969,459
812971,467
812972,475
812973,491
812974,493
812975,490
812976,487
812976,488
812977,485
812978,485
812979,468
812980,466
812981,468
812982,480
812983,487
812984,488
812985,481
812986,473
812987,465
812989,461
812990,464
812991,469
812992,480
812993,479
812994,487
812995,498
812996,502
812997,502
812998,489
812999,477
813000,473
813001,475
813002,482
813003,483
813004,482
813005,478
813006,479
813007,470
813008,469
813009,471
813010,472
813011,470
813012,475
813014,478
813015,480
813016,479
813017,480
813018,483
813019,478
813019,475
813020,485
813022,498
813023,487
813024,484
813025,480
813026,470
813027,450
813028,442
813029,439
813030,448
813031,458
813032,473
813033,479
813034,491
813035,486
813036,476
813037,475
813038,479
813039,487
813040,487
813041,496
813042,507
813043,507
813044,500
813045,498
813046,486
813047,465
813048,459
813049,471
813050,475
813051,487
813052,502
813053,503
813054,495
813056,486
813057,478
813059,472
813060,477
813061,488
813061,494
813062,502
813063,502
813064,495
813065,494
813066,489
813067,479
813068,482
813069,484
813070,478
813071,479
813072,485
813073,496
813074,499
813075,491
813076,495
813077,503
813078,497
813079,493
813080,501
813081,498
813082,502
813083,493
813084,475
813085,472
813086,476
813087,473
813088,466
813089,461
813090,468
813092,479
813093,480
813094,478
813095,473
813096,475
813097,471
813099,466
813100,478
813101,498
813102,511
813103,516
813104,519
813104,513
813105,504
813106,502
813107,500
813108,501
813109,492
813110,494
813111,502
813112,504
813113,506
813114,502
813115,493
813116,480
813117,474
813118,474
813119,478
813120,479
813121,487
813122,492
813123,496
813124,488
813126,483
813127,492
813128,478
813129,474
813130,482
813131,507
813132,511
813133,502
813134,496
813135,495
813136,484
813137,486
813138,493
813139,494
813140,497
813142,500
813143,498
813144,498
813145,489
813146,478
813147,478
813147,470
813148,467
813149,468
813150,474
813151,497
813152,505
813153,512
813154,509
813155,500
813156,495
813157,493
813159,493
813160,483
813161,481
813162,487
813163,487
813164,486
813165,488
813166,483
813167,481
813168,491
813169,494
813170,493
813171,493
813172,474
813173,472
813174,462
813175,450
813176,450
813177,455
813178,459
813179,480
813180,485
813181,488
813182,495
813184,491
813185,498
813186,499
813187,487
813188,459
813189,463
813190,491
813190,511
813191,525
813193,522
813194,504
813195,498
813196,498
813197,484
813198,482
813199,486
813200,489
813201,493
813202,510
813203,507
813204,500
813205,496
813206,496
813207,491
813208,493
813209,491
813210,499
813211,511
813212,507
813213,508
813214,504
813215,504
813216,497
813217,490
813218,491
813219,501
813220,503
813221,496
813222,493
813223,493
813224,505
813225,510
813227,514
813228,494
813230,491
813231,491
813232,498
813232,490
813233,485
813234,481
813235,477
813236,480
813237,485
813238,482
813239,484
813240,489
813241,494
813242,493
813243,494
813244,488
813245,475
813246,467
813247,464
813248,468
813249,478
813250,478
813251,473
813252,448
813253,431
813254,441
813255,467
813256,482
813257,487
813258,499
813259,502
813260,497
813261,502
813263,506
813264,513
813265,519
813266,509
813267,504
813268,495
813270,485
813271,489
813272,490
813273,491
813274,491
813275,487
813275,490
813276,496
813277,485
813278,485
813279,486
813280,485
813281,485
813282,494
813283,508
813284,516
813285,519
813286,514
813287,506
813288,502
813289,499
813290,509
813291,522
813292,515
813293,496
813294,479
813296,486
813297,489
813298,490
813299,489
813300,489
813301,486
813302,483
813303,491
813304,495
813305,503
813306,508
813307,504
813308,512
813309,519
813310,510
813312,503
813313,501
813314,491
813315,479
813316,478
813317,480
813317,469
813318,476
813319,486
813320,488
813321,490
813322,493
813323,493
813324,498
813325,505
813326,491
813327,472
813328,472
813330,486
813331,494
813332,497
813333,501
813334,498
813335,498
813336,496
813337,498
813338,501
813339,502
813340,516
813341,519
813342,519
813343,517
813344,509
813345,501
813346,506
813347,510
813348,503
813349,496
813350,507
813351,520
813352,513
813353,498
813355,490
813356,480
813357,480
813358,496
813359,506
813360,514
813360,519
813361,510
813362,504
813364,507
813365,502
813366,489
813367,484
813368,496
813369,506
813370,529
813371,542
813372,550
813373,543
813374,529
813375,530
813376,516
813377,510
813378,503
813379,495
813380,507
813381,512
813382,515
813383,514
813384,515
813385,524
813386,521
813387,513
813388,524
813389,542
813390,565
813391,571
813392,556
813393,540
813394,526
813395,516
813396,503
813398,507
813399,517
813401,518
813402,525
813403,534
813403,528
813404,519
813405,516
813406,516
813407,520
813408,516
813409,511
813410,524
813411,529
813412,535
813413,524
813414,505
813415,497
813416,489
813417,487
813418,493
813419,492
813420,489
813421,480
813422,482
813423,479
813424,476
813425,484
813426,473
813427,473
813428,472
813429,471
813430,480
813431,475
813433,467
813434,468
813435,474
813436,477
813437,477
813438,481
813440,476
813441,471
813442,482
813443,482
813444,473
813445,471
813445,471
813446,471
813447,477
813448,473
813449,465
813450,477
813451,477
813452,469
813453,465
813454,474
813455,492
813456,492
813457,485
813458,488
813459,488
813460,482
813461,477
813462,479
813463,482
813464,483
813465,480
813467,487
813468,488
813469,481
813470,491
813471,488
813472,470
813473,465
813474,482
813475,488
813476,476
813477,474
813478,477
813479,488
813480,501
813481,501
813483,501
813484,494
813485,487
813486,478
813487,465
813488,476
813488,481
813489,492
813490,510
813491,518
813492,515
813493,501
813494,485
813495,477
813496,486
813497,502
813498,516
813499,533
813501,555
813502,568
813503,594
813504,616
813505,634
813506,652
813507,655
813508,671
813509,699
813510,741
813511,768
813512,787
813513,795
813514,813
813515,831
813516,844
813517,870
813518,906
813519,947
813520,986
813521,990
813522,989
813523,989
813524,989
813526,989
813527,989
813528,989
813529,989
813530,989
813531,989
813531,920
813532,835
813534,662
813535,576
813536,499
813537,439
813538,397
813539,381
813540,355
813541,319
813542,296
813543,289
813544,288
813545,289
813546,282
813547,289
813548,304
813549,322
813550,350
813551,359
813552,362
813553,369
813554,371
813555,368
813556,374
813557,383
813558,403
813559,420
813560,413
813561,413
813562,416
813563,418
813564,406
813565,387
813566,390
813568,385
813569,387
813571,411
813572,415
813573,416
813574,420
813574,427
813575,438
813576,437
813577,424
813578,417
813579,417
813580,425
813581,427
813582,427
813583,434
813584,438
813585,448
813586,455
813587,457
813588,455
813589,454
813590,463
813591,456
813592,450
813593,453
813594,453
813595,453
813596,449
813597,454
813598,461
813599,458
813600,457
813601,460
813602,453
813603,447
813605,451
813606,459
813607,467
813608,471
813609,465
813611,465
813612,463
813613,467
813614,468
813615,471
813616,467
813616,470
813617,479
813618,481
813619,494
813620,506
813621,503
813622,497
813623,496
813624,478
813625,471
813626,477
813627,479
813628,475
813629,473
813630,475
813631,474
813632,472
813633,468
813634,466
813635,460
813636,464
813638,450
813639,474
813640,499
813641,505
813642,503
813643,502
813644,506
813645,500
813646,495
813647,484
813648,489
813649,503
813650,503
813651,504
813652,507
813654,509
813655,509
813656,501
813657,496
813658,492
813659,493
813659,502
813660,493
813661,487
813662,489
813663,486
813664,490
813665,491
813666,493
813667,506
813668,525
813669,519
813671,530
813672,531
813673,524
813674,512
813675,513
813676,514
813677,521
813678,532
813679,539
813680,536
813681,534
813682,533
813683,530
813684,528
813685,531
813686,526
813687,532
813688,543
813689,551
813690,550
813691,546
813692,548
813693,544
813694,532
813696,522
813697,520
813698,524
813699,533
813700,544
813701,554
813701,551
813702,547
813703,536
813705,514
813706,524
813707,537
813708,544
813709,550
813710,550
813711,553
813712,547
813713,541
813714,537
813715,529
813716,538
813717,556
813718,564
813719,568
813720,571
813721,566
813722,566
813723,569
813724,564
813725,558
813726,549
813727,561
813728,571
813729,586
813730,591
813731,589
813732,589
813733,572
813734,546
813735,536
813736,543
813737,559
813739,565
813740,562
813742,555
813743,558
813744,555
813744,556
813745,560
813746,555
813747,553
813748,547
813749,552
813750,549
813751,552
813752,552
813753,552
813754,561
813755,562
813756,565
813757,571
813758,563
813759,556
813760,558
813761,550
813762,545
813763,551
813764,553
813765,546
813766,541
813767,533
813768,532
813769,530
813770,528
813771,535
813772,527
813773,511
813775,480
813776,486
813777,497
813778,493
813779,489
813780,486
813782,486
813783,477
813784,480
813785,496
813786,492
813787,483
813787,480
813788,487
813789,493
813790,490
813791,473
813792,463
813793,463
813794,461
813795,458
813796,449
813797,443
813798,446
813799,448
813800,449
813801,440
813802,436
813803,436
813804,427
813805,413
813806,413
813808,417
813809,423
813810,424
813811,425
813812,420
813813,428
813814,431
813815,429
813816,425
813817,420
813818,420
813819,431
813820,429
813821,422
813822,432
813824,410
813825,381
813826,353
813827,343
813828,348
813829,375
813830,407
813830,408
813831,407
813832,406
813833,404
813834,398
813835,379
813836,362
813837,356
813838,362
813839,387
813840,406
813842,402
813843,405
813844,401
813845,388
813846,387
813847,392
813848,404
813849,415
813850,414
813851,418
813852,416
813853,412
813854,408
813855,413
813856,419
813857,419
813858,418
813859,417
813860,412
813861,408
813862,411
813863,418
813864,403
813865,393
813867,395
813868,401
813869,405
813870,408
813871,411
813872,424
813872,404
813873,405
813874,406
813876,409
813877,410
813878,411
813879,416
813880,421
813881,419
813882,422
813883,414
813884,396
813885,385
813886,390
813887,397
813888,411
813889,425
813890,422
813891,427
813892,434
813893,433
813894,429
813895,432
813896,439
813897,446
813898,463
813899,472
813900,477
813901,475
813902,461
813903,444
813904,424
813905,412
813906,420
813907,433
813908,446
813910,450
813911,428
813913,421
813914,421
813915,415
813915,419
813916,437
813917,445
813918,445
813919,445
813920,440
813921,452
813922,441
813923,444
813924,441
813925,438
813926,447
813927,460
813928,453
813929,447
813930,446
813931,445
813932,442
813933,440
813934,439
813935,435
813936,441
813937,450
813938,453
813939,455
813940,457
813941,462
813942,466
813943,464
813945,457
813946,452
813947,447
813948,442
813949,442
813950,438
813952,443
813953,449
813954,447
813955,434
813956,432
813957,438
813958,436
813958,439
813959,446
813960,450
813961,451
813962,439
813963,420
813964,420
813965,422
813966,434
813967,446
813968,449
813969,441
813970,442
813971,451
813972,444
813973,451
813974,450
813975,461
813976,472
813977,466
813979,470
813980,473
813981,465
813982,462
813983,471
813984,477
813985,466
813986,462
813987,454
813988,446
813989,443
813990,441
813991,443
813992,447
813993,446
813995,439
813996,441
813997,453
813998,457
813999,457
814000,454
814000,457
814001,462
814002,459
814003,451
814004,448
814005,449
814006,447
814007,444
814008,446
814009,445
814010,452
814011,465
814013,448
814014,435
814015,432
814016,442
814017,454
814018,457
814019,453
814020,456
814021,446
814022,440
814023,442
814024,446
814025,441
814026,448
814027,452
814028,460
814029,457
814030,456
814031,453
814032,453
814033,445
814034,433
814035,435
814036,444
814038,443
814039,450
814040,451
814041,447
814042,443
814043,440
814043,449
814044,445
814046,446
814047,447
814048,462
814049,471
814050,467
814051,467
814052,470
814053,478
814054,469
814055,459
814056,452
814057,447
814058,448
814059,450
814060,456
814061,471
814062,478
814063,467
814064,456
814065,455
814066,449
814067,445
814068,454
814069,460
814070,466
814071,448
814072,444
814073,444
814074,438
814075,436
814076,438
814077,445
814078,457
814080,455
814081,447
814083,457
814084,460
814085,470
814086,471
814086,471
814087,464
814088,463
814089,455
814090,460
814091,466
814092,458
814093,451
814094,445
814095,446
814096,447
814097,451
814098,440
814099,431
814100,427
814101,434
814102,448
814103,442
814104,424
814105,420
814106,423
814107,434
814108,452
814109,453
814110,450
814111,447
814112,449
814113,455
814114,450
814116,458
814117,468
814118,460
814119,467
814120,468
814121,456
814123,453
814124,458
814125,455
814126,448
814127,448
814128,448
814128,461
814129,467
814130,466
814131,465
814132,457
814133,439
814134,417
814135,419
814136,435
814137,448
814138,453
814139,463
814140,472
814141,467
814142,463
814143,465
814144,459
814145,461
814146,467
814147,472
814148,475
814150,483
814151,479
814152,477
814153,462
814154,454
814155,456
814156,455
814157,453
814158,456
814159,464
814160,457
814161,451
814162,453
814163,452
814164,448
814166,452
814167,456
814168,463
814169,473
814170,478
814171,463
814171,455
814172,444
814173,437
814174,434
814175,436
814176,436
814177,444
814178,449
814179,462
814180,469
814181,467
814183,447
814184,446
814185,457
814186,463
814187,458
814188,458
814189,462
814190,460
814191,461
814192,454
814193,447
814194,450
814195,454
814196,452
814197,447
814198,445
814199,450
814200,452
814201,456
814202,453
814203,443
814204,447
814205,440
814206,438
814208,443
814209,452
814210,452
814211,462
814212,459
814213,455
814214,447
814214,450
814215,466
814217,479
814218,482
814219,488
814220,484
814221,484
814222,481
814223,477
814224,467
814225,461
814226,454
814227,447
814228,454
814229,451
814230,449
814231,447
814232,449
814233,455
814234,456
814235,462
814236,484
814237,490
814238,490
814239,491
814240,488
814241,479
814242,478
814243,476
814244,472
814245,467
814246,460
814247,466
814248,469
814249,459
814251,455
814252,460
814254,461
814255,462
814256,461
814256,464
814257,474
814258,472
814259,469
814260,469
814261,471
814262,475
814263,475
814264,475
814265,478
814266,484
814267,490
814268,497
814269,483
814270,478
814271,478
814272,475
814273,461
814274,462
814275,463
814276,458
814277,464
814278,471
814279,480
814280,486
814281,486
814282,493
814283,494
814284,491
814285,494
814287,498
814288,506
814289,512
814290,511
814291,516
814292,520
814294,511
814295,509
814296,511
814297,494
814298,489
814299,490
814299,489
814300,486
814301,479
814302,476
814303,475
814304,471
814305,470
814306,464
814307,466
814308,468
814309,462
814310,458
814311,464
814312,469
814313,467
814314,464
814315,468
814316,477
814317,477
814318,477
814320,456
814321,447
814322,436
814323,426
814324,423
814325,429
814326,443
814327,451
814328,450
814329,451
814330,453
814331,458
814332,458
814333,446
814334,448
814336,463
814337,472
814338,468
814339,465
814340,461
814341,465
814342,448
814342,440
814343,436
814344,435
814345,434
814346,436
814347,448
814348,445
814349,437
814350,438
814351,447
814352,453
814354,437
814355,438
814356,436
814357,433
814358,438
814359,455
814360,467
814361,465
814362,460
814363,460
814364,464
814365,466
814366,462
814367,469
814368,475
814369,472
814370,469
814371,458
814372,458
814373,457
814374,459
814375,456
814376,455
814377,457
814379,468
814380,485
814381,488
814382,484
814383,482
814384,478
814384,466
814385,463
814386,468
814388,490
814389,502
814390,504
814391,507
814392,511
814393,520
814394,536
814395,558
814396,560
814397,569
814398,580
814399,598
814400,621
814401,636
814402,653
814403,683
814404,714
814405,736
814406,755
814407,771
814408,780
814409,800
814410,825
814411,859
814412,887
814413,918
814414,946
814415,971
814416,990
814417,990
814418,989
814419,989
814420,989
814422,990
814423,963
814425,848
814426,804
814427,742
814427,655
814428,553
814429,480
814430,417
814431,378
814432,353
814433,327
814434,306
814435,292
814436,278
814437,274
814438,272
814439,271
814440,279
814441,281
814442,282
814443,287
814444,300
814445,318
814446,327
814447,348
814448,350
814449,359
814450,365
814451,364
814452,362
814453,370
814454,375
814455,389
814457,408
814458,407
814459,408
814460,412
814461,412
814462,410
814464,400
814465,398
814466,404
814467,412
814468,420
814469,407
814469,410
814470,407
814471,402
814472,400
814473,400
814474,401
814475,401
814476,404
814477,399
814478,407
814479,407
814480,412
814481,416
814482,416
814483,413
814484,420
814485,431
814486,445
814487,461
814488,458
814489,450
814491,444
814492,452
814493,456
814494,454
814495,456
814496,467
814497,472
814498,461
814499,449
814500,443
814501,451
814502,457
814503,456
814504,451
814505,450
814507,451
814508,457
814509,459
814510,459
814511,457
814512,456
814512,448
814513,453
814514,457
814515,467
814516,479
814517,480
814518,476
814519,478
814520,482
814521,475
814522,467
814523,462
814525,470
814526,477
814527,489
814528,491
814529,489
814530,487
814531,486
814532,480
814533,477
814534,475
814535,482
814536,483
814537,482
814538,488
814539,501
814540,504
814541,489
814542,471
814543,461
814544,471
814545,488
814546,494
814547,505
814548,502
814550,496
814551,491
814552,483
814553,474
814554,468
814555,481
814555,495
814556,506
814558,521
814559,522
814560,515
814561,507
814562,514
814563,516
814564,519
814565,530
814566,531
814567,527
814568,523
814569,533
814570,527
814571,521
814572,522
814573,519
814574,519
814575,515
814576,517
814577,529
814578,536
814579,536
814580,535
814581,533
814582,527
814583,521
814584,526
814585,531
814586,532
814587,538
814588,532
814589,526
814590,528
814592,538
814593,535
814595,545
814596,540
814597,537
814598,541
814598,540
814599,546
814600,557
814601,556
814602,545
814603,548
814604,543
814605,541
814606,543
814607,556
814608,570
814609,571
814610,566
814611,559
814612,552
814613,548
814614,548
814615,548
814616,559
814617,567
814618,575
814619,575
814620,574
814621,568
814622,562
814623,564
814624,574
814625,578
814626,582
814628,581
814629,579
814630,584
814631,586
814632,572
814633,560
814635,560
814636,564
814637,571
814638,574
814639,574
814640,578
814640,581
814641,577
814642,569
814643,561
814644,566
814645,572
814646,584
814647,586
814648,585
814649,575
814650,560
814651,556
814652,556
814653,550
814654,543
814655,539
814656,535
814657,542
814658,555
814659,559
814660,554
814662,531
814663,530
814664,527
814665,530
814666,521
814667,515
814668,513
814669,509
814670,510
814671,513
814672,507
814673,501
814674,502
814675,500
814676,499
814678,502
814679,495
814680,498
814681,492
814682,485
814683,477
814683,465
814684,459
814685,445
814686,444
814687,439
814688,446
814689,454
814690,455
814691,444
814692,445
814693,445
814695,428
814696,441
814697,454
814698,452
814699,452
814700,461
814701,467
814702,461
814703,443
814704,430
814705,419
814706,429
814707,422
814708,424
814709,423
814710,417
814711,417
814712,416
814713,423
814714,430
814715,421
814716,402
814717,400
814718,400
814720,389
814721,384
814722,378
814723,374
814724,375
814725,377
814726,375
814726,392
814727,396
814729,411
814730,417
814731,412
814732,405
814733,402
814734,408
814735,414
814736,410
814737,406
814738,408
814739,411
814740,410
814741,406
814742,406
814743,405
814744,396
814745,398
814746,421
814747,420
814748,416
814749,416
814750,422
814751,431
814752,441
814753,448
814754,458
814755,465
814756,462
814757,455
814758,459
814759,448
814760,438
814761,438
814763,440
814764,437
814766,425
814767,433
814768,446
814768,447
814769,436
814770,438
814771,441
814772,438
814773,440
814774,444
814775,451
814776,459
814777,464
814778,451
814779,445
814780,454
814781,468
814782,459
814783,449
814784,445
814785,447
814786,457
814787,462
814788,462
814789,464
814790,468
814791,466
814792,460
814793,454
814794,452
814795,455
814796,461
814797,465
814799,467
814800,471
814801,469
814802,476
814803,488
814804,489
814806,486
814807,499
814808,493
814809,477
814810,462
814811,460
814811,460
814812,461
814813,461
814814,475
814815,477
814816,488
814817,491
814818,493
814819,491
814820,490
814821,479
814822,471
814823,477
814824,478
814825,486
814826,494
814827,495
814828,501
814829,510
814830,511
814832,499
814833,499
814834,496
814835,495
814836,487
814837,494
814838,504
814839,511
814840,510
814841,497
814842,477
814843,479
814844,486
814845,497
814846,510
814848,501
814849,493
814850,482
814851,478
814852,471
814853,472
814854,477
814854,485
814855,498
814856,518
814857,523
814858,508
814859,498
814860,492
814861,484
814862,474
814863,468
814864,484
814866,503
814867,497
814868,498
814869,496
814870,495
814871,487
814872,483
814873,484
814874,486
814875,490
814876,484
814877,485
814878,489
814879,493
814880,493
814881,491
814882,486
814883,495
814884,506
814885,514
814886,519
814887,514
814888,515
814889,506
814891,501
814892,496
814893,499
814894,503
814895,509
814896,516
814896,510
814897,505
814898,504
814900,480
814901,474
814902,471
814903,480
814904,498
814905,489
814906,495
814907,495
814908,489
814909,486
814910,493
814911,500
814912,487
814913,501
814914,515
814915,532
814916,539
814917,532
814918,531
814919,523
814920,510
814921,498
814922,501
814923,508
814924,518
814925,520
814926,511
814927,506
814928,503
814929,507
814930,513
814931,505
814932,488
814934,475
814935,477
814937,483
814938,488
814939,496
814939,493
814940,483
814941,469
814942,472
814943,486
814944,499
814945,505
814946,510
814947,514
814948,510
814949,517
814950,531
814951,532
814952,540
814953,539
814954,523
814955,513
814956,513
814957,516
814958,514
814959,505
814960,497
814961,490
814962,496
814963,503
814964,487
814965,496
814966,501
814967,501
814969,498
814970,490
814971,484
814972,488
814973,491
814974,495
814976,499
814977,500
814978,502
814979,512
814980,523
814981,527
814982,518
814982,511
814983,508
814984,510
814985,525
814986,532
814987,534
814988,520
814989,514
814990,514
814991,510
814992,498
814993,493
814994,496
814995,506
814996,512
814997,512
814998,505
814999,496
815000,492
815001,483
815003,478
815004,476
815005,489
815006,494
815007,508
815008,513
815009,515
815010,520
815011,525
815012,526
815013,529
815014,527
815015,535
815016,536
815017,533
815019,530
815020,519
815021,503
815022,495
815023,502
815024,510
815024,519
815025,522
815026,520
815027,513
815028,500
815029,502
815030,509
815031,509
815032,504
815033,507
815034,514
815035,515
815037,518
815038,511
815039,509
815040,507
815041,509
815042,516
815043,516
815044,518
815045,525
815046,515
815047,502
815048,501
815049,501
815050,502
815051,502
815052,500
815053,502
815054,504
815055,510
815056,513
815057,520
815058,528
815059,527
815060,524
815062,516
815063,511
815064,503
815065,517
815066,528
815067,520
815067,520
815068,522
815070,522
815071,519
815072,517
815073,516
815074,518
815075,516
815076,506
815077,503
815078,505
815079,513
815080,511
815081,508
815082,511
815083,523
815084,514
815085,512
815086,512
815087,516
815088,505
815089,501
815090,506
815091,501
815092,501
815093,507
815094,513
815095,517
815096,515
815097,517
815098,512
815099,511
815100,507
815101,509
815102,511
815104,519
815105,526
815107,533
815108,522
815109,516
815109,520
815110,514
815111,510
815112,517
815113,517
815114,519
815115,523
815116,519
815117,521
815118,531
815119,530
815120,515
815121,498
815122,487
815123,487
815124,488
815125,491
815126,484
815127,492
815128,507
815129,508
815130,511
815131,519
815132,515
815133,517
815134,520
815135,525
815136,531
815137,534
815138,532
815140,521
815141,514
815142,515
815143,520
815144,530
815145,539
815147,531
815148,523
815149,525
815150,524
815151,518
815152,513
815152,511
815153,513
815154,510
815155,504
815156,505
815157,510
815158,508
815159,509
815160,504
815161,500
815162,509
815163,512
815164,513
815165,517
815166,520
815167,525
815168,510
815169,507
815170,514
815171,522
815172,523
815174,542
815175,549
815176,544
815177,534
815178,531
815179,525
815180,511
815181,502
815182,506
815183,505
815184,505
815185,497
815186,490
815187,494
815188,507
815190,518
815191,496
815192,485
815193,494
815194,507
815195,516
815195,517
815196,514
815197,509
815198,506
815199,503
815200,510
815201,519
815202,531
815203,537
815204,538
815205,548
815207,548
815208,547
815209,543
815210,541
815211,543
815212,531
815213,528
815214,520
815215,515
815216,521
815217,523
815218,523
815219,518
815220,513
815221,512
815222,513
815223,511
815224,516
815225,528
815226,531
815227,529
815228,524
815229,520
815230,521
815232,531
815233,541
815234,544
815235,540
815236,539
815237,541
815238,548
815238,549
815239,549
815241,542
815242,545
815243,547
815244,553
815245,556
815246,554
815247,550
815248,541
815249,536
815250,538
815251,546
815252,551
815253,555
815254,568
815255,575
815256,573
815257,566
815258,559
815259,555
815260,551
815261,548
815262,551
815263,558
815264,568
815265,567
815266,561
815267,555
815268,543
815269,530
815270,528
815271,516
815272,516
815273,515
815275,514
815276,509
815278,508
815279,501
815280,498
815280,494
815281,485
815282,499
815283,496
815284,504
815285,508
815286,501
815287,486
815288,476
815289,473
815290,482
815291,498
815292,500
815293,506
815294,505
815295,507
815296,504
815297,501
815298,494
815299,493
815300,484
815301,495
815302,500
815303,505
815304,518
815305,516
815306,516
815307,510
815308,512
815309,512
815311,507
815312,508
815313,509
815314,512
815315,507
815316,500
815318,504
815319,506
815320,507
815321,506
815322,506
815323,502
815323,497
815324,498
815325,492
815326,489
815327,490
815328,507
815329,519
815330,522
815331,514
815332,512
815333,511
815334,514
815335,509
815336,496
815337,498
815338,500
815339,495
815340,489
815341,490
815342,493
815344,516
815345,514
815346,517
815347,513
815348,506
815349,505
815350,511
815351,520
815352,545
815353,558
815354,571
815355,575
815356,580
815357,591
815358,601
815360,614
815361,631
815362,639
815363,666
815364,690
815365,725
815366,739
815366,748
815367,766
815368,781
815369,792
815370,808
815371,834
815372,869
815373,908
815374,950
815375,979
815376,990
815378,989
815379,989
815380,989
815381,989
815382,988
815383,988
815384,989
815385,989
815386,990
815387,930
815388,854
815389,777
815390,680
815391,581
815392,517
815393,471
815394,432
815395,402
815396,372
815397,352
815398,329
815399,314
815400,302
815401,297
815403,295
815404,308
815405,323
815406,324
815407,341
815408,363
815408,382
815409,395
815410,399
815412,415
815413,432
815414,447
815415,456
815416,458
815417,456
815418,441
815419,438
815420,435
815421,432
815422,434
815423,439
815424,445
815425,440
815426,444
815427,446
815428,439
815429,436
815430,433
815431,434
815432,435
815433,440
815434,442
815435,439
815436,438
815437,447
815438,449
815439,453
815440,446
815441,440
815442,445
815443,455
815444,482
815446,476
815447,464
815449,469
815450,459
815451,457
815451,467
815452,471
815453,470
815454,475
815455,483
815456,478
815457,481
815458,479
815459,468
815460,448
815461,468
815462,486
815463,493
815464,504
815465,501
815466,492
815467,485
815468,490
815469,489
815470,489
815471,498
815472,505
815473,507
815474,499
815475,502
815476,504
815477,503
815478,505
815479,505
815481,493
815482,488
815483,486
815484,494
815485,511
815486,521
815488,519
815489,510
815490,503
815491,505
815492,510
815493,504
815493,509
815494,517
815495,520
815496,524
815497,520
815498,515
815499,509
815500,506
815501,501
815502,497
815503,507
815504,518
815505,520
815506,514
815507,505
815508,502
815509,500
815510,500
815511,507
815512,509
815513,519
815515,527
815516,528
815517,520
815518,518
815519,516
815520,514
815521,517
815522,520
815523,528
815524,534
815525,530
815526,533
815527,543
815528,555
815529,559
815531,551
815532,544
815533,540
815534,544
815535,546
815536,557
815536,558
815537,553
815538,555
815539,546
815540,542
815541,546
815542,548
815543,563
815544,574
815545,569
815546,555
815547,540
815549,545
815550,549
815551,557
815552,565
815553,570
815554,569
815555,569
815556,568
815557,568
815558,576
815559,573
815560,572
815561,577
815562,578
815563,577
815564,568
815565,559
815566,559
815567,562
815568,563
815569,562
815570,567
815571,578
815572,575
815574,573
815575,577
815576,582
815577,577
815578,573
815579,569
815579,572
815580,585
815582,597
815583,607
815584,608
815585,601
815586,585
815587,576
815588,572
815589,574
815590,566
815591,564
815592,568
815593,575
815594,583
815595,590
815596,592
815597,588
815598,585
815599,576
815600,571
815601,573
815602,583
815603,605
815604,601
815605,594
815606,584
815607,572
815608,569
815609,565
815610,569
815611,572
815612,577
815613,583
815614,581
815616,577
815617,583
815619,576
815620,564
815621,564
815621,568
815622,566
815623,566
815624,547
815625,542
815626,549
815627,555
815628,560
815629,561
815630,560
815631,547
815632,533
815633,532
815634,526
815635,512
815636,503
815637,507
815638,502
815639,491
815640,480
815641,477
815642,481
815643,490
815644,486
815645,486
815646,487
815647,483
815648,475
815649,462
815650,464
815652,476
815653,489
815654,485
815655,483
815656,477
815657,470
815659,472
815660,458
815661,459
815662,461
815663,460
815664,459
815664,446
815665,437
815666,430
815667,429
815668,420
815669,416
815670,416
815671,420
815672,423
815673,428
815674,437
815675,442
815676,443
815677,444
815678,444
815679,436
815680,431
815681,419
815682,413
815683,429
815684,427
815686,417
815687,404
815688,393
815689,392
815690,408
815691,416
815692,418
815693,426
815694,437
815695,435
815696,432
815697,429
815698,420
815699,413
815700,411
815702,410
815703,416
815704,423
815705,417
815706,426
815707,429
815707,433
815708,423
815709,427
815710,437
815711,449
815712,461
815713,470
815714,468
815715,461
815716,456
815717,449
815719,438
815720,428
815721,420
815722,427
815723,441
815724,440
815725,435
815726,440
815727,444
815728,445
815729,441
815730,438
815731,445
815732,447
815733,451
815734,445
815735,437
815736,439
815737,447
815738,448
815739,447
815740,457
815741,467
815742,473
815744,479
815745,481
815746,481
815747,479
815748,466
815749,443
815750,441
815750,448
815751,452
815753,459
815754,466
815755,476
815756,477
815757,480
815758,469
815759,463
815760,462
815761,461
815762,459
815763,459
815764,459
815765,458
815766,453
815767,441
815768,449
815769,462
815770,464
815771,456
815772,458
815773,472
815774,483
815775,490
815776,485
815777,486
815778,484
815779,481
815780,485
815781,482
815782,477
815783,487
815784,483
815785,485
815787,491
815788,503
815790,480
815791,477
815792,480
815792,485
815793,488
815794,493
815795,497
815796,498
815797,495
815798,491
815799,485
815800,484
815801,485
815802,491
815803,492
815804,488
815805,491
815806,498
815807,495
815808,484
815809,482
815810,485
815811,486
815812,486
815813,485
815814,485
815815,483
815816,479
815817,478
815818,472
815819,470
815820,477
815821,489
815823,503
815824,496
815825,494
815826,497
815827,491
815828,486
815830,483
815831,484
815832,485
815833,490
815834,494
815835,498
815835,502
815836,504
815837,508
815838,505
815839,500
815840,506
815841,511
815842,515
815843,514
815844,504
815845,500
815846,498
815847,496
815848,484
815849,481
815850,482
815851,485
815852,493
815853,499
815854,502
815856,491
815857,486
815858,477
815859,472
815860,476
815861,478
815862,487
815863,486
815864,485
815865,481
815866,486
815867,488
815868,488
815869,484
815870,487
815872,491
815873,489
815874,483
815875,489
815876,494
815877,496
815878,491
815878,482
815879,475
815880,479
815881,487
815882,498
815883,504
815884,512
815885,507
815886,503
815887,500
815888,496
815890,491
815891,501
815892,513
815893,523
815894,521
815895,511
815896,508
815897,502
815898,488
815899,492
815900,501
815901,502
815902,503
815903,498
815904,496
815905,494
815906,495
815907,498
815908,491
815909,485
815910,485
815911,487
815912,489
815913,495
815915,500
815916,498
815917,498
815918,495
815919,492
815920,488
815920,487
815921,495
815922,509
815924,507
815925,496
815926,498
815927,496
815928,506
815929,508
815930,495
815931,485
815932,488
815933,490
815934,500
815935,496
815936,491
815937,484
815938,478
815939,485
815940,498
815941,508
815942,514
815943,512
815944,503
815945,493
815946,492
815947,487
815948,484
815949,484
815950,496
815951,500
815952,504
815953,501
815954,502
815955,509
815956,507
815958,497
815959,487
815961,482
815962,493
815963,506
815963,502
815964,501
815965,504
815966,500
815967,490
815968,489
815969,496
815970,502
815971,495
815972,496
815973,498
815974,501
815975,512
815976,514
815977,501
815978,492
815979,491
815980,493
815981,490
815982,495
815983,491
815984,486
815985,491
815986,489
815987,484
815988,489
815989,497
815990,509
815991,510
815993,509
815994,509
815995,500
815996,497
815997,499
815998,499
816000,499
816001,500
816002,493
816003,493
816004,487
816005,486
816005,495
816006,511
816007,507
816008,499
816009,493
816010,499
816011,502
816012,505
816013,498
816014,488
816015,485
816016,487
816017,484
816018,481
816019,491
816020,499
816021,505
816022,513
816023,506
816024,506
816025,503
816027,490
816028,490
816029,494
816030,503
816031,512
816032,505
816033,500
816034,499
816035,498
816036,501
816037,502
816038,500
816039,502
816040,501
816041,505
816043,506
816044,500
816045,499
816046,496
816047,488
816048,482
816048,483
816049,479
816050,480
816051,479
816052,488
816053,499
816054,502
816055,507
816056,510
816057,495
816058,487
816059,488
816061,518
816062,527
816063,521
816064,513
816065,502
816066,482
816067,473
816068,465
816069,486
816070,507
816071,527
816072,530
816073,526
816074,521
816075,516
816076,504
816077,500
816078,502
816079,511
816080,515
816081,521
816082,518
816083,509
816084,507
816086,504
816087,498
816088,488
816089,486
816090,495
816091,500
816091,506
816092,501
816094,504
816095,502
816096,500
816097,495
816098,492
816099,497
816100,496
816101,496
816102,497
816103,497
816104,486
816105,476
816106,475
816107,476
816108,485
816109,493
816110,488
816111,483
816112,493
816113,520
816114,525
816115,513
816116,500
816117,491
816118,493
816119,493
816120,491
816121,494
816122,486
816123,486
816124,482
816125,478
816126,478
816128,472
816129,460
816131,467
816132,491
816133,510
816134,517
816134,511
816135,509
816136,511
816137,507
816138,507
816139,513
816140,523
816141,535
816142,543
816143,548
816144,537
816145,533
816146,531
816147,528
816148,525
816149,520
816150,519
816151,511
816152,505
816153,497
816154,496
816155,499
816156,488
816157,467
816158,464
816159,476
816160,474
816161,470
816162,462
816164,471
816165,482
816166,490
816167,482
816168,479
816169,485
816171,491
816172,506
816173,515
816174,518
816175,528
816176,528
816176,523
816177,522
816178,513
816179,509
816180,500
816181,512
816182,512
816183,516
816184,524
816185,528
816186,529
816187,524
816188,508
816189,508
816190,508
816191,499
816192,494
816193,502
816194,516
816195,510
816196,502
816198,510
816199,509
816200,505
816201,514
816202,515
816203,524
816204,524
816205,525
816206,520
816207,514
816208,512
816209,518
816210,523
816211,523
816212,522
816214,528
816215,526
816216,535
816217,528
816218,508
816219,505
816219,516
816220,525
816221,526
816222,519
816223,508
816224,504
816225,499
816226,500
816227,504
816228,514
816229,525
816231,530
816232,546
816233,547
816234,541
816235,534
816236,528
816237,524
816238,531
816239,546
816240,549
816241,560
816242,558
816243,558
816244,564
816245,566
816246,554
816247,535
816248,524
816249,531
816250,538
816251,540
816252,534
816253,528
816254,529
816256,530
816257,523
816258,506
816259,493
816260,475
816261,469
816262,477
816262,480
816263,480
816265,482
816266,479
816267,473
816268,468
816269,460
816270,463
816271,473
816272,475
816273,474
816274,469
816275,460
816276,447
816277,445
816278,458
816279,466
816280,466
816281,476
816282,476
816283,475
816284,472
816285,473
816286,482
816287,479
816288,483
816289,488
816290,484
816291,487
816292,496
816293,499
816294,495
816295,495
816296,492
816297,476
816299,471
816300,480
816302,494
816303,487
816304,482
816304,477
816305,473
816306,474
816307,475
816308,474
816309,481
816310,490
816311,495
816312,490
816313,484
816314,473
816315,463
816316,468
816317,476
816318,479
816319,481
816320,479
816321,487
816322,487
816323,492
816324,490
816325,481
816326,470
816327,463
816328,470
816329,485
816330,495
816331,496
816332,492
816333,492
816335,499
816336,501
816337,506
816338,513
816339,521
816340,537
816342,555
816343,564
816344,573
816345,589
816346,604
816347,616
816347,639
816348,662
816349,683
816350,694
816351,707
816352,731
816353,758
816354,771
816355,783
816356,797
816357,820
816358,851
816359,879
816360,916
816361,954
816362,977
816363,990
816364,990
816365,989
816366,989
816368,989
816369,989
816370,989
816371,990
816372,922
816373,851
816374,778
816375,704
816376,618
816377,534
816378,462
816379,418
816380,385
816381,359
816382,332
816384,313
816385,302
816386,302
816387,298
816388,287
816389,285
816390,292
816390,309
816391,319
816392,329
816393,339
816394,346
816395,354
816396,357
816397,364
816398,373
816399,384
816400,405
816402,415
816403,415
816404,419
816405,419
816406,405
816407,401
816408,398
816409,396
816410,401
816411,413
816412,423
816413,424
816414,423
816415,421
816416,413
816417,416
816418,420
816419,415
816420,415
816421,419
816422,426
816423,432
816424,437
816425,439
816427,432
816428,427
816429,423
816430,427
816431,442
816432,446
816432,449
816433,454
816434,458
816436,463
816437,462
816438,458
816439,458
816440,461
816441,462
816442,460
816443,458
816444,452
816445,455
816446,446
816447,443
816448,443
816449,448
816450,462
816451,476
816452,482
816453,481
816454,476
816455,466
816456,458
816457,457
816458,463
816459,467
816460,471
816461,469
816462,472
816463,476
816464,468
816465,466
816466,460
816467,458
816468,470
816470,477
816471,484
816473,499
816474,497
816475,486
816475,483
816476,476
816477,478
816478,479
816479,473
816480,482
816481,484
816482,492
816483,493
816484,492
816485,477
816486,471
816487,473
816488,488
816489,497
816490,501
816491,500
816492,507
816493,511
816494,514
816495,510
816496,508
816497,510
816498,512
816499,510
816500,520
816501,520
816502,520
816503,508
816505,500
816506,510
816507,512
816508,505
816509,502
816510,497
816512,498
816513,507
816514,520
816515,521
816516,519
816517,510
816518,502
816518,496
816519,496
816520,510
816521,506
816522,505
816523,512
816524,518
816525,522
816526,518
816527,510
816528,512
816529,518
816530,520
816531,523
816532,531
816533,543
816534,544
816535,540
816536,529
816537,526
816539,540
816540,560
816541,562
816542,554
816543,539
816544,529
816545,524
816546,524
816547,529
816548,535
816549,538
816550,542
816551,551
816552,550
816553,548
816555,547
816556,544
816557,540
816558,539
816559,540
816560,540
816560,557
816561,558
816562,563
816563,571
816564,571
816565,569
816566,563
816567,561
816568,559
816569,562
816570,561
816571,559
816573,560
816574,560
816575,558
816576,560
816577,550
816578,549
816579,555
816580,569
816581,570
816582,566
816583,564
816584,569
816585,566
816586,560
816587,557
816588,558
816589,560
816590,564
816591,568
816592,576
816593,574
816594,564
816595,558
816596,557
816598,560
816599,555
816600,563
816601,576
816602,563
816603,549
816603,542
816604,543
816606,525
816607,520
816608,523
816609,523
816610,520
816611,517
816612,512
816613,504
816614,503
816615,501
816616,500
816617,506
816618,509
816619,510
816620,515
816621,507
816622,499
816623,495
816624,497
816625,495
816626,498
816627,500
816628,502
816629,504
816630,497
816631,486
816632,473
816633,463
816634,458
816635,452
816636,450
816637,451
816638,449
816640,448
816641,448
816643,435
816644,416
816645,410
816646,411
816646,416
816647,422
816648,435
816649,447
816650,447
816651,437
816652,427
816653,419
816654,410
816655,395
816656,386
816657,388
816658,391
816659,399
816660,412
816661,418
816662,423
816663,407
816664,389
816665,380
816666,391
816667,405
816668,409
816669,410
816670,403
816671,398
816672,401
816673,399
816674,387
816676,376
816677,389
816678,387
816679,387
816680,402
816681,403
816683,408
816684,403
816685,393
816686,393
816687,390
816688,395
816688,398
816689,400
816690,397
816691,393
816692,395
816693,391
816694,385
816695,369
816696,372
816697,386
816698,410
816699,423
816700,420
816701,414
816702,416
816703,424
816704,425
816705,424
816706,426
816707,423
816708,420
816710,422
816711,426
816712,427
816713,431
816714,420
816715,414
816716,410
816717,411
816718,416
816719,425
816720,423
816721,428
816722,433
816723,432
816724,432
816726,439
816727,439
816728,436
816729,428
816730,431
816731,436
816731,437
816732,443
816733,447
816734,444
816735,427
816736,420
816737,420
816738,429
816739,441
816740,443
816741,442
816743,434
816744,433
816745,433
816746,433
816747,436
816748,442
816749,454
816750,460
816751,452
816752,449
816753,452
816754,454
816755,449
816756,445
816757,448
816758,446
816759,458
816760,457
816761,458
816762,453
816763,452
816764,454
816765,450
816766,447
816768,444
816769,449
816770,458
816771,458
816772,458
816773,461
816773,464
816774,458
816775,432
816777,426
816778,436
816779,449
816780,451
816781,455
816782,450
816783,449
816784,454
816785,455
816786,457
816787,447
816788,443
816789,447
816790,446
816791,461
816792,466
816793,446
816794,437
816795,447
816796,452
816797,446
816798,442
816799,447
816800,462
816801,480
816802,480
816803,454
816804,441
816805,453
816806,470
816807,488
816808,495
816809,501
816811,487
816812,479
816814,485
816815,486
816816,478
816816,469
816817,465
816818,475
816819,480
816820,467
816821,459
816822,459
816823,475
816824,504
816825,504
816826,469
816827,469
816828,468
816829,475
816830,477
816831,472
816832,470
816833,482
816834,485
816835,473
816836,475
816837,474
816838,470
816839,471
816840,457
816841,461
816842,456
816843,453
816844,454
816845,448
816847,458
816848,482
816849,478
816850,464
816851,467
816852,473
816854,481
816855,486
816856,476
816857,476
816858,485
816859,488
816859,494
816860,488
816861,482
816862,475
816863,472
816864,474
816865,470
816866,481
816867,496
816868,501
816869,493
816870,492
816871,489
816872,488
816873,493
816874,470
816875,455
816876,450
816877,451
816878,457
816880,474
816881,468
816882,460
816883,460
816884,465
816885,469
816886,492
816887,488
816888,494
816889,491
816890,489
816891,482
816892,482
816893,475
816894,461
816896,456
816897,461
816898,465
816899,473
816900,489
816901,486
816902,472
816902,460
816903,449
816904,441
816905,444
816906,455
816907,462
816908,467
816909,468
816910,475
816911,484
816912,489
816914,479
816915,469
816916,463
816917,464
816918,474
816919,484
816920,479
816921,476
816922,476
816923,474
816924,473
816925,472
816926,481
816927,484
816928,483
816929,478
816930,483
816931,480
816932,471
816933,465
816934,464
816935,461
816936,455
816937,453
816939,461
816940,475
816941,472
816942,468
816943,465
816944,462
816944,466
816945,471
816946,476
816948,501
816949,505
816950,504
816951,504
816952,494
816953,488
816954,482
816955,480
816956,476
816957,475
816958,477
816959,483
816960,476
816961,466
816962,463
816963,468
816964,466
816965,458
816966,451
816967,453
816968,465
816969,473
816970,480
816971,480
816972,481
816973,477
816974,468
816975,466
816976,473
816977,485
816978,494
816979,494
816980,491
816982,496
816983,503
816985,514
816986,491
816987,470
816987,469
816988,476
816989,477
816990,478
816991,474
816992,473
816993,472
816994,468
816995,459
816996,458
816997,462
816998,472
816999,479
817000,478
817001,477
817002,472
817003,472
817004,472
817005,468
817006,471
817007,476
817008,473
817009,471
817010,475
817011,478
817012,477
817013,477
817014,468
817015,463
817017,487
817018,497
817019,493
817020,489
817021,489
817022,487
817024,485
817025,478
817026,478
817027,479
817028,479
817029,488
817030,491
817030,485
817031,485
817032,484
817033,478
817034,477
817035,474
817036,465
817037,454
817038,458
817039,461
817040,460
817041,462
817042,471
817043,484
817044,482
817045,482
817046,486
817047,483
817048,485
817049,475
817051,480
817052,489
817053,494
817054,479
817055,470
817056,471
817057,478
817058,487
817059,480
817060,483
817061,481
817062,483
817063,488
817064,485
817065,476
817067,476
817068,477
817069,481
817070,478
817071,476
817072,483
817072,492
817073,493
817074,489
817075,483
817076,473
817077,475
817078,480
817079,476
817080,478
817081,469
817082,465
817083,462
817085,458
817086,463
817087,464
817088,473
817089,478
817090,479
817091,483
817092,486
817093,485
817094,486
817095,475
817096,472
817097,478
817098,488
817099,484
817100,483
817101,487
817102,480
817103,472
817104,473
817105,471
817106,481
817107,497
817108,484
817110,485
817111,476
817112,476
817113,468
817114,466
817115,468
817115,473
817116,467
817118,475
817119,483
817120,488
817121,486
817122,488
817123,496
817124,500
817125,511
817126,521
817127,513
817128,505
817129,506
817130,502
817131,499
817132,494
817133,486
817134,484
817135,483
817136,481
817137,481
817138,485
817139,483
817140,484
817141,489
817142,496
817143,498
817144,490
817145,486
817146,485
817147,490
817148,495
817149,500
817150,499
817152,499
817153,505
817155,505
817156,510
817157,509
817158,503
817158,505
817159,497
817160,488
817161,487
817162,486
817163,484
817164,495
817165,503
817166,514
817167,526
817168,539
817169,542
817170,533
817171,530
817172,526
817173,516
817174,512
817175,518
817176,520
817177,518
817178,519
817179,511
817180,514
817181,514
817182,511
817183,506
817184,502
817185,497
817186,502
817188,515
817189,513
817190,503
817191,498
817192,492
817193,482
817195,474
817196,466
817197,474
817198,468
817199,471
817200,472
817200,469
817201,468
817202,470
817203,472
817204,469
817205,466
817206,456
817207,461
817208,469
817209,476
817210,474
817211,473
817212,471
817213,469
817214,467
817215,465
817216,463
817217,466
817218,464
817219,459
817220,463
817222,468
817223,472
817224,462
817225,457
817226,464
817227,469
817228,470
817229,465
817230,462
817231,468
817232,471
817233,468
817234,466
817235,470
817236,473
817238,473
817239,475
817240,471
817241,476
817242,479
817243,480
817243,477
817244,473
817245,481
817246,476
817247,481
817248,491
817249,491
817250,486
817251,475
817252,479
817253,480
817255,466
817256,468
817257,477
817258,479
817259,473
817260,475
817261,473
817262,463
817263,452
817264,443
817265,451
817266,469
817267,485
817268,494
817269,496
817270,491
817271,485
817272,482
817273,476
817274,482
817275,489
817276,496
817277,517
817278,536
817280,552
817281,563
817282,571
817283,579
817284,591
817285,614
817286,642
817286,674
817287,702
817289,747
817290,752
817291,746
817292,752
817293,764
817294,785
817295,829
817296,871
817297,911
817298,942
817299,970
817300,990
817301,990
817302,989
817303,989
817304,989
817305,988
817306,989
817307,989
817308,990
817309,965
817310,899
817311,816
817312,723
817313,629
817314,543
817315,476
817316,427
817317,393
817318,348
817319,308
817320,267
817321,254
817323,262
817324,260
817326,269
817327,278
817328,288
817328,304
817329,324
817330,342
817331,356
817332,362
817333,361
817334,371
817335,385
817336,398
817337,416
817338,419
817339,419
817340,422
817341,421
817342,419
817343,414
817344,407
817345,404
817346,408
817347,419
817348,421
817349,414
817350,398
817351,390
817352,380
817353,373
817354,376
817355,382
817356,397
817357,413
817359,410
817360,417
817361,419
817362,417
817363,414
817364,416
817366,432
817367,444
817368,452
817369,454
817370,450
817371,451
817371,456
817372,461
817373,457
817374,459
817375,450
817376,444
817377,451
817378,444
817379,440
817380,448
817381,457
817382,458
817383,456
817384,457
817385,466
817386,477
817387,481
817388,472
817389,464
817390,453
817392,449
817393,449
817394,447
817395,453
817396,459
817397,471
817398,467
817399,462
817400,459
817401,464
817402,461
817403,467
817404,470
817405,476
817406,483
817408,485
817409,482
817410,482
817411,482
817412,482
817413,479
817414,475
817414,476
817415,490
817416,495
817417,496
817418,486
817419,480
817420,490
817421,501
817422,500
817423,491
817424,478
817426,468
817427,470
817428,472
817429,477
817430,484
817431,486
817432,479
817433,480
817434,479
817435,480
817436,478
817437,490
817438,498
817439,499
817440,500
817441,501
817442,506
817443,512
817444,506
817445,514
817446,515
817447,504
817448,500
817449,500
817451,498
817452,503
817453,507
817454,508
817455,513
817456,519
817456,526
817457,537
817458,540
817460,547
817461,530
817462,520
817463,516
817464,510
817465,512
817466,517
817467,520
817468,523
817469,527
817470,534
817471,535
817472,525
817473,514
817474,514
817475,524
817476,538
817477,555
817478,542
817479,534
817480,536
817481,535
817482,536
817483,535
817484,538
817485,552
817486,553
817487,556
817488,556
817489,556
817490,551
817491,552
817492,543
817494,533
817495,537
817497,543
817498,559
817499,556
817499,548
817500,544
817501,537
817502,527
817503,522
817504,526
817505,537
817506,555
817507,559
817508,556
817509,558
817510,559
817511,561
817512,564
817513,565
817514,569
817515,566
817516,569
817517,577
817518,580
817519,578
817520,578
817521,576
817522,578
817523,572
817524,565
817525,560
817526,561
817527,559
817529,549
817530,547
817531,550
817532,552
817533,546
817534,541
817536,539
817537,543
817538,552
817539,552
817540,546
817541,541
817542,542
817542,538
817543,532
817544,521
817545,510
817546,505
817547,508
817548,515
817549,524
817550,523
817551,514
817552,504
817553,500
817554,503
817555,503
817556,509
817557,516
817558,518
817559,509
817560,498
817561,494
817563,488
817564,484
817565,482
817566,483
817567,478
817568,470
817569,463
817570,460
817571,450
817572,447
817573,445
817574,443
817575,446
817576,454
817577,449
817579,446
817580,446
817581,436
817582,420
817583,413
817584,413
817584,418
817585,426
817586,415
817587,406
817588,408
817589,407
817590,406
817591,410
817592,404
817593,399
817594,399
817595,394
817597,401
817598,396
817599,400
817600,413
817601,416
817602,412
817603,400
817604,394
817605,403
817606,403
817607,399
817608,395
817609,391
817610,386
817611,389
817612,384
817613,381
817614,383
817615,386
817616,396
817617,390
817618,391
817619,402
817620,403
817622,413
817623,413
817624,404
817625,403
817626,405
817627,410
817627,412
817628,414
817630,405
817631,394
817632,389
817633,393
817634,397
817635,400
817636,411
817637,406
817638,397
817639,404
817640,419
817641,430
817642,419
817643,410
817644,414
817645,418
817646,420
817647,421
817648,422
817649,423
817650,426
817651,424
817652,420
817653,418
817654,416
817655,414
817656,421
817657,417
817658,423
817659,432
817660,433
817661,432
817662,437
817664,434
817665,433
817667,427
817668,430
817669,436
817669,443
817670,440
817671,434
817672,423
817673,424
817674,441
817675,459
817676,472
817677,463
817678,456
817679,449
817680,435
817681,426
817682,430
817683,436
817684,442
817685,444
817686,453
817687,454
817688,454
817689,457
817690,464
817691,461
817692,453
817693,455
817694,452
817695,454
817696,465
817697,469
817698,462
817700,437
817701,443
817702,445
817703,453
817704,457
817705,459
817707,459
817708,455
817709,447
817710,450
817711,459
817712,466
817712,469
817713,466
817714,463
817715,463
817716,466
817717,447
817718,445
817719,453
817720,459
817721,458
817722,451
817723,453
817724,457
817725,466
817726,473
817727,472
817728,470
817729,456
817730,449
817731,455
817732,457
817734,453
817735,463
817736,477
817737,469
817738,459
817739,461
817740,462
817741,463
817742,464
817743,468
817744,469
817745,465
817746,467
817747,472
817748,475
817750,464
817751,460
817752,455
817753,449
817754,457
817755,461
817755,456
817756,462
817757,468
817758,483
817759,485
817760,479
817761,476
817762,474
817763,482
817764,495
817765,505
817767,480
817768,467
817769,460
817770,459
817771,450
817772,445
817773,451
817774,458
817775,464
817776,472
817777,466
817778,462
817779,466
817780,461
817781,459
817782,468
817783,466
817784,464
817785,471
817786,465
817787,466
817788,476
817789,483
817790,489
817792,487
817793,476
817794,478
817795,487
817796,487
817797,479
817798,459
817798,446
817799,453
817801,462
817802,463
817803,464
817804,458
817805,459
817806,467
817807,475
817808,470
817809,471
817810,473
817811,465
817812,456
817813,468
817814,466
817815,473
817816,472
817817,474
817818,476
817819,478
817820,477
817821,474
817822,470
817823,481
817824,488
817825,493
817826,490
817827,493
817828,488
817829,473
817830,459
817831,461
817832,464
817833,472
817835,474
817836,477
817838,480
817839,482
817840,488
817840,486
817841,469
817842,449
817843,471
817844,487
817845,494
817846,493
817847,484
817848,485
817849,486
817850,484
817851,474
817852,468
817853,470
817854,472
817855,477
817856,477
817857,476
817858,467
817859,465
817860,464
817861,470
817862,474
817863,476
817864,476
817865,490
817866,498
817867,503
817868,507
817869,497
817871,460
817872,457
817873,474
817874,476
817875,479
817876,476
817878,483
817879,485
817880,484
817881,475
817882,460
817883,457
817883,462
817884,462
817885,461
817886,464
817887,462
817888,459
817889,458
817890,461
817891,471
817892,484
817893,494
817894,495
817895,500
817896,496
817897,490
817898,491
817899,493
817900,494
817901,488
817902,493
817904,511
817905,514
817906,507
817907,496
817908,486
817909,470
817910,461
817911,449
817912,445
817913,447
817914,455
817915,478
817916,479
817917,482
817918,480
817920,479
817921,472
817922,468
817923,474
817924,485
817925,487
817926,491
817926,489
817927,484
817928,482
817929,478
817930,476
817931,479
817932,481
817933,491
817934,498
817935,494
817936,481
817938,502
817939,504
817940,505
817941,499
817942,491
817943,488
817944,479
817945,466
817946,467
817947,469
817948,472
817949,480
817950,480
817951,468
817952,457
817953,460
817954,473
817955,483
817956,477
817957,478
817958,479
817959,480
817960,483
817961,481
817963,482
817964,495
817965,512
817966,514
817967,512
817968,506
817968,500
817969,491
817970,482
817972,477
817973,480
817974,475
817975,486
817976,490
817977,491
817978,479
817979,468
817980,458
817981,462
817982,471
817983,476
817984,476
817985,478
817986,477
817987,476
817988,478
817989,481
817990,472
817991,464
817992,468
817993,475
817994,481
817995,491
817996,492
817997,494
817998,491
817999,493
818000,485
818001,476
818002,485
818003,488
818004,491
818006,486
818007,483
818009,485
818010,484
818011,486
818011,487
818012,487
818013,473
818014,464
818015,479
818016,480
818017,473
818018,471
818019,472
818020,471
818021,473
818022,487
818023,491
818024,492
818025,492
818026,487
818027,487
818028,485
818029,483
818030,483
818031,478
818032,484
818033,483
818034,475
818035,483
818036,479
818037,478
818038,485
818039,501
818041,496
818042,491
818043,492
818044,491
818045,484
818046,490
818048,477
818049,468
818050,464
818051,463
818052,488
818053,499
818054,497
818054,491
818055,494
818056,491
818057,492
818058,490
818059,484
818060,484
818061,481
818062,480
818063,487
818064,494
818065,495
818066,493
818067,489
818068,487
818069,483
818070,482
818071,483
818072,487
818073,486
818075,496
818076,490
818077,485
818078,488
818079,483
818080,478
818081,475
818082,479
818083,484
818084,491
818085,496
818086,494
818087,492
818088,490
818089,490
818091,483
818092,477
818093,476
818094,480
818095,479
818096,474
818096,478
818097,482
818098,480
818099,481
818100,483
818101,483
818102,484
818103,493
818104,500
818105,501
818106,502
818107,507
818109,504
818110,490
818111,486
818112,498
818113,505
818114,513
818115,515
818116,510
818117,512
818118,512
818119,512
818120,505
818121,500
818122,500
818123,506
818124,514
818125,511
818126,507
818127,496
818128,490
818129,483
818130,488
818131,507
818132,524
818134,534
818135,537
818136,529
818137,531
818138,531
818139,524
818139,520
818140,514
818142,526
818143,527
818144,519
818145,519
818146,527
818147,531
818148,530
818149,526
818150,516
818151,514
818152,519
818153,522
818154,528
818155,523
818156,515
818157,506
818158,500
818159,495
818160,482
818161,469
818162,471
818163,467
818164,466
818165,468
818166,474
818167,474
818168,469
818169,468
818170,465
818171,461
818172,452
818173,445
818174,471
818176,468
818177,463
818179,464
818180,462
818181,461
818182,468
818182,473
818183,478
818184,481
818185,486
818186,488
818187,493
818188,491
818189,485
818190,473
818191,471
818192,469
818193,467
818194,472
818195,475
818196,472
818197,457
818198,453
818199,455
818200,457
818201,459
818202,462
818203,476
818204,480
818205,482
818206,480
818207,475
818208,470
818209,465
818210,460
818212,458
818213,458
818214,481
818215,484
818216,483
818217,483
818219,480
818220,474
818221,473
818222,478
818223,488
818224,496
818224,486
818225,480
818226,481
818227,480
818228,480
818229,479
818230,475
818231,476
818232,472
818233,479
818234,498
818235,501
818236,497
818237,497
818238,503
818239,505
818240,512
818241,524
818242,531
818243,545
818244,558
818246,580
818247,589
818248,614
818249,654
818250,675
818251,689
818252,708
818253,738
818254,769
818255,779
818256,801
818257,829
818258,852
818259,873
818260,908
818262,945
818263,973
818264,990
818265,989
818266,989
818267,989
818267,989
818268,989
818269,989
818270,989
818271,989
818272,990
818273,943
818274,870
818275,783
818276,692
818277,605
818279,450
818280,402
818281,371
818282,342
818283,321
818284,307
818285,288
818286,281
818287,276
818288,273
818289,275
818290,278
818291,297
818292,314
818293,329
818294,351
818295,351
818296,352
818297,362
818298,369
818299,377
818300,380
818301,384
818302,393
818304,400
818305,398
818306,399
818307,399
818308,391
818309,390
818310,392
818310,399
818311,411
818313,426
818314,443
818315,441
818316,424
818317,417
818318,416
818319,414
818320,409
818321,408
818322,409
818323,427
818324,435
818325,437
818326,437
818327,439
818328,430
818329,419
818330,414
818331,412
818332,414
818333,431
818334,444
818335,447
818336,445
818337,446
818338,454
818339,457
818340,453
818341,457
818342,460
818343,462
818344,459
818345,454
818347,450
818348,444
818350,434
818351,435
818352,445
818352,452
818353,457
818354,467
818355,472
818356,467
818357,468
818358,466
818359,459
818360,449
818361,449
818362,451
818363,460
818364,467
818365,474
818366,483
818367,486
818368,488
818369,490
818370,480
818371,468
818372,454
818373,465
818374,466
818375,461
818376,469
818377,474
818378,468
818379,464
818380,470
818381,482
818383,491
818384,485
818385,481
818386,474
818387,476
818388,483
818390,486
818391,482
818392,479
818393,480
818394,486
818395,486
818395,489
818396,486
818397,481
818398,485
818399,487
818400,494
818401,501
818402,502
818403,507
818404,506
818405,511
818406,513
818407,510
818408,501
818409,495
818410,497
818411,505
818412,514
818413,530
818414,522
818416,513
818417,510
818418,504
818419,499
818420,505
818421,520
818422,525
818423,524
818424,512
818425,509
818426,507
818427,513
818428,538
818429,542
818430,528
818432,509
818433,502
818434,518
818435,529
818436,534
818437,537
818438,534
818438,527
818439,524
818440,524
818441,530
818442,539
818443,549
818444,550
818445,547
818446,546
818447,535
818448,526
818450,528
818451,542
818452,548
818453,558
818454,559
818455,555
818456,543
818457,549
818458,550
818459,553
818460,555
818461,549
818462,545
818463,550
818464,549
818465,550
818466,560
818467,562
818468,552
818469,542
818470,536
818471,533
818472,539
818473,566
818475,568
818476,566
818477,562
818478,559
818479,560
818480,559
818480,557
818481,559
818482,560
818484,570
818485,570
818486,570
818487,567
818488,551
818489,537
818490,533
818491,536
818492,548
818493,557
818494,546
818495,535
818496,530
818497,529
818498,535
818499,543
818500,543
818501,559
818502,570
818503,573
818504,569
818505,550
818506,537
818507,531
818508,528
818509,525
818510,531
818511,533
818512,529
818513,529
818514,523
818515,519
818516,512
818518,503
818519,493
818521,503
818522,512
818523,508
818523,502
818524,498
818525,494
818526,482
818527,468
818528,457
818529,451
818530,452
818531,461
818532,473
818533,476
818534,467
818535,465
818536,459
818537,451
818538,441
818539,441
818540,454
818541,457
818542,451
818543,449
818544,448
818545,429
818546,412
818547,407
818548,407
818549,418
818550,428
818551,423
818553,437
818554,437
818555,431
818556,431
818557,422
818558,408
818560,394
818561,395
818562,394
818563,396
818564,399
818565,397
818566,390
818566,392
818567,394
818568,397
818569,398
818570,398
818571,399
818572,403
818573,414
818574,413
818575,412
818576,409
818577,405
818578,400
818579,388
818580,375
818581,377
818582,384
818583,381
818584,382
818585,388
818587,396
818588,382
818589,373
818590,387
818591,399
818592,407
818593,414
818594,411
818595,412
818596,413
818597,403
818598,400
818599,395
818600,397
818601,400
818603,412
818604,406
818605,401
818606,399
818607,402
818608,402
818608,402
818609,399
818610,402
818611,417
818612,426
818613,427
818614,428
818615,424
818616,428
818617,433
818618,434
818619,431
818621,435
818622,438
818623,432
818624,439
818625,443
818626,440
818627,436
818628,431
818629,432
818630,434
818631,433
818632,441
818633,445
818634,442
818635,435
818636,431
818637,420
818638,409
818639,409
818640,423
818641,434
818642,443
818643,447
818644,448
818646,447
818647,445
818648,438
818649,426
818650,424
818651,433
818651,440
818652,445
818654,443
818655,437
818656,441
818657,442
818658,436
818659,435
818660,444
818661,453
818662,459
818663,458
818664,465
818665,469
818666,471
818667,469
818668,462
818669,445
818670,436
818671,435
818672,442
818673,440
818674,442
818675,452
818676,448
818677,443
818678,456
818679,449
818680,452
818681,461
818682,458
818683,454
818684,456
818685,469
818686,469
818688,460
818689,449
818691,444
818692,455
818693,473
818693,461
818694,463
818695,463
818696,456
818697,447
818698,444
818699,460
818700,468
818701,468
818702,469
818703,466
818704,465
818705,473
818706,470
818707,464
818708,462
818709,458
818710,457
818711,455
818712,457
818713,449
818714,445
818715,442
818716,443
818717,444
818718,445
818719,451
818720,463
818721,471
818722,468
818724,460
818725,462
818726,460
818727,463
818728,462
818729,463
818731,461
818732,461
818733,474
818734,484
818735,484
818736,474
818736,466
818737,459
818738,450
818739,448
818740,455
818741,467
818742,478
818743,479
818744,469
818745,456
818746,457
818747,464
818748,460
818749,459
818750,458
818751,455
818752,459
818753,451
818754,449
818755,449
818756,452
818758,449
818759,459
818760,468
818761,476
818762,477
818763,471
818764,468
818765,463
818766,463
818767,470
818768,474
818769,473
818770,469
818771,461
818772,447
818774,450
818775,471
818776,475
818777,472
818778,463
818779,458
818779,456
818780,456
818781,470
818782,482
818783,480
818784,472
818785,464
818786,449
818787,448
818788,446
818789,443
818791,460
818792,477
818793,470
818794,467
818795,465
818796,468
818797,472
818798,457
818799,460
818800,467
818801,467
818802,466
818803,471
818804,477
818805,475
818806,467
818807,457
818808,450
818809,460
818810,472
818811,475
818812,473
818813,460
818814,459
818816,463
818817,466
818818,466
818819,464
818820,466
818821,466
818822,457
818822,451
818823,462
818825,485
818826,476
818827,470
818828,466
818829,469
818830,472
818831,470
818832,476
818833,474
818834,468
818835,463
818836,465
818837,464
818838,461
818839,462
818840,461
818841,458
818842,462
818843,461
818844,460
818845,465
818846,470
818847,468
818848,461
818849,457
818850,453
818851,455
818852,466
818853,468
818854,465
818855,459
818856,459
818857,471
818859,468
818860,471
818862,493
818863,492
818864,486
818864,477
818865,472
818866,470
818867,465
818868,467
818869,476
818870,476
818871,482
818872,494
818873,482
818874,467
818875,462
818876,460
818877,458
818878,457
818879,460
818880,457
818881,459
818882,459
818883,460
818884,464
818885,466
818886,454
818887,450
818888,463
818889,467
818890,466
818891,470
818892,462
818893,454
818895,470
818896,459
818897,454
818898,457
818899,474
818900,481
818902,485
818903,481
818904,476
818905,475
818906,471
818907,474
818907,476
818908,474
818909,470
818910,463
818911,466
818912,473
818913,473
818914,472
818915,462
818916,454
818917,456
818918,461
818919,469
818920,467
818921,473
818922,472
818923,467
818924,472
818925,475
818926,470
818928,464
818929,468
818930,473
818931,484
818932,482
818933,472
818934,473
818935,477
818936,480
818937,485
818938,481
818939,482
818940,490
818941,481
818942,470
818944,464
818945,462
818946,456
818947,447
818948,442
818949,445
818950,444
818950,447
818951,466
818952,463
818953,458
818954,452
818955,454
818956,451
818957,448
818958,457
818959,472
818960,475
818962,461
818963,451
818964,455
818965,466
818966,474
818967,468
818968,468
818969,475
818970,475
818971,482
818972,492
818973,486
818974,477
818975,472
818976,470
818977,464
818978,460
818979,469
818980,478
818981,472
818982,463
818983,458
818984,458
818985,452
818987,446
818988,446
818989,455
818990,472
818991,484
818992,498
818992,491
818993,486
818994,478
818996,475
818997,467
818998,464
818999,473
819000,484
819001,490
819002,490
819003,485
819004,476
819005,471
819006,474
819007,474
819008,476
819009,480
819010,489
819011,494
819012,488
819013,485
819014,472
819015,452
819016,440
819017,442
819018,451
819019,456
819020,454
819021,461
819022,473
819023,483
819024,485
819025,479
819026,475
819027,466
819028,457
819030,455
819031,456
819033,464
819034,468
819035,470
819035,476
819036,474
819037,460
819038,456
819039,460
819040,463
819041,463
819042,472
819043,486
819044,489
819045,487
819046,483
819047,478
819048,474
819049,473
819050,466
819051,463
819052,457
819053,455
819054,461
819055,471
819056,471
819057,471
819058,474
819059,480
819060,482
819061,486
819062,493
819063,501
819065,489
819066,481
819067,478
819068,483
819069,491
819070,494
819072,502
819073,501
819074,503
819075,492
819076,470
819077,462
819078,463
819078,468
819079,475
819080,481
819081,488
819082,481
819083,477
819084,473
819085,478
819086,480
819087,480
819088,482
819089,490
819090,497
819091,506
819092,500
819093,499
819094,494
819095,491
819096,491
819097,492
819099,503
819100,508
819101,510
819102,514
819103,517
819104,512
819105,500
819106,483
819107,485
819108,491
819109,501
819110,505
819111,513
819112,509
819113,500
819115,493
819116,489
819117,495
819118,489
819119,480
819120,486
819120,494
819121,500
819122,503
819123,519
819124,529
819125,525
819126,517
819127,519
819128,518
819129,511
819130,502
819131,497
819133,488
819134,486
819135,479
819136,473
819137,465
819138,462
819139,465
819140,460
819141,459
819142,472
819143,471
819144,472
819145,462
819146,449
819147,453
819148,459
819149,444
819150,440
819151,446
819152,450
819153,452
819154,448
819155,449
819156,449
819158,447
819159,456
819160,465
819161,474
819162,470
819163,460
819163,465
819164,477
819166,464
819167,461
819168,466
819169,466
819170,468
819171,469
819172,471
819173,469
819174,469
819175,464
819176,443
819177,428
819178,442
819179,456
819180,463
819181,468
819182,466
819183,469
819184,472
819185,469
819186,461
819187,456
819188,458
819189,469
819190,486
819191,481
819192,474
819193,468
819194,459
819195,454
819196,455
819197,459
819198,465
819200,464
819201,466
819203,458
819204,454
819205,458
819206,460
819206,454
819207,446
819208,445
819209,449
819210,473
819211,490
819212,499
819213,508
819214,525
819215,548
819216,561
819217,584
819218,601
819219,612
819220,621
819221,637
819222,657
819223,679
819224,696
819225,723
819226,744
819227,751
819228,761
819229,772
819230,796
819231,824
819232,865
819233,910
819234,950
819236,990
819237,989
819238,989
819239,989
819240,988
819241,989
819243,989
819244,989
819245,990
819246,965
819247,881
819248,804
819248,734
819249,660
819250,583
819251,493
819252,427
819253,377
819254,340
819255,314
819256,288
819257,271
819258,269
819259,278
819260,274
819261,276
819262,282
819263,282
819264,282
819265,287
819266,292
819267,308
819268,325
819270,366
819271,375
819272,379
819273,380
819274,385
819275,386
819276,385
819277,381
819278,387
819279,391
819280,398
819281,400
819282,401
819283,399
819284,389
819286,389
819287,384
819288,385
819289,385
819290,395
819291,417
819291,417
819292,416
819293,418
819294,406
819295,398
819296,402
819297,409
819298,418
819299,423
819300,426
819301,427
819303,418
819304,412
819305,404
819306,405
819307,414
819308,417
819309,415
819310,423
819311,422
819312,426
819313,438
819314,447
819315,443
819316,435
819317,440
819318,453
819319,456
819320,449
819321,450
819322,457
819323,460
819324,457
819325,456
819326,461
819328,464
819329,468
819330,469
819331,470
819332,466
819333,466
819334,469
819334,468
819335,460
819337,456
819338,464
819339,464
819340,452
819341,447
819342,445
819343,440
819344,443
819345,441
819346,441
819347,440
819348,441
819349,450
819350,463
819351,468
819352,477
819353,484
819354,487
819355,485
819356,487
819357,497
819358,502
819359,504
819360,506
819361,510
819362,509
819363,509
819364,506
819365,502
819366,498
819367,493
819368,486
819369,486
819371,479
819372,472
819374,460
819375,466
819376,478
819376,484
819377,500
819378,511
819379,518
819380,512
819381,502
819382,495
819383,493
819384,494
819385,492
819386,499
819387,519
819388,521
819389,522
819390,527
819391,522
819392,512
819393,514
819394,518
819395,518
819396,519
819397,524
819398,529
819399,532
819400,530
819401,525
819402,524
819403,520
819404,509
819405,505
819407,517
819408,522
819409,534
819410,535
819411,531
819412,523
819414,521
819415,528
819416,535
819417,538
819418,548
819419,554
819419,559
819420,562
819421,560
819422,557
819423,552
819424,549
819425,543
819426,535
819427,532
819428,531
819429,548
819430,553
819431,559
819432,559
819433,562
819434,564
819435,557
819436,552
819437,554
819438,567
819440,580
819441,582
819442,578
819443,564
819444,560
819445,556
819446,555
819447,558
819448,558
819449,565
819450,559
819451,564
819452,568
819453,565
819454,568
819456,569
819457,569
819458,575
819459,573
819460,570
819461,567
819461,566
819462,567
819463,570
819464,560
819465,545
819466,542
819467,545
819468,548
819469,563
819470,560
819471,552
819472,546
819474,546
819475,534
819476,526
819477,537
819478,542
819479,540
819480,542
819481,547
819482,543
819483,529
819484,518
819485,514
819486,520
819487,522
819488,526
819489,531
819490,519
819491,515
819492,512
819493,517
819494,514
819495,508
819496,499
819497,499
819499,506
819500,505
819501,500
819502,498
819503,495
819504,490
819504,483
819505,471
819506,464
819508,462
819509,479
819510,480
819511,477
819512,471
819513,463
819514,452
819515,441
819516,440
819517,452
819518,455
819519,455
819520,452
819521,445
819522,430
819523,424
819524,421
819525,416
819526,418
819527,427
819528,423
819529,427
819530,431
819531,428
819532,421
819533,413
819534,404
819535,409
819536,413
819537,422
819538,428
819539,421
819540,416
819542,409
819543,404
819545,398
819546,399
819547,398
819547,393
819548,397
819549,408
819550,407
819551,406
819552,411
819553,409
819554,408
819555,414
819556,415
819557,419
819558,417
819559,411
819560,410
819561,408
819562,397
819563,393
819564,391
819565,400
819566,404
819567,404
819568,398
819569,396
819570,403
819571,405
819572,406
819573,408
819574,410
819575,404
819577,420
819578,432
819579,434
819580,432
819581,425
819582,420
819584,420
819585,423
819586,428
819587,435
819588,454
819589,453
819590,449
819590,436
819591,434
819592,435
819593,437
819594,435
819595,441
819596,451
819597,454
819598,456
819599,465
819600,462
819601,456
819602,442
819603,438
819604,443
819605,454
819606,465
819607,466
819608,467
819609,475
819611,446
819612,438
819613,442
819614,451
819615,449
819616,460
819617,469
819618,466
819619,462
819620,461
819621,464
819622,460
819623,456
819624,456
819625,456
819627,469
819628,475
819629,476
819630,477
819631,467
819632,459
819632,456
819633,456
819634,458
819635,455
819636,456
819637,465
819638,476
819639,477
819640,476
819641,480
819642,481
819643,476
819645,464
819646,464
819647,464
819648,471
819649,479
819650,469
819651,464
819652,476
819653,482
819654,496
819655,495
819656,490
819657,490
819658,497
819659,500
819660,500
819661,489
819662,466
819663,462
819664,462
819665,460
819666,464
819667,463
819668,465
819670,467
819671,467
819672,471
819673,469
819674,460
819675,454
819675,464
819676,482
819678,501
819679,507
819680,509
819681,505
819682,498
819683,494
819684,488
819685,480
819686,472
819687,483
819688,509
819689,521
819690,519
819691,517
819692,509
819693,496
819694,487
819695,487
819696,490
819697,484
819698,490
819699,493
819700,500
819701,504
819702,507
819703,500
819704,477
819705,463
819706,464
819707,467
819708,482
819709,488
819710,496
819712,500
819713,495
819715,497
819716,494
819717,494
819718,500
819718,501
819719,497
819720,502
819721,506
819722,500
819723,494
819724,488
819725,489
819726,494
819727,486
819728,487
819729,479
819730,479
819731,484
819732,490
819733,490
819734,479
819735,484
819736,501
819737,501
819738,509
819739,513
819740,504
819741,501
819742,498
819743,495
819744,485
819745,478
819746,484
819748,506
819749,507
819750,501
819751,486
819752,477
819753,475
819755,468
819756,464
819757,466
819758,471
819759,481
819760,488
819760,491
819761,495
819762,489
819763,494
819764,496
819765,505
819766,517
819767,524
819768,532
819769,530
819770,520
819771,508
819772,507
819773,504
819774,491
819775,497
819776,514
819777,514
819778,513
819779,513
819780,511
819782,499
819783,498
819784,491
819785,482
819786,480
819787,488
819788,500
819789,498
819790,494
819791,496
819792,493
819793,491
819794,496
819795,500
819796,499
819798,500
819799,496
819800,497
819801,493
819802,489
819803,489
819803,485
819804,486
819805,492
819806,502
819807,510
819808,522
819809,524
819810,517
819811,504
819812,500
819813,501
819815,500
819816,503
819817,504
819818,505
819819,505
819820,507
819821,507
819822,507
819823,504
819824,503
819825,499
819826,494
819827,493
819828,500
819829,500
819830,500
819831,500
819832,499
819833,497
819834,494
819835,491
819836,496
819837,504
819838,500
819840,491
819841,491
819842,497
819843,501
819844,496
819845,496
819846,499
819846,504
819847,507
819849,515
819850,518
819851,527
819852,526
819853,519
819854,503
819855,499
819856,503
819857,505
819858,512
819859,516
819860,512
819861,506
819862,505
819863,502
819864,496
819865,500
819866,511
819867,510
819868,510
819869,509
819870,506
819871,496
819872,492
819873,494
819874,501
819875,512
819876,515
819877,519
819878,527
819879,525
819880,516
819881,501
819883,499
819884,504
819886,507
819887,502
819888,515
819888,528
819889,527
819890,518
819891,510
819892,495
819893,483
819894,475
819895,486
819896,500
819897,509
819898,516
819899,515
819900,512
819901,505
819902,496
819903,487
819904,487
819905,488
819906,488
819907,495
819908,509
819909,512
819910,503
819911,500
819912,503
819913,500
819914,494
819915,498
819916,498
819917,504
819919,507
819920,509
819921,508
819922,506
819923,509
819924,505
819926,509
819927,510
819928,518
819929,520
819930,517
819931,517
819931,514
819932,512
819933,502
819934,495
819935,500
819936,508
819937,512
819938,512
819939,515
819940,516
819941,514
819942,507
819943,502
819944,503
819945,513
819946,522
819947,532
819948,523
819949,507
819950,493
819952,496
819953,492
819954,491
819955,499
819956,502
819957,512
819958,510
819959,514
819960,520
819961,518
819962,508
819963,500
819964,492
819965,498
819966,509
819968,517
819969,506
819970,500
819971,503
819972,512
819973,513
819974,498
819974,493
819975,497
819976,500
819977,509
819978,511
819979,515
819980,522
819981,526
819982,524
819983,525
819984,522
819986,518
819987,525
819988,525
819989,522
819990,507
819991,507
819992,503
819993,494
819994,495
819995,513
819996,520
819997,524
819998,519
819999,523
820000,528
820001,522
820002,513
820003,507
820004,520
820005,527
820006,528
820007,541
820008,537
820009,537
820011,541
820012,534
820013,520
820014,514
820015,523
820016,532
820016,529
820017,535
820018,536
820020,520
820021,518
820022,521
820023,526
820024,542
820025,550
820026,547
820027,557
820028,544
820029,539
820030,544
820031,547
820032,552
820033,547
820034,546
820035,545
820036,551
820037,550
820038,551
820039,545
820040,542
820041,536
820042,531
820043,528
820044,524
820045,529
820046,536
820047,543
820048,536
820049,529
820050,520
820051,518
820052,517
820054,512
820055,511
820057,520
820058,521
820059,514
820059,510
820060,504
820061,492
820062,488
820063,474
820064,474
820065,475
820066,476
820067,486
820068,494
820069,486
820070,477
820071,466
820072,463
820073,469
820074,475
820075,482
820076,495
820077,508
820078,511
820079,513
820080,507
820081,499
820082,500
820083,498
820084,494
820085,488
820086,483
820087,484
820089,472
820090,472
820091,473
820092,476
820093,476
820094,481
820096,496
820097,497
820098,498
820099,495
820100,481
820101,479
820101,485
820102,482
820103,485
820104,499
820105,502
820106,505
820107,510
820108,513
820109,519
820110,521
820111,524
820112,524
820113,510
820114,499
820115,502
820116,502
820117,510
820118,512
820119,515
820120,510
820121,504
820123,503
820124,507
820125,511
820126,515
820127,518
820128,501
820129,498
820130,505
820131,513
820132,519
820133,524
820134,547
820135,569
820136,582
820137,597
820139,613
820140,630
820141,649
820142,666
820143,676
820144,695
820144,718
820145,741
820146,767
820147,788
820148,799
820149,818
820150,842
820151,876
820152,918
820153,949
820154,973
820155,990
820157,989
820158,989
820159,989
820160,989
820161,989
820162,989
820163,990
820164,990
820165,935
820166,878
820167,809
820168,728
820169,636
820170,549
820171,467
820172,409
820173,371
820174,344
820175,326
820176,315
820177,304
820178,300
820179,317
820180,333
820182,334
820183,315
820184,309
820185,314
820186,326
820187,346
