0.000:1,24
0.000:2,24
0.000:3,24
0.000:4,24
0.001:5,24
0.001:5,24
0.001:6,24
0.003:7,25
0.005:8,970
0.005:9,969
0.006:10,970
0.006:11,970
0.006:12,970
0.006:13,970
0.006:14,970
0.006:15,970
0.006:16,21
0.007:17,23
0.007:18,23
0.007:19,24
0.007:20,24
0.007:21,24
0.007:22,24
0.007:23,24
0.007:24,24
0.008:25,23
0.008:26,24
0.008:27,25
0.009:28,970
0.010:29,970
0.010:30,975
0.014:31,970
0.014:32,970
0.014:33,978
0.015:34,970
0.015:35,969
0.015:36,18
0.015:37,21
0.015:38,23
0.015:39,24
0.016:40,24
0.016:41,24
0.016:43,24
0.016:44,24
0.016:45,24
0.016:46,24
0.016:47,24
0.017:48,24
0.017:48,970
0.017:49,970
0.017:50,978
0.017:51,972
0.017:52,970
0.017:53,978
0.018:54,969
0.018:55,969
0.018:56,283
0.018:57,21
0.018:58,23
0.018:59,24
0.018:60,24
0.018:61,24
0.019:62,24
0.019:63,24
0.019:64,24
0.019:65,24
0.019:66,24
0.019:67,25
0.019:68,969
0.020:69,969
0.020:70,976
0.020:71,972
0.020:72,970
0.020:73,972
0.020:74,969
0.020:75,969
0.021:76,138
0.021:77,21
0.021:78,23
0.021:79,24
0.021:80,24
0.021:81,24
0.021:82,24
0.021:83,24
0.022:84,24
0.022:86,24
0.022:87,24
0.022:88,25
0.022:89,969
0.022:90,969
0.022:91,972
0.023:91,970
0.023:92,970
0.023:93,987
0.023:94,969
0.023:95,969
0.023:96,20
0.023:97,22
0.023:98,24
0.024:99,24
0.024:100,24
0.024:101,24
0.024:102,24
0.024:103,24
0.025:104,24
0.025:105,24
0.026:106,24
0.026:107,26
0.027:108,970
0.029:109,969
0.029:110,973
0.030:111,970
0.030:112,969
0.030:113,981
0.031:114,970
0.031:115,970
0.031:116,247
0.031:117,21
0.032:118,23
0.032:119,24
0.032:120,24
0.032:121,24
0.032:122,24
0.032:123,24
0.032:124,24
0.033:125,24
0.033:126,23
0.033:128,26
0.033:129,969
0.033:130,970
0.033:131,974
0.034:132,970
0.034:133,970
0.034:133,826
0.034:134,970
0.034:135,970
0.034:136,611
0.034:137,20
0.035:138,22
0.035:139,24
0.035:140,24
0.035:141,24
0.035:142,24
0.035:143,24
0.035:144,24
0.036:145,24
0.036:146,24
0.036:147,26
0.036:148,969
0.036:149,969
0.036:150,975
0.036:151,970
0.037:152,970
0.037:153,981
0.037:154,970
0.037:155,970
0.037:156,18
0.037:157,21
0.038:158,23
0.038:159,24
0.038:160,24
0.038:161,24
0.038:162,24
0.038:163,24
0.038:164,24
0.039:165,24
0.039:166,24
0.039:167,26
0.039:168,969
0.039:169,969
0.039:171,976
0.039:172,971
0.040:173,970
0.040:174,985
0.040:175,969
0.040:176,970
0.040:176,400
0.040:177,20
0.040:178,23
0.041:179,24
0.041:180,24
0.041:181,24
0.041:182,24
0.042:183,24
0.042:184,24
0.044:185,24
0.047:186,24
0.048:187,26
0.049:188,970
0.049:189,970
0.049:190,971
0.049:191,970
0.049:192,970
0.050:193,988
0.050:194,969
0.050:195,970
0.050:196,792
0.050:197,20
0.050:198,22
0.050:199,23
0.051:200,24
0.051:201,24
0.051:202,24
0.051:203,24
0.051:204,24
0.051:205,24
0.051:206,24
0.052:207,26
0.052:208,969
0.052:209,969
0.052:210,972
0.052:211,970
0.052:212,970
0.053:214,921
0.053:215,969
0.053:216,970
0.053:217,591
0.053:218,20
0.053:219,23
0.053:219,23
0.054:220,24
0.054:221,24
0.054:222,24
0.054:223,24
0.054:224,24
0.054:225,24
0.054:226,24
0.055:227,26
0.055:228,969
0.055:229,969
0.055:230,974
0.055:231,970
0.055:232,972
0.055:233,955
0.056:234,969
0.056:235,970
0.056:236,410
0.056:237,20
0.056:238,23
0.056:239,24
0.057:240,24
0.057:241,24
0.057:242,24
0.057:243,25
0.057:244,24
0.057:245,24
0.057:246,24
0.058:247,26
0.058:248,969
0.058:249,969
0.059:250,971
0.059:251,970
0.060:252,970
0.060:253,902
0.061:254,969
0.062:256,969
0.062:257,708
0.063:258,20
0.063:259,23
0.064:260,24
0.064:261,24
0.064:261,24
0.064:262,24
0.064:263,24
0.064:264,24
0.065:265,24
0.065:266,24
0.065:267,26
0.065:268,969
0.065:269,970
0.065:270,977
0.066:271,973
0.066:272,970
0.066:273,426
0.066:274,969
0.066:275,969
0.066:276,80
0.066:277,21
0.067:278,23
0.067:279,24
0.067:280,24
0.067:281,24
0.067:282,24
0.067:283,24
0.067:284,24
0.068:285,24
0.068:286,24
0.068:287,26
0.068:288,969
0.068:289,969
0.068:290,974
0.068:291,970
0.069:292,970
0.069:293,922
0.069:294,969
0.069:295,970
0.069:296,489
0.069:297,20
0.069:299,23
0.070:300,24
0.070:301,24
0.070:302,24
0.070:303,24
0.070:304,24
0.070:304,24
0.070:305,24
0.071:306,24
0.071:307,26
0.071:308,969
0.071:309,969
0.071:310,973
0.071:311,969
0.072:312,970
0.072:313,907
0.072:314,969
0.072:315,970
0.072:316,83
0.072:317,21
0.072:318,23
0.073:319,24
0.073:320,24
0.073:321,24
0.073:322,24
0.073:323,24
0.073:324,24
0.073:325,24
0.074:326,24
0.074:327,24
0.074:328,969
0.074:329,969
0.074:330,971
0.075:331,971
0.075:332,970
0.075:333,716
0.076:334,970
0.076:335,970
0.076:336,19
0.076:337,22
0.078:338,24
0.079:339,24
0.079:340,24
0.080:342,24
0.080:343,24
0.081:344,24
0.081:345,24
0.081:346,24
0.081:347,24
0.081:347,24
0.081:348,969
0.081:349,969
0.082:350,976
0.082:351,970
0.082:352,970
0.082:353,308
0.082:354,970
0.082:355,970
0.083:356,25
0.083:357,25
0.083:358,25
0.083:359,24
0.083:360,24
0.083:361,24
0.083:362,24
0.084:363,24
0.084:364,23
0.084:365,23
0.084:366,23
0.084:367,23
0.084:368,969
0.084:369,969
0.085:370,972
0.085:371,970
0.085:372,970
0.085:373,299
0.085:374,969
0.085:375,970
0.086:376,23
0.086:377,24
0.086:378,24
0.086:379,24
0.086:380,24
0.086:381,24
0.086:382,24
0.086:384,23
0.087:385,23
0.087:386,24
0.087:387,23
0.087:388,23
0.087:389,970
0.087:389,970
0.088:390,971
0.088:391,970
0.088:392,970
0.088:393,453
0.088:394,969
0.088:395,970
0.088:396,19
0.089:397,22
0.089:398,23
0.089:399,24
0.089:400,24
0.089:401,24
0.089:402,24
0.089:403,24
0.090:404,24
0.090:405,24
0.090:406,23
0.090:407,23
0.090:408,970
0.090:409,970
0.090:410,973
0.091:411,970
0.091:412,972
0.092:413,150
0.092:414,969
0.092:415,969
0.093:416,210
0.094:417,21
0.095:418,22
0.095:419,23
0.095:420,24
0.096:421,24
0.096:422,24
0.096:423,24
0.097:424,24
0.097:425,24
0.097:427,23
0.097:428,23
0.097:429,970
0.097:430,970
0.098:431,970
0.098:432,970
0.098:432,970
0.098:433,18
0.098:434,970
0.098:435,970
0.098:436,991
0.099:437,19
0.099:438,22
0.099:439,23
0.099:440,24
0.099:441,24
0.099:442,24
0.099:443,24
0.100:444,24
0.100:445,24
0.100:446,24
0.100:447,23
0.100:448,969
0.100:449,969
0.100:450,973
0.101:451,970
0.101:452,970
0.101:453,156
0.101:454,969
0.101:455,970
0.101:456,747
0.101:457,20
0.102:458,22
0.102:459,24
0.102:460,24
0.102:461,24
0.102:462,24
0.102:463,24
0.102:464,24
0.103:465,24
0.103:466,24
0.103:467,23
0.103:468,969
0.103:470,969
0.103:471,974
0.103:472,970
0.104:473,970
0.104:474,139
0.104:475,969
0.104:475,970
0.104:476,19
0.104:477,22
0.105:478,24
0.105:479,24
0.105:480,24
0.105:481,24
0.105:482,24
0.105:483,24
0.105:484,24
0.105:485,24
0.106:486,24
0.106:487,23
0.106:488,969
0.106:489,969
0.106:490,973
0.106:491,970
0.107:492,970
0.107:493,18
0.107:494,969
0.108:495,970
0.109:496,25
0.109:497,25
0.110:498,24
0.110:499,24
0.111:500,24
0.113:501,24
0.114:502,24
0.114:503,23
0.115:504,24
0.115:505,24
0.115:506,23
0.116:507,23
0.116:508,969
0.116:509,970
0.117:510,970
0.117:512,969
0.117:513,970
0.118:514,18
0.118:515,970
0.118:516,970
0.119:517,25
0.119:517,25
0.119:518,24
0.119:519,24
0.120:520,24
0.120:521,24
0.120:522,24
0.121:523,23
0.121:524,23
0.121:525,23
0.121:526,23
0.121:527,23
0.121:528,969
0.122:529,970
0.122:530,974
0.122:531,970
0.122:532,970
0.122:533,17
0.122:534,969
0.123:535,970
0.123:536,25
0.123:537,24
0.123:538,24
0.123:539,23
0.124:540,24
0.124:541,23
0.124:542,23
0.125:543,23
0.125:544,23
0.125:545,23
0.126:546,23
0.126:547,23
0.127:548,970
0.127:549,970
0.129:550,973
0.130:551,970
0.130:552,970
0.131:553,17
0.131:555,970
0.131:556,969
0.131:557,25
0.131:558,24
0.132:559,24
0.132:560,24
0.132:560,23
0.132:561,24
0.132:562,23
0.132:563,23
0.132:564,23
0.133:565,23
0.133:566,23
0.133:567,23
0.133:568,970
0.133:569,969
0.133:570,975
0.133:571,970
0.134:572,970
0.134:573,22
0.134:574,970
0.134:575,969
0.134:576,20
0.134:577,22
0.135:578,23
0.135:579,23
0.135:580,23
0.135:581,23
0.135:582,23
0.135:583,23
0.135:584,23
0.136:585,23
0.136:586,23
0.136:587,23
0.136:588,969
0.136:589,969
0.136:590,976
0.136:591,974
0.137:592,969
0.137:593,19
0.137:594,970
0.137:595,970
0.137:596,854
0.137:598,19
0.137:599,22
0.138:600,23
0.138:601,23
0.138:602,23
0.138:603,23
0.138:603,23
0.138:604,23
0.139:605,23
0.139:606,23
0.139:607,24
0.139:608,969
0.139:609,969
0.139:610,974
0.139:611,972
0.140:612,970
0.140:613,19
0.140:614,969
0.140:615,970
0.140:616,19
0.140:617,22
0.141:618,23
0.141:619,24
0.141:620,24
0.142:621,24
0.142:622,23
0.143:623,23
0.143:624,23
0.143:625,23
0.146:626,23
0.147:627,26
0.147:628,969
0.148:629,969
0.148:630,970
0.148:631,970
0.148:632,970
0.149:633,19
0.149:634,969
0.150:635,969
0.150:636,319
0.150:637,20
0.151:638,22
0.151:640,23
0.151:641,24
0.152:642,24
0.152:643,24
0.153:644,23
0.153:645,23
0.154:645,23
0.154:646,23
0.154:647,26
0.155:648,969
0.155:649,970
0.155:650,970
0.155:651,970
0.155:652,970
0.155:653,19
0.156:654,970
0.156:655,970
0.157:656,684
0.157:657,20
0.157:658,22
0.158:659,23
0.158:660,23
0.159:661,24
0.160:662,24
0.162:663,24
0.163:664,23
0.164:665,23
0.164:666,23
0.165:667,23
0.165:668,969
0.165:669,969
0.165:670,973
0.165:671,970
0.165:672,970
0.166:673,21
0.166:674,970
0.166:675,970
0.166:676,25
0.166:677,25
0.166:678,24
0.167:679,24
0.167:680,24
0.167:681,24
0.167:683,23
0.167:684,23
0.167:685,23
0.168:686,23
0.168:687,23
0.168:688,23
0.168:688,969
0.168:689,969
0.168:690,971
0.168:691,970
0.169:692,970
0.169:693,20
0.169:694,970
0.169:695,970
0.169:696,25
0.169:697,25
0.170:698,24
0.170:699,24
0.170:700,24
0.170:701,24
0.171:702,23
0.171:703,23
0.171:704,23
0.172:705,23
0.172:706,23
0.172:707,23
0.173:708,970
0.173:709,970
0.173:710,975
0.174:711,971
0.174:712,970
0.175:713,20
0.175:714,970
0.175:715,970
0.176:716,25
0.176:717,24
0.178:718,24
0.179:719,24
0.180:720,23
0.181:721,23
0.181:722,23
0.181:723,23
0.181:724,23
0.181:726,23
0.181:727,23
0.182:728,23
0.182:729,970
0.182:730,970
0.182:731,970
0.182:731,970
0.183:732,970
0.183:733,22
0.183:734,969
0.183:735,969
0.183:736,25
0.183:737,24
0.183:738,24
0.184:739,23
0.184:740,24
0.184:741,23
0.184:742,23
0.184:743,23
0.184:744,23
0.184:745,23
0.185:746,23
0.185:747,23
0.185:748,970
0.185:749,969
0.186:750,970
0.186:751,970
0.186:752,970
0.186:753,24
0.186:754,970
0.186:755,969
0.187:756,24
0.187:757,24
0.187:758,24
0.187:759,24
0.187:760,23
0.187:761,23
0.188:762,23
0.188:763,23
0.188:764,23
0.188:765,23
0.188:766,23
0.188:768,23
0.188:769,969
0.189:770,970
0.189:771,970
0.189:772,970
0.189:773,970
0.189:773,25
0.189:774,969
0.190:775,969
0.190:776,888
0.190:777,19
0.190:778,21
0.190:779,23
0.190:780,23
0.191:781,23
0.191:782,23
0.191:783,23
0.192:784,23
0.192:785,23
0.193:786,23
0.193:787,23
0.195:788,969
0.196:789,969
0.197:790,976
0.198:791,974
0.198:792,970
0.198:793,26
0.198:794,969
0.199:795,970
0.199:796,524
0.199:797,20
0.200:798,22
0.200:799,23
0.200:800,23
0.201:801,23
0.201:802,23
0.201:803,23
0.202:804,23
0.202:805,23
0.202:806,23
0.202:807,23
0.202:808,969
0.202:809,969
0.202:811,971
0.202:812,969
0.204:813,970
0.204:814,26
0.205:815,969
0.205:816,970
0.205:816,956
0.206:817,19
0.206:818,22
0.206:819,23
0.207:820,24
0.207:821,24
0.207:822,24
0.207:823,23
0.208:824,24
0.208:825,23
0.209:826,23
0.209:827,23
0.209:828,969
0.211:829,969
0.212:830,975
0.213:831,972
0.214:832,970
0.214:833,26
0.214:834,970
0.214:835,970
0.214:836,25
0.214:837,25
0.214:838,24
0.215:839,24
0.215:840,24
0.215:841,24
0.215:842,23
0.215:843,23
0.215:844,23
0.215:845,23
0.216:846,23
0.216:847,23
0.216:848,970
0.216:849,969
0.216:850,971
0.216:851,970
0.217:852,970
0.217:854,26
0.217:855,970
0.218:856,970
0.218:857,24
0.218:858,24
0.219:859,24
0.219:859,24
0.219:860,23
0.220:861,23
0.220:862,23
0.220:863,23
0.220:864,23
0.221:865,23
0.221:866,23
0.221:867,23
0.221:868,970
0.222:869,969
0.222:870,970
0.222:871,970
0.223:872,970
0.223:873,26
0.223:874,970
0.223:875,970
0.224:876,25
0.224:877,24
0.224:878,24
0.224:879,23
0.225:880,24
0.225:881,23
0.225:882,23
0.226:883,23
0.226:884,23
0.227:885,23
0.228:886,23
0.229:887,23
0.229:888,970
0.230:889,969
0.230:890,971
0.230:891,970
0.231:892,970
0.231:893,26
0.231:894,970
0.231:896,969
0.231:897,25
0.231:898,24
0.232:899,24
0.232:900,23
0.232:901,23
0.232:901,23
0.232:902,23
0.232:903,23
0.232:904,23
0.233:905,23
0.233:906,23
0.233:907,23
0.234:908,970
0.234:909,969
0.234:910,971
0.234:911,970
0.234:912,970
0.234:913,26
0.234:914,970
0.235:915,969
0.235:916,22
0.235:917,23
0.235:918,23
0.235:919,23
0.235:920,23
0.235:921,23
0.236:922,23
0.236:923,23
0.236:924,23
0.236:925,23
0.236:926,23
0.236:927,23
0.236:928,969
0.237:929,969
0.237:930,972
0.237:931,970
0.237:932,970
0.237:933,26
0.237:934,969
0.238:935,970
0.238:936,20
0.238:937,22
0.238:939,23
0.238:940,23
0.238:941,23
0.238:942,23
0.239:943,23
0.239:944,23
0.239:944,23
0.239:945,23
0.239:946,23
0.239:947,23
0.239:948,969
0.240:949,969
0.240:950,972
0.240:951,970
0.240:952,970
0.240:953,26
0.240:954,969
0.240:955,970
0.241:956,157
0.241:957,21
0.241:958,22
0.241:959,23
0.242:960,23
0.242:961,23
0.242:962,23
0.242:963,23
0.243:964,23
0.244:965,23
0.245:966,23
0.245:967,23
0.246:968,969
0.246:969,969
0.246:970,974
0.247:971,971
0.247:972,969
0.247:973,26
0.247:974,969
0.247:975,969
0.247:976,757
0.247:977,19
0.248:978,22
0.248:979,23
0.248:980,23
0.248:982,23
0.248:983,23
0.248:984,23
0.248:985,23
0.249:986,23
0.249:987,23
0.249:987,23
0.249:988,969
0.249:989,969
0.249:990,974
0.250:991,971
0.250:992,969
0.250:993,26
0.250:994,969
0.250:995,969
0.250:996,990
0.250:997,18
0.251:998,21
0.251:999,23
0.251:1000,23
0.251:1001,23
0.251:1002,24
0.251:1003,23
0.252:1004,23
0.252:1005,23
0.252:1006,23
0.252:1007,23
0.252:1008,970
0.252:1009,970
0.252:1010,971
0.253:1011,970
0.253:1012,970
0.253:1013,23
0.253:1014,970
0.253:1015,969
0.254:1016,988
0.254:1017,18
0.254:1018,21
0.254:1019,23
0.254:1020,23
0.254:1021,24
0.254:1022,24
0.255:1024,24
0.255:1025,24
0.255:1026,23
0.255:1027,23
0.255:1028,23
0.255:1029,970
0.256:1029,970
0.256:1030,973
0.256:1031,970
0.256:1032,970
0.256:1033,58
0.256:1034,970
0.257:1035,970
0.257:1036,988
0.257:1037,18
0.257:1038,21
0.257:1039,23
0.257:1040,23
0.258:1041,24
0.258:1042,24
0.259:1043,24
0.259:1044,23
0.259:1045,23
0.260:1046,23
0.261:1047,23
0.261:1048,969
0.262:1049,969
0.262:1050,977
0.263:1051,975
0.263:1052,970
0.263:1053,23
0.263:1054,970
0.264:1055,970
0.264:1056,989
0.264:1057,19
0.264:1058,22
0.264:1059,23
0.265:1060,24
0.265:1061,24
0.265:1062,24
0.265:1063,24
0.265:1064,23
0.265:1065,24
0.265:1067,23
0.266:1068,23
0.266:1069,970
0.266:1070,969
0.266:1071,974
0.266:1072,974
0.267:1072,970
0.267:1073,388
0.267:1074,970
0.267:1075,970
0.267:1076,461
0.267:1077,20
0.267:1078,22
0.268:1079,23
0.268:1080,24
0.268:1081,24
0.268:1082,24
0.268:1083,24
0.268:1084,24
0.269:1085,23
0.269:1086,24
0.269:1087,24
0.269:1088,970
0.269:1089,969
0.269:1090,974
0.270:1091,971
0.270:1092,970
0.270:1093,992
0.270:1094,970
0.270:1095,969
0.270:1096,990
0.271:1097,19
0.271:1098,22
0.271:1099,23
0.271:1100,23
0.271:1101,24
0.271:1102,24
0.272:1103,24
0.272:1104,24
0.272:1105,24
0.272:1106,24
0.272:1107,23
0.272:1108,970
0.273:1110,969
0.273:1111,972
0.273:1112,971
0.273:1113,970
0.273:1114,987
0.273:1115,969
0.274:1115,970
0.274:1116,614
0.274:1117,20
0.275:1118,23
0.275:1119,23
0.275:1120,24
0.276:1121,24
0.276:1122,23
0.278:1123,24
0.279:1124,24
0.280:1125,24
0.281:1126,24
0.281:1127,23
0.281:1128,970
0.282:1129,969
0.282:1130,970
0.282:1131,970
0.282:1132,970
0.283:1133,983
0.283:1134,969
0.283:1135,970
0.283:1136,25
0.283:1137,24
0.283:1138,24
0.284:1139,24
0.284:1140,24
0.284:1141,24
0.284:1142,24
0.284:1143,24
0.284:1144,24
0.285:1145,24
0.285:1146,23
0.285:1147,23
0.285:1148,970
0.285:1149,969
0.285:1150,972
0.286:1152,970
0.286:1153,970
0.286:1154,974
0.286:1155,970
0.286:1156,970
0.286:1157,23
0.287:1157,24
0.287:1158,24
0.287:1159,24
0.287:1160,24
0.287:1161,24
0.287:1162,24
0.288:1163,24
0.288:1164,23
0.288:1165,23
0.288:1166,23
0.288:1167,23
0.288:1168,969
0.289:1169,969
0.289:1170,972
0.289:1171,970
0.289:1172,970
0.289:1173,970
0.289:1174,969
0.290:1175,969
0.290:1176,19
0.290:1177,22
0.290:1178,23
0.290:1179,24
0.290:1180,24
0.291:1181,24
0.291:1182,24
0.292:1183,24
0.292:1184,23
0.293:1185,23
0.293:1186,23
0.295:1187,23
0.296:1188,969
0.297:1189,969
0.297:1190,972
0.297:1191,969
0.298:1192,970
0.298:1193,970
0.298:1195,969
0.298:1196,969
0.298:1197,19
0.298:1198,22
0.299:1199,23
0.299:1200,23
0.299:1200,24
0.299:1201,24
0.299:1202,24
0.299:1203,24
0.299:1204,23
0.300:1205,23
0.300:1206,23
0.300:1207,23
0.300:1208,970
0.300:1209,969
0.300:1210,976
0.301:1211,974
0.301:1212,970
0.301:1213,970
0.301:1214,970
0.301:1215,970
0.302:1216,61
0.302:1217,21
0.302:1218,23
0.302:1219,23
0.302:1220,24
0.302:1221,24
0.302:1222,24
0.303:1223,23
0.303:1224,23
0.303:1225,23
0.303:1226,23
0.303:1227,23
0.303:1228,969
0.304:1229,969
0.304:1230,971
0.304:1231,972
0.304:1232,970
0.304:1233,970
0.304:1234,969
0.305:1235,970
0.305:1236,294
0.305:1238,20
0.305:1239,22
0.305:1240,23
0.305:1241,24
0.306:1242,24
0.306:1243,24
0.306:1243,23
0.306:1244,23
0.306:1245,23
0.306:1246,23
0.307:1247,23
0.307:1248,970
0.307:1249,969
0.307:1250,970
0.308:1251,970
0.309:1252,970
0.309:1253,969
0.310:1254,970
0.310:1255,969
0.313:1256,22
0.313:1257,23
0.313:1258,23
0.313:1259,24
0.316:1260,23
0.316:1261,23
0.316:1262,23
0.316:1263,23
0.316:1264,23
0.316:1265,23
0.316:1266,23
0.319:1267,23
0.319:1268,970
0.319:1269,969
0.319:1270,970
0.319:1271,970
0.319:1272,970
0.321:1273,969
0.321:1274,969
0.322:1275,969
0.322:1276,492
0.322:1277,20
0.323:1278,22
0.323:1280,23
0.326:1281,23
0.326:1282,24
0.329:1283,24
0.330:1284,24
0.330:1285,23
0.331:1285,23
0.331:1286,23
0.331:1287,23
0.331:1288,970
0.332:1289,970
0.333:1290,971
0.334:1291,970
0.334:1292,970
0.335:1293,969
0.335:1294,969
0.335:1295,969
0.335:1296,26
0.335:1297,25
0.335:1298,24
0.336:1299,24
0.336:1300,24
0.336:1301,24
0.336:1302,24
0.336:1303,24
0.337:1304,23
0.337:1305,23
0.337:1306,22
0.337:1307,23
0.337:1308,969
0.338:1309,969
0.338:1310,971
0.338:1311,970
0.338:1312,969
0.338:1313,970
0.339:1314,969
0.339:1315,969
0.339:1316,430
0.339:1317,20
0.339:1318,22
0.339:1319,23
0.340:1320,24
0.340:1321,24
0.340:1323,24
0.340:1324,24
0.340:1325,23
0.343:1326,23
0.345:1327,23
0.347:1328,23
0.347:1328,970
0.347:1329,969
0.348:1330,973
0.348:1331,972
0.348:1332,970
0.349:1333,970
0.349:1334,969
0.349:1335,970
0.349:1336,334
0.350:1337,20
0.350:1338,23
0.350:1339,23
0.351:1340,24
0.351:1341,24
0.351:1342,24
0.352:1343,23
0.352:1344,24
0.352:1345,23
0.352:1346,23
0.353:1347,23
0.353:1348,970
0.353:1349,969
0.354:1350,973
0.354:1351,972
0.354:1352,969
0.355:1353,969
0.355:1354,970
0.355:1355,970
0.356:1356,26
0.356:1357,25
0.356:1358,24
0.356:1359,24
0.357:1360,24
0.357:1361,24
0.357:1362,23
0.358:1363,23
0.358:1364,23
0.359:1366,23
0.362:1367,23
0.364:1368,23
0.364:1369,969
0.364:1370,969
0.364:1371,971
0.365:1371,970
0.365:1372,970
0.365:1373,970
0.365:1374,969
0.365:1375,969
0.365:1376,19
0.366:1377,21
0.366:1378,23
0.366:1379,23
0.366:1380,23
0.366:1381,23
0.366:1382,23
0.367:1383,23
0.367:1384,23
0.367:1385,23
0.367:1386,23
0.367:1387,23
0.367:1388,969
0.368:1389,969
0.368:1390,971
0.368:1391,970
0.368:1392,970
0.368:1393,970
0.368:1394,969
0.369:1395,969
0.369:1396,25
0.369:1397,25
0.369:1398,24
0.369:1399,24
0.369:1400,24
0.369:1401,24
0.370:1402,23
0.370:1403,23
0.370:1404,23
0.370:1405,23
0.370:1406,23
0.370:1408,23
0.371:1409,970
0.371:1410,969
0.371:1411,970
0.371:1412,970
0.371:1413,970
0.371:1413,970
0.372:1414,970
0.372:1415,970
0.372:1416,23
0.372:1417,24
0.372:1418,24
0.372:1419,24
0.373:1420,23
0.373:1421,23
0.373:1422,23
0.373:1423,23
0.373:1424,23
0.373:1425,23
0.374:1426,23
0.374:1427,23
0.374:14266484,969
0.375:66485,969
0.375:66486,969
0.376:66487,785
0.376:66488,20
0.376:66489,23
0.377:66490,24
0.378:66491,25
0.379:66492,25
0.379:66493,25
0.380:66494,25
0.380:66495,25
0.380:66496,24
0.380:66497,24
0.381:66498,26
0.381:66499,970
0.381:66500,970
0.381:66501,981
0.381:66502,973
0.382:66503,977
0.382:66504,969
0.382:66505,969
0.382:66506,969
0.382:66507,625
0.382:66508,20
0.383:66509,23
0.383:66510,24
0.383:66511,25
0.383:66512,25
0.383:66513,25
0.384:66514,25
0.384:66515,24
0.384:66516,24
0.384:66518,24
0.384:66519,24
0.384:66520,969
0.385:66521,970
0.385:66522,975
0.385:66523,971
0.385:66523,973
0.385:66524,969
0.385:66525,969
0.386:66526,969
0.386:66527,457
0.386:66528,21
0.386:66529,24
0.386:66530,24
0.387:66531,25
0.387:66532,25
0.387:66533,24
0.387:66534,25
0.387:66535,24
0.387:66536,24
0.388:66537,24
0.388:66538,22
0.388:66539,969
0.388:66540,972
0.388:66541,976
0.389:66542,971
0.389:66543,990
0.389:66544,969
0.389:66545,969
0.389:66546,971
0.389:66547,334
0.390:66548,21
0.390:66549,23
0.390:66550,24
0.390:66551,25
0.390:66552,25
0.391:66553,25
0.392:66554,25
0.392:66555,24
0.392:66556,24
0.393:66557,24
0.393:66558,547
0.394:66560,969
0.395:66561,973
0.396:66562,976
0.396:66563,969
0.397:66564,26
0.397:66565,970
0.397:66566,970
0.397:66566,977
0.398:66567,147
0.398:66568,22
0.398:66569,24
0.398:66570,24
0.398:66571,25
0.398:66572,24
0.399:66573,25
0.399:66574,25
0.399:66575,24
0.399:66576,24
0.399:66577,24
0.400:66578,980
0.400:66579,970
0.400:66580,970
0.400:66581,972
0.400:66582,970
0.400:66583,23
0.401:66584,969
0.401:66585,969
0.401:66586,978
0.401:66587,115
0.401:66588,21
0.402:66589,24
0.402:66590,24
0.402:66591,25
0.402:66592,25
0.402:66593,25
0.402:66594,25
0.403:66595,24
0.403:66596,24
0.403:66597,24
0.403:66598,970
0.403:66599,970
0.403:66600,973
0.404:66601,976
0.404:66603,970
0.404:66604,21
0.404:66605,969
0.404:66606,970
0.405:66607,981
0.405:66608,18
0.405:66608,22
0.405:66609,24
0.405:66610,24
0.405:66611,24
0.406:66612,24
0.406:66613,24
0.406:66614,24
0.406:66615,24
0.406:66616,24
0.406:66617,24
0.407:66618,970
0.407:66619,970
0.408:66620,971
0.408:66621,971
0.409:66622,969
0.409:66623,19
0.409:66624,969
0.410:66625,970
0.411:66626,982
0.412:66627,18
0.413:66628,22
0.414:66629,24
0.414:66630,24
0.414:66631,25
0.415:66632,25
0.415:66633,25
0.415:66634,24
0.416:66635,24
0.416:66636,24
0.417:66637,24
0.417:66638,969
0.417:66639,969
0.418:66640,977
0.418:66641,974
0.418:66642,970
0.418:66643,23
0.419:66644,969
0.419:66646,969
0.419:66647,983
0.419:66648,18
0.419:66649,22
0.419:66650,24
0.420:66651,24
0.420:66651,25
0.420:66652,25
0.420:66653,25
0.420:66654,24
0.420:66655,24
0.421:66656,24
0.421:66657,24
0.421:66658,970
0.421:66659,969
0.421:66660,974
0.422:66661,971
0.422:66662,970
0.422:66663,18
0.423:66664,969
0.423:66665,970
0.423:66666,986
0.423:66667,18
0.423:66668,22
0.423:66669,24
0.424:66670,25
0.424:66671,25
0.424:66672,25
0.425:66673,25
0.425:66674,24
0.426:66675,24
0.426:66676,24
0.427:66677,24
0.429:66678,969
0.430:66679,969
0.430:66680,977
0.430:66681,973
0.431:66682,970
0.431:66683,742
0.431:66684,969
0.431:66685,970
0.431:66686,987
0.432:66688,18
0.432:66689,22
0.432:66690,24
0.432:66691,25
0.433:66692,25
0.433:66693,25
0.433:66694,25
0.433:66694,24
0.433:66695,24
0.433:66696,24
0.434:66697,26
0.434:66698,970
0.434:66699,970
0.434:66700,978
0.434:66701,976
0.435:66702,970
0.435:66703,983
0.435:66704,970
0.435:66705,969
0.435:66706,989
0.435:66707,19
0.436:66708,22
0.436:66709,24
0.436:66710,25
0.436:66711,25
0.436:66712,25
0.436:66713,25
0.437:66714,24
0.437:66715,24
0.437:66716,24
0.437:66717,26
0.437:66718,969
0.438:66719,970
0.438:66720,973
0.438:66721,973
0.438:66722,971
0.439:66723,972
0.439:66724,970
0.439:66725,969
0.439:66726,991
0.439:66727,19
0.440:66728,23
0.440:66729,24
0.440:66731,25
0.440:66732,25
0.440:66733,25
0.440:66734,24
0.441:66735,24
0.441:66736,24
0.441:66736,24
0.442:66737,26
0.442:66738,969
0.444:66739,969
0.445:66740,980
0.445:66741,974
0.446:66742,969
0.446:66743,969
0.446:66744,969
0.446:66745,969
0.447:66746,956
0.447:66747,19
0.447:66748,23
0.447:66749,24
0.447:66750,25
0.447:66751,25
0.448:66752,25
0.448:66753,25
0.448:66754,24
0.448:66755,24
0.448:66756,24
0.448:66757,26
0.449:66758,969
0.449:66759,970
0.449:66760,971
0.449:66761,969
0.449:66762,970
0.450:66763,969
0.450:66764,970
0.450:66765,970
0.450:66766,798
0.450:66767,20
0.451:66768,23
0.451:66769,24
0.451:66770,25
0.451:66771,25
0.451:66772,25
0.451:66774,25
0.452:66775,24
0.452:66776,24
0.452:66777,24
0.452:66778,26
0.452:66779,970
0.452:66779,969
0.453:66780,975
0.453:66781,970
0.453:66782,969
0.453:66783,969
0.453:66784,969
0.454:66785,969
0.454:66786,551
0.454:66787,21
0.454:66788,23
0.454:66789,24
0.455:66790,25
0.455:66791,25
0.455:66792,25
0.455:66793,25
0.455:66794,25
0.455:66795,24
0.456:66796,24
0.456:66797,24
0.456:66798,970
0.456:66799,971
0.456:66800,976
0.457:66801,970
0.457:66802,982
0.457:66803,969
0.457:66804,969
0.458:66805,971
0.458:66806,343
0.458:66807,21
0.459:66808,24
0.459:66809,24
0.459:66810,25
0.461:66811,25
0.462:66812,25
0.462:66813,25
0.463:66814,25
0.463:66816,25
0.463:66817,24
0.464:66818,23
0.464:66819,969
0.464:66820,973
0.464:66821,979
0.464:66822,969
0.465:66822,27
0.465:66823,969
0.465:66824,970
0.465:66825,973
0.465:66826,256
0.465:66827,22
0.466:66828,24
0.466:66829,24
0.466:66830,25
0.466:66831,25
0.466:66832,25
0.467:66833,25
0.467:66834,24
0.467:66835,24
0.467:66836,24
0.467:66837,18
0.467:66838,970
0.468:66839,971
0.469:66840,979
0.469:66841,975
0.469:66842,25
0.470:66843,970
0.473:66844,970
0.473:66845,977
0.474:66846,135
0.475:66847,21
0.479:66848,23
0.481:66849,24
0.482:66850,24
0.482:66851,25
0.482:66852,24
0.485:66853,24
0.485:66854,24
0.485:66855,24
0.486:66856,24
0.487:66857,983
0.488:66859,970
0.488:66860,971
0.489:66861,975
0.490:66862,971
0.490:66863,22
0.491:66864,970
0.492:66865,970
0.498:66865,980
0.499:66866,42
0.499:66867,22
0.499:66868,23
0.500:66869,24
0.500:66870,25
0.500:66871,24
0.501:66872,24
0.503:66873,24
0.504:66874,24
0.504:66875,24
0.505:66876,24
0.506:66877,970
0.506:66878,969
0.507:66879,971
0.507:66880,970
0.511:66881,970
0.512:66882,21
0.514:66883,969
0.514:66884,970
0.514:66885,982
0.515:66886,17
0.515:66887,22
0.516:66888,24
0.519:66889,24
0.519:66890,25
0.520:66891,25
0.521:66892,25
0.523:66893,25
0.524:66894,24
0.525:66895,24
0.525:66896,24
0.526:66897,970
0.527:66898,970
0.527:66899,972
0.527:66900,972
0.530:66902,970
0.531:66903,20
0.531:66904,969
0.531:66905,969
0.534:66906,984
0.535:66907,18
0.535:66907,22
0.535:66908,24
0.535:66909,24
0.539:66910,25
0.539:66911,25
0.539:66912,25
0.539:66913,24
0.548:66914,24
0.548:66915,24
0.548:66916,24
0.549:66917,970
0.549:66918,970
0.549:66919,975
0.550:66920,975
0.551:66921,969
0.551:66922,21
0.552:66923,969
0.552:66924,970
0.552:66925,986
0.555:66926,18
0.555:66927,22
0.555:66928,24
0.556:66929,24
0.560:66930,25
0.561:66931,24
0.562:66932,24
0.562:66933,24
0.563:66934,24
0.563:66935,24
0.563:66936,24
0.564:66937,970
0.567:66938,970
0.568:66939,974
0.568:66940,971
0.568:66941,969
0.571:66942,988
0.571:66944,969
0.572:66945,970
0.572:66946,989
0.575:66947,19
0.576:66948,23
0.577:66949,24
0.578:66950,24
0.579:66950,25
0.580:66951,25
0.580:66952,24
0.580:66953,24
0.580:66954,24
0.584:66955,24
0.584:66956,24
0.584:66957,969
0.584:66958,969
0.588:66959,977
0.588:66960,971
0.588:66961,970
0.588:66962,975
0.592:66963,970
0.593:66964,969
0.594:66965,992
0.595:66966,19
0.596:66967,23
0.596:66968,24
0.597:66969,24
0.597:66970,25
0.600:66971,24
0.600:66972,25
0.600:66973,24
0.600:66974,24
0.604:66975,24
0.605:66976,25
0.605:66977,970
0.606:66978,970
0.609:66979,976
0.611:66980,976
0.614:66981,970
0.615:66982,969
0.616:66983,970
0.617:66984,969
0.618:66985,654
0.618:66987,20
0.619:66988,23
0.619:66989,24
0.620:66990,24
0.621:66991,24
0.621:66992,25
0.622:66992,24
0.623:66993,24
0.623:66994,24
0.625:66995,24
0.625:66996,24
0.627:66997,969
0.630:66998,970
0.631:66999,979
0.631:67000,976
0.632:67001,973
0.632:67002,970
0.632:67003,969
0.633:67004,970
0.633:67005,591
0.634:67006,20
0.634:67007,23
0.637:67008,24
0.637:67009,24
0.637:67010,24
0.638:67011,24
0.641:67012,24
0.642:67013,24
0.643:67014,24
0.645:67015,24
0.646:67016,24
0.646:67017,969
0.646:67018,970
0.647:67019,973
0.649:67020,971
0.650:67021,970
0.650:67022,970
0.650:67023,970
0.653:67024,970
0.654:67025,657
0.654:67026,20
0.654:67027,23
0.658:67028,24
0.658:67030,24
0.658:67031,24
0.659:67032,24
0.662:67033,24
0.663:67034,24
0.663:67035,24
0.664:67035,24
0.666:67036,26
0.666:67037,970
0.667:67038,969
0.667:67039,972
0.670:67040,972
0.670:67041,972
0.671:67042,969
0.672:67043,969
0.674:67044,970
0.676:67045,492
0.677:67046,20
0.680:67047,23
0.682:67048,24
0.683:67049,24
0.683:67050,24
0.684:67051,24
0.685:67052,24
0.685:67053,24
0.686:67054,24
0.686:67055,24
0.687:67056,26
0.687:67057,970
0.688:67058,971
0.689:67059,970
0.689:67060,970
0.692:67061,973
0.694:67062,969
0.696:67063,969
0.697:67064,989
0.698:67065,18
0.699:67066,22
0.700:67067,23
0.700:67068,24
0.701:67069,24
0.701:67070,24
0.702:67072,24
0.702:67073,24
0.702:67074,24
0.703:67075,24
0.703:67076,24
0.704:67077,23
0.707:67078,969
0.708:67078,971
0.709:67079,973
0.710:67080,971
0.712:67081,22
0.712:67082,969
0.713:67083,969
0.713:67084,979
0.715:67085,94
0.715:67086,22
0.715:67087,24
0.716:67088,24
0.719:67089,24
0.719:67090,24
0.719:67091,24
0.719:67092,24
0.720:67093,24
0.723:67094,24
0.723:67095,24
0.724:67096,990
0.724:67097,970
0.728:67098,971
0.728:67099,973
0.729:67100,970
0.729:67101,26
0.731:67102,970
0.732:67103,969
0.732:67104,980
0.732:67105,64
0.735:67106,21
0.736:67107,23
0.736:67108,24
0.736:67109,24
0.739:67110,24
0.740:67111,24
0.740:67112,24
0.741:67113,24
0.745:67115,24
0.746:67116,24
0.747:67117,971
0.747:67118,969
0.748:67119,972
0.748:67120,969
0.749:67121,970
0.749:67121,22
0.752:67122,970
0.752:67123,970
0.752:67124,983
0.752:67125,18
0.756:67126,22
0.756:67127,23
0.756:67128,24
0.756:67129,24
0.760:67130,24
0.762:67131,24
0.763:67132,24
0.764:67133,24
0.764:67134,24
0.764:67135,24
0.765:67136,969
0.765:67137,970
0.768:67138,971
0.768:67139,975
0.769:67140,970
0.769:67141,20
0.769:67142,970
0.772:67143,970
0.773:67144,985
0.773:67145,18
0.774:67146,22
0.778:67147,24
0.780:67148,24
0.780:67149,24
0.780:67150,24
0.781:67151,24
0.781:67152,24
0.781:67153,24
0.782:67154,24
0.784:67155,24
0.785:67156,969
0.785:67158,969
0.785:67159,976
0.788:67160,974
0.789:67161,970
0.789:67162,20
0.789:67163,969
0.794:67163,970
0.796:67164,985
0.797:67165,18
0.797:67166,22
0.797:67167,24
0.798:67168,24
0.798:67169,24
0.799:67170,24
0.801:67171,24
0.801:67172,24
0.801:67173,24
0.802:67174,24
0.805:67175,24
0.806:67176,970
0.806:67177,970
0.806:67178,972
0.809:67179,970
0.811:67180,970
0.811:67181,190
0.812:67182,969
0.813:67183,969
0.813:67184,987
0.814:67185,18
0.814:67186,22
0.814:67187,23
0.817:67188,24
0.817:67189,24
0.818:67190,24
0.818:67191,24
0.821:67192,24
0.822:67193,24
0.822:67194,24
0.822:67195,24
0.827:67196,970
0.828:67197,970
0.828:67198,976
0.829:67200,978
0.829:67201,972
0.830:67202,669
0.830:67203,969
0.830:67204,969
0.833:67205,990
0.834:67206,20
0.834:67206,22
0.834:67207,23
0.837:67208,24
0.838:67209,24
0.838:67210,24
0.838:67211,24
0.842:67212,24
0.844:67213,24
0.845:67214,24
0.846:67215,24
0.846:67216,969
0.846:67217,970
0.846:67218,975
0.846:67219,972
0.850:67220,970
0.851:67221,982
0.851:67222,969
0.852:67223,969
0.854:67224,871
0.854:67225,20
0.855:67226,22
0.856:67227,24
0.856:67228,24
0.859:67229,24
0.860:67230,24
0.861:67231,24
0.863:67232,24
0.864:67233,24
0.864:67234,24
0.865:67235,24
0.865:67236,970
0.866:67237,970
0.867:67238,975
0.867:67239,970
0.867:67240,970
0.871:67241,970
0.872:67243,969
0.872:67244,970
0.873:67245,894
0.876:67246,20
0.877:67247,23
0.881:67248,24
0.883:67248,24
0.884:67249,24
0.884:67250,24
0.885:67251,24
0.885:67252,24
0.886:67253,24
0.887:67254,24
0.887:67255,24
0.888:67256,969
0.888:67257,970
0.889:67258,974
0.890:67259,971
0.891:67260,970
0.892:67261,970
0.893:67262,969
0.895:67263,970
0.896:67264,760
0.897:67265,20
0.898:67266,23
0.898:67267,24
0.898:67268,24
0.899:67269,24
0.899:67270,24
0.899:67271,24
0.900:67272,24
0.900:67273,24
0.903:67274,24
0.904:67275,24
0.904:67276,970
0.907:67277,970
0.908:67278,971
0.908:67279,971
0.910:67280,971
0.911:67281,970
0.912:67282,970
0.912:67283,969
0.913:67284,609
0.913:67286,20
0.915:67287,23
0.916:67288,24
0.916:67289,24
0.916:67290,24
0.920:67291,24
0.920:67291,24
0.921:67292,24
0.922:67293,24
0.924:67294,24
0.927:67295,24
0.929:67296,969
0.931:67297,970
0.933:67298,970
0.934:67299,970
0.935:67300,972
0.937:67301,970
0.938:67302,969
0.940:67303,970
0.941:67304,477
0.942:67305,20
0.944:67306,23
0.948:67307,24
0.948:67308,24
0.948:67309,25
0.949:67310,24
0.949:67311,24
0.949:67312,24
0.950:67313,24
0.950:67314,24
0.950:67315,24
0.951:67316,970
0.951:67317,970
0.951:67318,976
0.952:67319,972
0.952:67320,970
0.953:67321,969
0.953:67322,970
0.953:67323,970
0.954:67324,390
0.954:67325,21
0.954:67326,23
0.957:67328,24
0.958:67329,24
0.959:67330,24
0.960:67331,24
0.962:67332,24
0.962:67333,24
0.963:67334,24
0.963:67334,24
0.965:67335,25
0.965:67336,969
0.965:67337,971
0.965:67338,976
0.969:67339,975
0.970:67340,971
0.971:67341,969
0.971:67342,969
0.973:67343,981
0.975:67344,33
0.978:67345,22
0.981:67346,23
0.983:67347,24
0.984:67348,24
0.985:67349,24
0.986:67350,24
0.987:67351,24
0.987:67352,24
0.988:67353,24
0.988:67354,24
0.989:67355,26
0.990:67356,969
0.992:67357,970
0.996:67358,972
0.997:67359,970
0.998:67360,24
0.999:67361,969
0.999:67362,970
1.000:67363,976
1.000:67364,181
1.001:67365,21
1.001:67366,23
1.001:67367,24
1.002:67368,24
1.002:67369,24
1.003:67371,24
1.003:67372,24
1.003:67373,24
1.004:67374,24
1.004:67375,24
1.004:67376,362
1.006:67377,969
1.006:67377,972
1.006:67378,973
1.008:67379,971
1.011:67380,26
1.012:67381,969
1.013:67382,969
1.013:67383,975
1.014:67384,224
1.014:67385,21
1.014:67386,23
1.015:67387,24
1.018:67388,24
1.019:67389,24
1.019:67390,24
1.020:67391,24
1.022:67392,24
1.023:67393,23
1.025:67394,24
1.027:67395,970
1.029:67396,970
1.030:67397,971
1.031:67398,971
1.031:67399,971
1.031:67400,24
1.032:67401,969
1.032:67402,970
1.033:67403,974
1.034:67404,248
1.035:67405,21
1.035:67406,23
1.035:67407,24
1.038:67408,25
1.039:67409,24
1.040:67410,25
1.042:67411,24
1.044:67412,24
1.046:67414,24
1.048:67415,26
1.048:67416,969
1.049:67417,969
1.049:67418,971
1.050:67419,971
1.050:67419,971
1.051:67420,22
1.051:67421,969
1.051:67422,969
1.052:67423,977
1.052:67424,132
1.055:67425,22
1.055:67426,24
1.056:67427,24
1.056:67428,25
1.060:67429,25
1.063:67430,25
1.064:67431,25
1.065:67432,24
1.065:67433,24
1.065:67434,26
1.066:67435,970
1.066:67436,970
1.067:67437,973
1.067:67438,974
1.068:67439,971
1.068:67440,25
1.071:67441,969
1.071:67442,970
1.072:67443,980
1.072:67444,28
1.076:67445,22
1.078:67446,24
1.078:67447,24
1.079:67448,25
1.079:67449,25
1.079:67450,25
1.080:67451,25
1.080:67452,24
1.083:67453,24
1.083:67454,26
1.084:67456,969
1.084:67457,970
1.087:67458,974
1.088:67459,972
1.088:67460,969
1.088:67461,20
1.092:67462,970
1.092:67462,969
1.093:67463,983
1.094:67464,18
1.095:67465,22
1.096:67466,24
1.096:67467,24
1.096:67468,25
1.096:67469,25
1.100:67470,25
1.101:67471,25
1.101:67472,24
1.102:67473,24
1.104:67474,24
1.106:67475,969
1.106:67476,969
1.109:67477,976
1.110:67478,972
1.112:67479,969
1.114:67480,990
1.116:67481,969
1.117:67482,970
1.118:67483,988
1.119:67484,19
1.119:67485,22
1.120:67486,24
1.121:67487,25
1.122:67488,25
1.122:67489,25
1.124:67490,25
1.128:67491,25
1.130:67492,24
1.131:67493,24
1.131:67494,24
1.132:67495,969
1.133:67496,969
1.133:67497,973
1.133:67499,976
1.134:67500,970
1.134:67501,980
1.135:67502,969
1.135:67503,969
1.136:67504,992
1.136:67505,20
1.137:67505,23
1.137:67506,24
1.137:67507,24
1.138:67508,25
1.138:67509,25
1.138:67510,25
1.141:67511,24
1.142:67512,24
1.142:67513,24
1.143:67514,24
1.146:67515,970
1.147:67516,969
1.147:67517,970
1.147:67518,971
1.149:67519,970
1.150:67520,969
1.151:67521,969
1.152:67522,969
1.153:67523,780
1.154:67524,20
1.155:67525,23
1.155:67526,24
1.158:67527,25
1.159:67528,25
1.161:67529,25
1.163:67530,25
1.164:67531,25
1.165:67532,24
1.165:67533,24
1.166:67534,24
1.166:67535,969
1.166:67536,970
1.167:67537,973
1.167:67538,970
1.170:67539,971
1.170:67540,970
1.171:67542,970
1.172:67543,969
1.174:67544,676
1.175:67545,20
1.176:67546,23
1.178:67547,24
1.181:67547,25
1.181:67548,25
1.182:67549,25
1.182:67550,24
1.182:67551,24
1.183:67552,24
1.183:67553,24
1.184:67554,26
1.184:67555,969
1.186:67556,970
1.186:67557,976
1.186:67558,973
1.187:67559,969
1.190:67560,970
1.191:67561,969
1.191:67562,970
1.192:67563,603
1.195:67564,20
1.195:67565,23
1.196:67566,24
1.196:67567,25
1.198:67568,25
1.198:67569,25
1.198:67570,24
1.199:67571,24
1.202:67572,24
1.203:67573,24
1.204:67574,25
1.204:67575,970
1.208:67576,970
1.209:67577,973
1.211:67578,970
1.213:67579,970
1.216:67580,970
1.217:67581,970
1.218:67582,970
1.219:67584,575
1.219:67585,20
1.219:67586,23
1.220:67587,24
1.220:67588,24
1.221:67589,24
1.221:67590,24
1.222:67590,24
1.222:67591,24
1.223:67592,24
1.224:67593,24
1.226:67594,23
1.226:67595,970
1.228:67596,971
1.229:67597,975
1.230:67598,970
1.230:67599,970
1.230:67600,970
1.231:67601,970
1.231:67602,969
1.231:67603,527
1.232:67604,20
1.235:67605,23
1.235:67606,24
1.235:67607,25
1.236:67608,25
1.239:67609,25
1.240:67610,25
1.240:67611,25
1.241:67612,25
1.244:67613,24
1.246:67614,21
1.246:67615,969
1.246:67616,971
1.247:67617,977
1.247:67618,969
1.248:67619,983
1.248:67620,970
1.251:67621,970
1.251:67622,970
1.252:67623,452
1.252:67624,20
1.255:67625,23
1.255:67627,24
1.256:67628,25
1.256:67629,25
1.260:67630,25
1.261:67631,25
1.262:67632,24
1.262:67632,24
1.263:67633,24
1.264:67634,518
1.264:67635,970
1.264:67636,972
1.267:67637,977
1.268:67638,970
1.268:67639,26
1.268:67640,969
1.272:67641,970
1.272:67642,971
1.272:67643,346
1.272:67644,21
1.272:67645,23
1.278:67646,24
1.279:67647,25
1.279:67648,25
1.280:67649,25
1.280:67650,25
1.280:67651,24
1.280:67652,24
1.280:67653,24
1.284:67654,987
1.284:67655,970
1.285:67656,970
1.285:67657,972
1.288:67658,971
1.288:67659,24
1.288:67660,969
1.289:67661,970
1.294:67662,977
1.296:67663,135
1.296:67664,22
1.296:67665,24
1.296:67666,24
1.297:67667,26
1.297:67668,25
1.297:67670,25
1.300:67671,25
1.301:67672,24
1.301:67673,24
1.301:67674,24
1.305:67675,970
1.305:67675,969
1.305:67676,971
1.305:67677,971
1.310:67678,969
1.312:67679,22
1.313:67680,969
1.313:67681,970
1.313:67682,980
1.313:67683,33
1.314:67684,22
1.314:67685,24
1.317:67686,24
1.317:67687,25
1.317:67688,25
1.317:67689,25
1.317:67690,25
1.321:67691,25
1.321:67692,24
1.321:67693,24
1.321:67694,970
1.328:67695,970
1.328:67696,975
1.328:67697,976
1.328:67698,970
1.331:67699,19
1.331:67700,969
1.331:67701,969
1.331:67702,983
1.336:67703,18
1.336:67704,22
1.336:67705,24
1.337:67706,24
1.337:67707,25
1.337:67708,25
1.338:67709,25
1.338:67710,24
1.344:67712,24
1.345:67713,25
1.346:67714,24
1.346:67715,969
1.347:67716,970
1.347:67717,973
1.347:67718,977
1.348:67718,972
1.349:67719,19
1.350:67720,969
1.350:67721,970
1.350:67722,985
1.353:67723,18
1.354:67724,22
1.354:67725,24
1.354:67726,24
1.358:67727,25
1.360:67728,25
1.361:67729,24
1.362:67730,24
1.362:67731,24
1.363:67732,24
1.363:67733,24
1.363:67734,969
1.366:67735,970
1.366:67736,975
1.366:67737,976
1.366:67738,969
1.366:67739,712
1.370:67740,969
1.370:67741,969
1.370:67742,986
1.370:67743,18
1.376:67744,22
1.379:67745,24
1.379:67746,24
1.379:67747,25
1.380:67748,25
1.380:67749,25
1.380:67750,24
1.380:67751,24
1.382:67752,24
1.382:67753,24
1.383:67755,970
1.383:67756,970
1.386:67757,977
1.387:67758,979
1.387:67759,970
1.387:67760,987
1.391:67761,969
1.393:67761,970
1.394:67762,987
1.397:67763,19
1.398:67764,22
1.398:67765,24
1.399:67766,24
1.399:67767,24
1.399:67768,24
1.400:67769,24
1.400:67770,25
1.400:67771,24
1.403:67772,24
1.403:67773,26
1.404:67774,970
1.405:67775,970
1.407:67776,971
1.408:67777,973
1.409:67778,976
1.412:67779,981
1.414:67780,969
1.414:67781,969
1.415:67782,989
1.415:67783,19
1.416:67784,22
1.416:67785,24
1.416:67786,24
1.417:67787,25
1.417:67788,25
1.419:67789,25
1.420:67790,24
1.420:67791,24
1.420:67792,24
1.425:67793,26
1.425:67794,970
1.426:67795,970
1.428:67796,972
1.429:67798,970
1.430:67799,970
1.430:67800,978
1.430:67801,969
1.432:67802,969
1.432:67803,991
1.432:67803,20
1.432:67804,23
1.436:67805,24
1.436:67806,24
1.436:67807,25
1.436:67808,25
1.440:67809,25
1.440:67810,24
1.441:67811,24
1.441:67812,24
1.444:67813,26
1.445:67814,969
1.446:67815,970
1.446:67816,971
1.448:67817,971
1.448:67818,975
1.448:67819,969
1.449:67820,969
1.452:67821,970
1.452:67822,827
1.452:67823,20
1.452:67824,23
1.456:67825,24
1.456:67826,24
1.457:67827,25
1.457:67828,25
1.458:67829,25
1.460:67830,24
1.461:67831,25
1.461:67832,24
1.462:67833,26
1.464:67834,970
1.464:67835,970
1.464:67836,971
1.465:67837,971
1.468:67838,977
1.468:67840,969
1.469:67841,970
1.469:67842,969
1.473:67843,616
1.473:67844,21
1.474:67845,23
1.477:67846,24
1.478:67846,25
1.478:67847,25
1.478:67848,25
1.479:67849,24
1.481:67850,24
1.481:67851,25
1.481:67852,24
1.481:67853,26
1.485:67854,969
1.485:67855,970
1.485:67856,974
1.486:67857,972
1.489:67858,979
1.489:67859,970
1.490:67860,970
1.490:67861,969
1.493:67862,493
1.494:67863,20
1.495:67864,23
1.495:67865,24
1.497:67866,25
1.497:67867,25
1.497:67868,25
1.497:67869,25
1.501:67870,24
1.501:67871,24
1.501:67872,24
1.501:67873,23
1.505:67874,969
1.505:67875,970
1.506:67876,976
1.506:67877,972
1.506:67878,974
1.510:67879,969
1.510:67880,970
1.511:67881,972
1.511:67883,303
1.513:67884,21
1.513:67885,23
1.513:67886,24
1.513:67887,25
1.518:67888,25
1.518:67888,25
1.518:67889,24
1.518:67890,24
1.522:67891,24
1.522:67892,24
1.522:67893,778
1.523:67894,970
1.527:67895,971
1.527:67896,973
1.528:67897,975
1.528:67898,994
1.530:67899,970
1.530:67900,970
1.530:67901,976
1.531:67902,182
1.534:67903,21
1.534:67904,23
1.534:67905,24
1.534:67906,24
1.538:67907,25
1.538:67908,24
1.538:67909,24
1.538:67910,24
1.542:67911,24
1.543:67912,24
1.544:67913,970
1.544:67914,970
1.546:67915,645
1.546:67916,684
1.546:67917,608
1.547:67918,26
1.550:67919,195
1.550:67920,26
1.550:67921,25
1.551:67922,25
1.551:67923,24
1.554:67924,24
1.554:67926,24
1.554:67927,23
1.554:67928,23
1.559:67929,23
1.560:67930,23
1.560:67931,23
1.561:67931,23
1.562:67932,969
1.562:67933,969
1.563:67934,969
1.563:67935,803
1.567:67936,625
1.567:67937,596
1.567:67938,26
1.567:67939,971
1.571:67940,26
1.571:67941,25
1.571:67942,24
1.571:67943,23
1.576:67944,23
1.578:67945,23
1.579:67946,22
1.579:67947,23
1.579:67948,22
1.580:67949,22
1.580:67950,22
1.580:67951,22
1.583:67952,970
1.583:67953,970
1.583:67954,970
1.583:67955,990
1.587:67956,167
1.587:67957,22
1.587:67958,24
1.587:67959,970
1.591:67960,26
1.592:67961,24
1.594:67962,23
1.595:67963,23
1.595:67964,22
1.596:67965,21
1.596:67966,21
1.596:67968,21
1.597:67969,21
1.599:67970,21
1.599:67971,21
1.600:67972,21
1.600:67973,969
1.603:67974,969
1.603:67974,969
1.604:67975,978
1.604:67976,990
1.609:67977,19
1.610:67978,25
1.610:67979,978
1.611:67980,26
1.611:67981,25
1.611:67982,23
1.612:67983,22
1.612:67984,21
1.616:67985,21
1.616:67986,21
1.616:67987,21
1.616:67988,21
1.620:67989,21
1.620:67990,20
1.620:67991,21
1.620:67992,969
1.625:67993,969
1.627:67994,973
1.628:67995,991
1.629:67996,632
1.629:67997,108
1.629:67998,20
1.629:67999,20
1.630:68000,26
1.632:68001,24
1.632:68002,22
1.632:68003,21
1.632:68004,21
1.636:68005,20
1.636:68006,20
1.636:68007,20
1.636:68008,20
1.639:68009,20
1.640:68011,20
1.640:68012,20
1.641:68013,969
1.644:68014,969
1.645:68015,977
1.646:68016,915
1.646:68017,273
1.646:68017,19
1.648:68018,22
1.648:68019,633
1.648:68020,26
1.648:68021,24
1.652:68022,21
1.653:68023,21
1.653:68024,20
1.653:68025,20
1.657:68026,20
1.657:68027,20
1.657:68028,19
1.659:68029,20
1.662:68030,19
1.662:68031,19
1.663:68032,969
1.663:68033,970
1.665:68034,977
1.665:68035,987
1.665:68036,202
1.665:68037,22
1.669:68038,21
1.669:68039,26
1.669:68040,26
1.669:68041,23
1.673:68042,21
1.673:68043,20
1.673:68044,19
1.674:68045,19
1.677:68046,19
1.677:68047,19
1.677:68048,19
1.677:68049,19
1.681:68050,19
1.681:68051,19
1.682:68052,969
1.682:68054,970
1.685:68055,976
1.686:68056,987
1.686:68057,888
1.686:68058,19
1.686:68059,23
1.689:68059,26
1.689:68060,26
1.690:68061,22
1.690:68062,20
1.693:68063,19
1.693:68064,19
1.694:68065,19
1.694:68066,18
1.698:68067,18
1.698:68068,18
1.698:68069,18
1.698:68070,19
1.702:68071,18
1.702:68072,970
1.702:68073,970
1.703:68074,974
1.706:68075,972
1.706:68076,982
1.706:68077,611
1.707:68078,24
1.710:68079,26
1.710:68080,27
1.710:68081,22
1.711:68082,20
1.714:68083,19
1.714:68084,18
1.714:68085,19
1.714:68086,18
1.718:68087,18
1.718:68088,18
1.718:68089,18
1.718:68090,18
1.722:68091,18
1.722:68092,970
1.723:68093,969
1.723:68094,972
1.726:68096,986
1.726:68097,991
1.727:68098,251
1.727:68099,908
1.730:68100,26
1.730:68101,26
1.731:68102,22
1.731:68102,20
1.731:68103,19
1.734:68104,18
1.735:68105,18
1.735:68106,18
1.735:68107,18
1.738:68108,18
1.739:68109,18
1.739:68110,18
1.739:68111,18
1.743:68112,970
1.743:68113,969
1.743:68114,970
1.743:68115,977
1.747:68116,990
1.747:68117,20
1.747:68118,322
1.747:68119,26
1.751:68120,26
1.751:68121,22
1.751:68122,20
1.751:68123,19
1.755:68124,19
1.755:68125,18
1.755:68126,18
1.756:68127,18
1.759:68128,18
1.759:68129,18
1.759:68130,18
1.760:68131,18
1.763:68132,970
1.763:68133,970
1.763:68134,971
1.764:68135,979
1.767:68136,987
1.767:68137,493
1.767:68139,981
1.767:68140,26
1.771:68141,25
1.771:68142,21
1.772:68143,20
1.772:68144,19
1.775:68144,19
1.775:68145,18
1.775:68146,18
1.775:68147,18
1.780:68148,18
1.780:68149,18
1.780:68150,18
1.780:68151,18
1.780:68152,969
1.784:68153,970
1.784:68154,979
1.784:68155,987
1.784:68156,988
1.788:68157,24
1.788:68158,988
1.788:68159,26
1.788:68160,24
1.792:68161,21
1.792:68162,20
1.792:68163,19
1.793:68164,19
1.796:68165,18
1.796:68166,18
1.796:68167,18
1.797:68168,18
1.800:68169,18
1.800:68170,18
1.800:68171,981
1.800:68172,970
1.804:68173,970
1.804:68174,983
1.804:68175,985
1.804:68176,983
1.808:68177,26
1.809:68178,970
1.809:68179,26
1.809:68180,24
1.813:68182,21
1.813:68183,20
1.813:68184,19
1.813:68185,18
1.817:68186,18
1.817:68187,18
1.817:68187,18
1.817:68188,18
1.821:68189,18
1.821:68190,18
1.821:68191,969
1.821:68192,969
1.825:68193,969
1.825:68194,987
1.825:68195,982
1.825:68196,979
1.825:68197,25
1.828:68198,985
1.828:68199,26
1.828:68200,24
1.829:68201,21
1.832:68202,19
1.832:68203,19
1.832:68204,18
1.832:68205,18
1.837:68206,18
1.837:68207,18
1.837:68208,18
1.837:68209,18
1.842:68210,18
1.843:68211,969
1.843:68212,969
1.844:68213,969
1.845:68214,985
1.846:68215,983
1.846:68216,982
1.846:68217,23
1.849:68218,971
1.850:68219,27
1.850:68220,24
1.850:68221,21
1.853:68222,19
1.854:68224,19
1.854:68225,18
1.854:68226,18
1.858:68227,18
1.858:68228,18
1.858:68229,18
1.858:68230,18
1.861:68230,18
1.862:68231,969
1.862:68232,969
1.862:68233,969
1.866:68234,973
1.866:68235,987
1.866:68236,350
1.866:68237,21
1.870:68238,970
1.870:68239,26
1.870:68240,23
1.870:68241,20
1.870:68242,19
1.874:68243,19
1.874:68244,18
1.874:68245,18
1.874:68246,18
1.878:68247,18
1.878:68248,18
1.878:68249,18
1.878:68250,18
1.882:68251,969
1.882:68252,970
1.882:68253,971
1.882:68254,971
1.886:68255,972
1.886:68256,979
1.886:68257,23
1.887:68258,977
1.890:68259,26
1.890:68260,23
1.890:68261,20
1.891:68262,19
1.894:68263,19
1.894:68264,19
1.895:68265,18
1.895:68267,18
1.898:68268,18
1.899:68269,18
1.899:68270,18
1.899:68271,18
1.902:68272,969
1.903:68273,970
1.903:68273,975
1.903:68274,978
1.906:68275,981
1.906:68276,979
1.907:68277,19
1.907:68278,420
1.911:68279,26
1.911:68280,23
1.911:68281,20
1.911:68282,19
1.915:68283,19
1.915:68284,19
1.915:68285,18
1.915:68286,18
1.915:68287,18
1.919:68288,18
1.919:68289,18
1.919:68290,18
1.919:68291,969
1.923:68292,969
1.923:68293,976
1.923:68294,977
1.923:68295,973
1.927:68296,975
1.927:68297,23
1.927:68298,26
1.927:68299,26
1.931:68300,22
1.931:68301,20
1.931:68302,19
1.931:68303,19
1.935:68304,19
1.935:68305,18
1.935:68306,18
1.935:68307,18
1.939:68308,18
1.939:68310,19
1.940:68311,18
1.940:68312,970
1.943:68313,969
1.944:68314,978
1.944:68315,975
1.944:68315,974
1.947:68316,980
1.948:68317,26
1.948:68318,26
1.948:68319,26
1.951:68320,22
1.952:68321,20
1.952:68322,19
1.952:68323,19
1.955:68324,18
1.955:68325,19
1.956:68326,18
1.956:68327,18
1.960:68328,18
1.960:68329,18
1.960:68330,18
1.960:68331,970
1.963:68332,970
1.963:68333,983
1.963:68334,983
1.964:68335,988
1.968:68336,854
1.968:68337,19
1.968:68338,26
1.969:68339,26
1.969:68340,22
1.972:68341,20
1.972:68342,19
1.972:68343,18
1.973:68344,19
1.976:68345,18
1.976:68346,18
1.976:68347,18
1.976:68348,18
1.980:68349,18
1.980:68350,18
1.980:68352,970
1.980:68353,970
1.984:68354,980
1.984:68355,981
1.984:68356,983
1.985:68357,858
1.988:68358,24
1.988:68358,26
1.989:68359,26
1.989:68360,22
1.992:68361,20
1.992:68362,18
1.992:68363,18
1.993:68364,18
1.997:68365,18
1.997:68366,18
1.997:68367,18
1.997:68368,18
2.001:68369,18
2.001:68370,18
2.001:68371,970
2.001:68372,970
2.005:68373,984
2.005:68374,986
2.005:68375,837
2.005:68376,276
2.009:68377,838
2.009:68378,26
2.009:68379,25
2.009:68380,21
2.009:68381,19
2.012:68382,19
2.013:68383,18
2.013:68384,18
2.014:68385,18
2.017:68386,18
2.017:68387,18
2.017:68388,18
2.018:68389,18
2.021:68390,18
2.022:68391,969
2.022:68392,970
2.022:68393,985
2.025:68395,984
2.025:68396,602
2.025:68397,265
2.026:68398,990
2.028:68399,27
2.028:68400,25
2.028:68400,21
2.028:68401,19
2.033:68402,18
2.033:68403,18
2.034:68404,18
2.034:68405,18
2.037:68406,18
2.037:68407,17
2.038:68408,18
2.038:68409,18
2.042:68410,18
2.042:68411,969
2.042:68412,970
2.042:68413,974
2.046:68414,975
2.046:68415,977
2.046:68416,789
2.046:68417,153
2.050:68418,26
2.050:68419,24
2.050:68420,21
2.050:68421,19
2.053:68422,18
2.054:68423,18
2.054:68424,18
2.054:68425,18
2.054:68426,18
2.058:68427,18
2.058:68428,18
2.058:68429,18
2.058:68430,18
2.062:68431,969
2.062:68432,969
2.062:68433,970
2.062:68434,971
2.066:68435,978
2.066:68436,26
2.066:68438,228
2.066:68439,26
2.070:68440,24
2.070:68441,21
2.070:68442,19
2.070:68443,19
2.074:68443,18
2.074:68444,18
2.074:68445,18
2.074:68446,18
2.079:68447,18
2.079:68448,18
2.079:68449,18
2.079:68450,969
2.082:68451,970
2.083:68452,970
2.083:68453,971
2.083:68454,981
2.087:68455,992
2.087:68456,26
2.087:68457,970
2.087:68458,26
2.090:68459,24
2.090:68460,21
2.090:68461,19
2.091:68462,19
2.094:68463,18
2.094:68464,18
2.095:68465,18
2.095:68466,18
2.098:68467,18
2.098:68468,18
2.099:68469,18
2.099:68470,970
2.102:68471,970
2.103:68472,969
2.103:68473,982
2.103:68474,979
2.103:68475,982
2.106:68476,23
2.107:68477,970
2.107:68478,26
2.107:68480,24
2.111:68481,21
2.111:68482,19
2.111:68483,18
2.111:68484,18
2.115:68485,18
2.115:68486,18
2.115:68486,18
2.115:68487,18
2.120:68488,18
2.120:68489,18
2.120:68490,970
2.120:68491,969
2.125:68492,969
2.126:68493,976
2.126:68494,973
2.127:68495,981
2.128:68496,23
2.128:68497,979
2.128:68498,26
2.128:68499,23
2.132:68500,20
2.132:68501,19
2.132:68502,19
2.132:68503,18
2.136:68504,18
2.136:68505,18
2.136:68506,18
2.136:68507,18
2.140:68508,18
2.140:68509,18
2.140:68510,970
2.140:68511,970
2.144:68512,970
2.144:68513,971
2.144:68514,974
2.144:68515,989
2.148:68516,22
2.148:68517,986
2.148:68518,26
2.148:68519,23
2.148:68520,20
2.152:68521,19
2.152:68523,19
2.152:68524,18
2.152:68525,18
2.156:68526,18
2.156:68527,18
2.156:68528,18
2.156:68528,18
2.160:68529,18
2.160:68530,969
2.160:68531,970
2.160:68532,970
2.164:68533,985
2.164:68534,989
2.164:68535,347
2.164:68536,18
2.169:68537,980
2.169:68538,26
2.169:68539,22
2.169:68540,20
2.173:68541,19
2.173:68542,19
2.173:68543,18
2.173:68544,18
2.177:68545,18
2.177:68546,18
2.177:68547,18
2.177:68548,18
2.181:68549,18
2.181:68550,970
2.181:68551,970
2.181:68552,970
2.185:68553,978
2.185:68554,987
2.185:68555,486
2.185:68556,20
2.189:68557,991
2.189:68558,26
2.189:68559,22
2.189:68560,20
2.193:68561,19
2.193:68562,19
2.193:68563,18
2.193:68564,18
2.194:68566,18
2.197:68567,18
2.197:68568,18
2.197:68569,18
2.197:68570,18
2.201:68571,969
2.201:68571,969
2.202:68572,970
2.202:68573,974
2.205:68574,986
2.205:68575,559
2.206:68576,19
2.206:68577,20
2.209:68578,26
2.209:68579,22
2.209:68580,20
2.210:68581,19
2.213:68582,19
2.214:68583,18
2.214:68584,18
2.214:68585,18
2.217:68586,18
2.217:68587,18
2.218:68588,18
2.218:68589,18
2.221:68590,970
2.222:68591,970
2.222:68592,973
2.222:68593,983
2.225:68594,987
2.226:68595,988
2.226:68596,24
2.226:68597,26
2.229:68598,26
2.230:68599,22
2.230:68600,20
2.230:68601,19
2.234:68602,18
2.234:68603,18
2.234:68604,18
2.234:68605,18
2.238:68606,18
2.238:68608,18
2.238:68609,18
2.238:68610,18
2.242:68611,969
2.242:68612,969
2.242:68613,974
2.242:68614,982
2.243:68614,984
2.246:68615,985
2.246:68616,24
2.246:68617,26
2.246:68618,26
2.250:68619,22
2.250:68620,20
2.250:68621,19
2.250:68622,18
2.255:68623,18
2.256:68624,18
2.256:68625,18
2.256:68626,18
2.259:68627,18
2.259:68628,18
2.259:68629,17
2.259:68630,969
2.263:68631,970
2.263:68632,970
2.264:68633,975
2.264:68634,985
2.267:68635,551
2.267:68636,21
2.267:68637,26
2.267:68638,26
2.271:68639,22
2.271:68640,20
2.272:68641,19
2.272:68642,18
2.275:68643,18
2.275:68644,18
2.275:68645,18
2.275:68646,18
2.279:68647,18
2.279:68648,18
2.279:68649,18
2.279:68651,970
2.283:68652,970
2.283:68653,970
2.283:68654,971
2.283:68655,977
2.287:68656,875
2.287:68657,24
2.287:68657,26
2.288:68658,26
2.288:68659,21
2.291:68660,20
2.291:68661,19
2.291:68662,18
2.291:68663,18
2.295:68664,18
2.295:68665,18
2.295:68666,18
2.295:68667,18
2.300:68668,18
2.300:68669,18
2.300:68670,970
2.300:68671,970
2.303:68672,983
2.304:68673,978
2.304:68674,981
2.304:68675,989
2.308:68676,665
2.308:68677,26
2.308:68678,25
2.308:68679,21
2.312:68680,20
2.312:68681,19
2.312:68682,18
2.312:68683,18
2.316:68684,18
2.316:68685,18
2.316:68686,18
2.316:68687,18
2.320:68688,18
2.320:68689,18
2.321:68690,970
2.321:68691,970
2.324:68692,985
2.325:68694,983
2.325:68695,661
2.325:68696,26
2.328:68697,989
2.328:68698,26
2.328:68699,25
2.328:68699,21
2.332:68700,19
2.332:68701,18
2.332:68702,18
2.333:68703,18
2.333:68704,18
2.336:68705,18
2.336:68706,18
2.336:68707,18
2.336:68708,18
2.346:68709,17
2.346:68710,969
2.346:68711,970
2.346:68712,977
2.346:68713,983
2.346:68714,806
2.347:68715,26
2.347:68716,969
2.348:68717,26
2.348:68718,24
2.348:68719,21
2.348:68720,19
2.352:68721,18
2.353:68722,18
2.353:68723,18
2.353:68724,18
2.356:68725,18
2.357:68726,19
2.357:68727,18
2.357:68728,18
2.361:68729,981
2.361:68730,970
2.361:68731,969
2.361:68732,983
2.365:68733,984
2.365:68734,988
2.365:68736,24
2.365:68737,970
2.369:68738,26
2.369:68739,24
2.369:68740,20
2.369:68741,19
2.373:68742,18
2.373:68742,18
2.374:68743,18
2.374:68744,18
2.377:68745,18
2.377:68746,18
2.377:68747,18
2.378:68748,18
2.378:68749,18
2.381:68750,969
2.381:68751,970
2.381:68752,977
2.382:68753,975
2.385:68754,989
2.385:68755,23
2.385:68756,984
2.386:68757,26
2.389:68758,23
2.390:68759,20
2.390:68760,19
2.390:68761,18
2.393:68762,18
2.394:68763,18
2.394:68764,18
2.394:68765,18
2.398:68766,18
2.398:68767,18
2.398:68768,17
2.398:68769,969
2.402:68770,969
2.402:68771,970
2.402:68772,971
2.402:68773,973
2.407:68774,981
2.408:68775,23
2.408:68776,976
2.409:68777,26
2.410:68779,23
2.410:68780,20
2.410:68781,19
2.410:68782,18
2.414:68783,18
2.414:68784,18
2.414:68784,18
2.414:68785,18
2.418:68786,18
2.418:68787,18
2.418:68788,18
2.419:68789,970
2.422:68790,969
2.422:68791,969
2.423:68792,975
2.423:68793,972
2.426:68794,982
2.426:68795,22
2.427:68796,985
2.427:68797,26
2.427:68798,23
2.430:68799,20
2.430:68800,19
2.430:68801,18
2.431:68802,18
2.434:68803,18
2.434:68804,18
2.435:68805,18
2.435:68806,18
2.439:68807,18
2.439:68808,18
2.439:68809,970
2.439:68810,970
2.443:68811,970
2.443:68812,975
2.443:68813,976
2.444:68814,987
2.447:68815,18
2.447:68816,19
2.447:68817,26
2.447:68818,22
2.451:68819,20
2.451:68820,19
2.451:68822,18
2.451:68823,18
2.455:68824,18
2.455:68825,18
2.456:68826,18
2.456:68827,18
2.459:68827,18
2.459:68828,18
2.459:68829,969
2.459:68830,970
2.463:68831,971
2.463:68832,976
2.463:68833,981
2.464:68834,984
2.467:68835,18
2.467:68836,24
2.467:68837,26
2.468:68838,22
2.468:68839,20
2.471:68840,19
2.472:68841,18
2.472:68842,18
2.472:68843,18
2.475:68844,18
2.475:68845,18
2.475:68846,18
2.476:68847,18
2.479:68848,18
2.479:68849,970
2.480:68850,970
2.480:68851,976
2.484:68852,977
2.485:68853,974
2.485:68854,979
2.485:68855,19
2.488:68856,26
2.488:68857,27
2.488:68858,22
2.488:68859,20
2.492:68860,19
2.492:68861,18
2.492:68862,18
2.492:68864,18
2.496:68865,18
2.496:68866,18
2.496:68867,18
2.496:68868,18
2.500:68869,18
2.500:68870,969
2.500:68870,970
2.500:68871,973
2.504:68872,975
2.504:68873,980
2.504:68874,986
2.504:68875,18
2.509:68876,26
2.509:68877,26
2.509:68878,22
2.509:68879,20
2.513:68880,19
2.513:68881,18
2.513:68882,18
2.513:68883,18
2.517:68884,18
2.517:68885,18
2.517:68886,18
2.517:68887,18
2.518:68888,18
2.521:68889,970
2.521:68890,970
2.521:68891,971
2.521:68892,976
2.525:68893,980
2.525:68894,983
2.525:68895,170
2.525:68896,26
2.529:68897,26
2.529:68898,21
2.529:68899,20
2.529:68900,19
2.533:68901,19
2.533:68902,18
2.533:68903,18
2.534:68904,18
2.537:68905,18
2.537:68907,18
2.537:68908,18
2.538:68909,18
2.541:68910,969
2.541:68911,969
2.542:68912,976
2.542:68913,970
2.545:68913,974
2.545:68914,983
2.546:68915,22
2.546:68916,27
2.549:68917,25
2.549:68918,21
2.550:68919,20
2.550:68920,19
2.553:68921,19
2.553:68922,18
2.554:68923,18
2.554:68924,18
2.557:68925,18
2.558:68926,18
2.558:68927,18
2.558:68928,18
2.562:68929,970
2.562:68930,969
2.562:68931,970
2.562:68932,971
2.566:68933,977
2.566:68934,336
2.566:68935,20
2.566:68936,26
2.566:68937,25
2.570:68938,21
2.570:68939,20
2.570:68940,19
2.570:68941,18
2.574:68942,18
2.574:68943,18
2.574:68944,18
2.574:68945,18
2.578:68946,18
2.578:68947,18
2.578:68948,18
2.578:68950,969
2.582:68951,969
2.582:68952,976
2.582:68953,979
2.583:68954,984
2.586:68955,26
2.586:68955,990
2.586:68956,26
2.587:68957,25
2.590:68958,21
2.590:68959,19
2.590:68960,19
2.590:68961,18
2.594:68962,18
2.594:68963,18
2.594:68964,18
2.594:68965,18
2.599:68966,18
2.599:68967,18
2.599:68968,18
2.599:68969,969
2.603:68970,970
2.603:68971,977
2.603:68972,979
2.603:68973,991
2.607:68974,26
2.607:68975,19
2.607:68976,26
2.607:68977,24
2.608:68978,21
2.611:68979,19
2.611:68980,18
2.611:68981,18
2.611:68982,18
2.615:68983,18
2.615:68984,18
2.615:68985,18
2.615:68986,18
2.619:68987,18
2.619:68988,970
2.619:68989,970
2.619:68990,970
2.623:68992,973
2.623:68993,976
2.624:68994,899
2.624:68995,24
2.627:68996,970
2.627:68997,26
2.627:68998,24
2.627:68998,21
2.631:68999,19
2.631:69000,19
2.632:69001,18
2.632:69002,18
2.635:69003,18
2.635:69004,18
2.635:69005,18
2.635:69006,18
2.640:69007,18
2.640:69008,969
2.640:69009,970
2.640:69010,969
2.643:69011,981
2.644:69012,983
2.644:69013,992
2.644:69014,23
2.648:69015,975
2.648:69016,26
2.648:69017,24
2.648:69018,21
2.651:69019,19
2.652:69020,19
2.652:69021,18
2.652:69022,18
2.656:69023,18
2.658:69024,18
2.658:69025,18
2.659:69026,18
2.659:69027,18
2.660:69028,969
2.660:69029,970
2.660:69030,969
2.660:69031,975
2.664:69032,975
2.664:69033,990
2.664:69035,23
2.665:69036,980
2.668:69037,26
2.668:69038,23
2.668:69039,20
2.668:69040,19
2.672:69040,18
2.672:69041,18
2.672:69042,18
2.673:69043,18
2.676:69044,18
2.677:69045,18
2.677:69046,18
2.677:69047,18
2.680:69048,969
2.681:69049,969
2.681:69050,970
2.681:69051,971
2.684:69052,970
2.685:69053,977
2.685:69054,21
2.685:69055,972
2.688:69056,26
2.689:69057,23
2.689:69058,20
2.689:69059,19
2.692:69060,19
2.693:69061,18
2.693:69062,18
2.693:69063,18
2.696:69064,18
2.697:69065,18
2.697:69066,18
2.697:69067,18
2.701:69068,970
2.701:69069,970
2.701:69070,970
2.701:69071,972
2.705:69072,976
2.705:69073,983
2.705:69074,21
2.706:69075,979
2.706:69076,26
2.709:69078,23
2.709:69079,20
2.710:69080,19
2.710:69081,18
2.713:69082,18
2.713:69083,18
2.714:69083,18
2.714:69084,18
2.717:69085,18
2.717:69086,18
2.717:69087,18
2.718:69088,969
2.721:69089,969
2.721:69090,972
2.722:69091,970
2.722:69092,976
2.726:69093,978
2.726:69094,21
2.726:69095,985
2.726:69096,26
2.730:69097,22
2.730:69098,20
2.730:69099,19
2.730:69100,19
2.733:69101,18
2.733:69102,18
2.734:69103,18
2.734:69104,18
2.737:69105,18
2.737:69106,18
2.737:69107,18
2.738:69108,970
2.741:69109,970
2.741:69110,971
2.742:69111,970
2.742:69112,971
2.745:69113,977
2.746:69114,22
2.746:69115,19
2.746:69116,26
2.746:69117,22
2.749:69118,20
2.749:69120,19
2.750:69121,19
2.750:69122,19
2.753:69123,18
2.754:69124,18
2.754:69125,18
2.754:69126,18
2.758:69126,18
2.758:69127,18
2.758:69128,969
2.758:69129,969
2.762:69130,971
2.762:69131,981
2.763:69132,990
2.763:69133,735
2.766:69134,18
2.766:69135,26
2.766:69136,26
2.767:69137,22
2.770:69138,20
2.770:69139,19
2.771:69140,19
2.771:69141,18
2.774:69142,18
2.774:69143,18
2.774:69144,18
2.774:69145,18
2.778:69146,18
2.778:69147,18
2.778:69148,969
2.779:69149,969
2.782:69150,970
2.782:69151,980
2.783:69152,987
2.783:69153,21
2.786:69154,45
2.787:69155,26
2.787:69156,26
2.787:69157,22
2.791:69158,20
2.791:69159,19
2.791:69160,19
2.791:69161,18
2.792:69163,18
2.795:69164,18
2.795:69165,18
2.795:69166,18
2.795:69167,18
2.799:69168,18
2.799:69168,969
2.799:69169,969
2.799:69170,970
2.803:69171,980
2.803:69172,990
2.803:69173,19
2.804:69174,990
2.807:69175,26
2.807:69176,26
2.807:69177,21
2.807:69178,20
2.811:69179,19
2.812:69180,19
2.812:69181,18
2.812:69182,18
2.815:69183,18
2.815:69184,18
2.815:69185,18
2.815:69186,18
2.820:69187,18
2.820:69188,969
2.820:69189,970
2.820:69190,975
2.823:69191,977
2.823:69192,980
2.823:69193,992
2.825:69194,254
2.828:69195,26
2.828:69196,25
2.828:69197,21
2.828:69198,20
2.832:69199,19
2.832:69200,18
2.832:69201,18
2.832:69202,18
2.836:69203,18
2.836:69204,18
2.836:69206,18
2.836:69207,18
2.840:69208,18
2.840:69209,969
2.840:69210,970
2.840:69211,975
2.843:69211,970
2.844:69212,976
2.844:69213,26
2.844:69214,25
2.844:69215,26
2.848:69216,25
2.848:69217,21
2.848:69218,20
2.848:69219,19
2.852:69220,18
2.852:69221,18
2.853:69222,18
2.853:69223,18
2.856:69224,18
2.856:69225,18
2.856:69226,18
2.857:69227,17
2.860:69228,970
2.861:69229,969
2.861:69230,970
2.862:69231,972
2.864:69232,981
2.864:69233,26
2.865:69234,18
2.865:69235,26
2.868:69236,24
2.869:69237,20
2.869:69238,19
2.869:69239,19
2.873:69240,18
2.873:69241,18
2.873:69242,18
2.873:69243,18
2.876:69244,18
2.877:69245,18
2.877:69246,18
2.877:69248,969
2.881:69249,970
2.881:69250,969
2.881:69251,969
2.881:69252,975
2.885:69253,988
2.885:69254,25
2.885:69254,971
2.885:69255,26
2.885:69256,24
2.889:69257,21
2.889:69258,19
2.889:69259,19
2.889:69260,18
2.893:69261,18
2.893:69262,18
2.893:69263,18
2.893:69264,18
2.898:69265,18
2.898:69266,18
2.898:69267,970
2.898:69268,970
2.901:69269,969
2.902:69270,975
2.902:69271,971
2.902:69272,975
2.906:69273,24
2.906:69274,980
2.906:69275,26
2.906:69276,24
2.910:69277,21
2.910:69278,20
2.910:69279,19
2.911:69280,18
2.914:69281,18
2.914:69282,18
2.914:69283,18
2.915:69284,18
2.918:69285,18
2.918:69286,18
2.918:69287,969
2.919:69288,970
2.923:69289,970
2.924:69291,971
2.926:69292,975
2.926:69293,990
2.926:69294,22
2.926:69295,269
2.926:69296,26
2.927:69296,24
2.930:69297,20
2.930:69298,19
2.930:69299,19
2.930:69300,18
2.930:69301,18
2.933:69302,18
2.934:69303,18
2.934:69304,18
2.934:69305,18
2.938:69306,18
2.938:69307,969
2.938:69308,970
2.938:69309,970
2.942:69310,973
2.942:69311,973
2.942:69312,980
2.942:69313,22
2.947:69314,972
2.947:69315,26
2.947:69316,23
2.947:69317,21
2.951:69318,19
2.951:69319,19
2.951:69320,18
2.952:69321,18
2.955:69322,18
2.955:69323,18
2.956:69324,18
2.956:69325,18
2.959:69326,18
2.959:69327,970
2.959:69328,969
2.959:69329,970
2.963:69330,973
2.963:69331,972
2.963:69332,979
2.964:69334,21
2.967:69335,24
2.967:69336,26
2.967:69337,23
2.967:69338,20
2.970:69339,19
2.971:69339,19
2.971:69340,18
2.971:69341,18
2.975:69342,18
2.975:69343,18
2.975:69344,18
2.975:69345,18
2.975:69346,18
2.979:69347,970
2.979:69348,970
2.979:69349,970
2.979:69350,971
2.983:69351,976
2.983:69352,305
2.983:69353,24
2.983:69354,26
2.987:69355,26
2.987:69356,22
2.987:69357,20
2.987:69358,19
2.992:69359,19
2.992:69360,18
2.992:69361,18
2.992:69362,18
2.996:69363,18
2.996:69364,18
2.996:69365,18
2.996:69366,17
3.000:69367,970
3.000:69368,969
3.000:69369,972
3.000:69370,970
3.004:69371,971
3.004:69372,985
3.005:69373,26
3.005:69374,26
3.008:69376,26
3.008:69377,22
3.008:69378,20
3.008:69379,19
3.012:69380,18
3.012:69381,18
3.012:69382,18
3.012:69382,18
3.016:69383,18
3.017:69384,18
3.017:69385,18
3.017:69386,18
3.020:69387,970
3.021:69388,969
3.021:69389,971
3.021:69390,971
3.024:69391,971
3.024:69392,990
3.024:69393,25
3.025:69394,26
3.025:69395,26
3.028:69396,22
3.028:69397,20
3.029:69398,19
3.030:69399,18
3.032:69400,18
3.032:69401,18
3.033:69402,18
3.033:69403,18
3.037:69404,18
3.038:69405,18
3.038:69406,18
3.041:69407,970
3.043:69408,970
3.044:69409,970
3.044:69410,971
3.045:69411,975
3.045:69412,985
3.046:69413,24
3.046:69414,26
3.046:69415,26
3.049:69416,22
3.049:69417,20
3.049:69419,19
3.049:69420,18
3.053:69421,18
3.054:69422,18
3.055:69423,18
3.055:69424,18
3.058:69424,18
3.060:69425,18
3.060:69426,18
3.060:69427,969
3.061:69428,969
3.061:69429,974
3.061:69430,973
3.062:69431,980
3.065:69432,983
3.065:69433,20
3.065:69434,26
3.066:69435,26
3.069:69436,22
3.069:69437,20
3.070:69438,19
3.070:69439,19
3.070:69440,18
3.076:69441,18
3.076:69442,18
3.076:69443,18
3.076:69444,18
3.078:69445,18
3.078:69446,18
3.078:69447,969
3.079:69448,969
3.082:69449,971
3.082:69450,972
3.082:69451,976
3.082:69452,989
3.086:69453,18
3.086:69454,26
3.086:69455,26
3.086:69456,21
3.090:69457,20
3.091:69458,19
3.091:69459,19
3.092:69460,19
3.094:69462,18
3.094:69463,18
3.095:69464,18
3.096:69465,18
3.098:69466,18
3.098:69467,17
3.098:69467,969
3.098:69468,969
3.102:69469,970
3.102:69470,970
3.102:69471,977
3.102:69472,22
3.106:69473,22
3.107:69474,26
3.107:69475,25
3.108:69476,21
3.110:69477,20
3.110:69478,19
3.111:69479,19
3.111:69480,18
3.114:69481,18
3.114:69482,18
3.114:69483,18
3.114:69484,18
3.114:69485,18
3.119:69486,18
3.119:69487,970
3.119:69488,970
3.119:69489,971
3.127:69490,970
3.128:69491,973
3.129:69492,26
3.129:69493,25
3.130:69494,26
3.131:69495,25
3.131:69496,21
3.132:69497,19
3.132:69498,19
3.132:69499,19
3.133:69500,18
3.134:69501,18
3.136:69502,18
3.136:69504,19
3.150:69505,18
3.151:69506,18
3.152:69507,986
3.215:69508,969
3.215:69509,969
3.216:69510,970
3.217:69510,978
3.220:69511,988
3.227:69512,26
3.228:69513,989
3.228:69514,26
3.229:69515,25
3.229:69516,21
3.229:69517,19
3.230:69518,19
3.230:69519,19
3.231:69520,18
3.231:69521,18
3.232:69522,18
3.232:69523,18
3.233:69524,18
3.233:69525,18
3.233:69526,970
3.235:69527,970
3.236:69528,970
3.236:69529,971
3.245:69530,982
3.250:69531,683
3.253:69532,24
3.253:69533,969
3.298:69534,26
3.299:69535,24
3.302:69536,21
3.308:69537,19
3.308:69538,19
3.309:69539,18
3.309:69540,18
3.310:69541,18
3.386:69542,18
3.393:69543,18
3.394:69544,18
3.397:69545,18
3.399:69547,970
3.402:69548,970
3.417:69549,969
3.434:69550,975
3.434:69551,986
3.444:69552,364
3.446:69553,24
3.448:69553,971
3.450:69554,26
3.452:69555,24
3.494:69556,20
3.510:69557,19
3.513:69558,18
3.529:69559,18
3.569:69560,18
3.582:69561,18
3.584:69562,18
3.590:69563,17
3.597:69564,18
3.597:69565,18
3.597:69566,969
3.597:69567,970
3.598:69568,970
3.599:69569,970
3.599:69570,971
3.599:69571,983
3.599:69572,23
3.600:69573,20
3.601:69574,26
3.601:69575,23
3.601:69576,20
3.606:69577,19
3.606:69578,18
3.610:69579,18
3.616:69580,18
3.620:69581,18
3.621:69582,18
3.622:69583,18
3.624:69584,18
3.628:69585,18
3.629:69586,970
3.630:69587,970
3.630:69588,970
3.630:69590,971
3.631:69591,980
3.631:69592,991
3.632:69593,25
3.632:69594,974
3.632:69595,26
3.633:69595,23
3.633:69596,20
3.634:69597,19
3.634:69598,18
3.634:69599,18
3.635:69600,18
3.642:69601,18
3.651:69602,18
3.651:69603,18
3.659:69604,18
3.679:69605,18
3.682:69606,970
3.684:69607,969
3.692:69608,970
3.694:69609,970
3.697:69610,981
3.700:69611,717
3.700:69612,23
3.709:69613,26
3.709:69614,26
3.726:69615,23
3.728:69616,20
3.730:69617,19
3.731:69618,18
3.733:69619,18
3.734:69620,18
3.734:69621,18
3.736:69622,18
3.737:69623,18
3.742:69624,18
3.743:69625,18
3.750:69626,970
3.751:69627,969
3.751:69628,970
3.760:69629,970
3.765:69630,972
3.768:69632,983
3.770:69633,26
3.770:69634,26
3.771:69635,26
3.777:69636,22
3.780:69637,20
3.781:69638,19
3.783:69638,18
3.785:69639,18
3.788:69640,18
3.793:69641,18
3.793:69642,18
3.794:69643,18
3.794:69644,18
3.794:69645,18
3.795:69646,969
3.795:69647,970
3.795:69648,970
3.796:69649,977
3.796:69650,986
3.796:69651,989
3.797:69652,21
3.797:69653,24
3.797:69654,26
3.798:69655,22
3.798:69656,20
3.798:69657,19
3.799:69658,18
3.799:69659,18
3.799:69660,18
3.800:69661,18
3.800:69662,18
3.800:69663,18
3.801:69664,18
3.801:69665,18
3.801:69666,970
3.809:69667,970
3.810:69668,970
3.814:69669,974
3.815:69670,981
3.817:69671,369
3.817:69672,139
3.817:69673,26
3.818:69675,26
3.819:69676,22
3.820:69677,20
3.824:69678,19
3.825:69679,18
3.828:69680,18
3.830:69680,18
3.831:69681,18
3.832:69682,18
3.833:69683,18
3.833:69684,18
3.833:69685,18
3.834:69686,969
3.834:69687,969
3.834:69688,971
3.835:69689,971
3.836:69690,971
3.838:69691,981
3.840:69692,497
3.844:69693,26
3.846:69694,26
3.847:69695,21
3.848:69696,20
3.849:69697,19
3.850:69698,19
3.850:69699,18
3.850:69700,18
3.851:69701,18
3.851:69702,18
3.858:69703,18
3.861:69704,18
3.863:69705,18
3.864:69706,969
3.866:69707,970
3.866:69708,971
3.867:69709,974
3.867:69710,983
3.867:69711,845
3.867:69712,19
3.868:69713,26
3.868:69714,25
3.869:69715,21
3.869:69716,20
3.873:69718,19
3.874:69719,18
3.879:69720,18
3.880:69721,18
3.881:69722,18
3.882:69723,18
3.882:69723,18
3.882:69724,18
3.882:69725,18
3.883:69726,969
3.883:69727,970
3.883:69728,972
3.884:69729,976
3.884:69730,983
3.884:69731,188
3.884:69732,184
3.884:69733,26
3.884:69734,25
3.886:69735,21
3.888:69736,20
3.890:69737,19
3.891:69738,18
3.892:69739,18
3.892:69740,18
3.894:69741,18
3.897:69742,18
3.898:69743,18
3.899:69744,18
3.900:69745,18
3.901:69746,969
3.901:69747,970
3.906:69748,971
3.906:69749,971
3.907:69750,977
3.907:69751,26
3.909:69752,19
3.913:69753,26
3.914:69754,25
3.915:69755,21
3.916:69756,19
3.916:69757,19
3.916:69758,18
3.917:69760,18
3.917:69761,18
3.917:69762,18
3.917:69763,18
3.918:69764,18
3.919:69765,18
3.921:69766,18
3.923:69766,970
3.923:69767,969
3.924:69768,972
3.924:69769,975
3.924:69770,986
3.925:69771,26
3.928:69772,19
3.930:69773,26
3.931:69774,24
3.933:69775,21
3.933:69776,19
3.933:69777,19
3.934:69778,18
3.934:69779,18
3.934:69780,18
3.934:69781,18
3.934:69782,18
3.935:69783,18
3.936:69784,18
3.939:69785,969
3.939:69786,970
3.940:69787,969
3.942:69788,977
3.945:69789,985
3.947:69790,989
3.947:69791,25
3.947:69792,969
3.948:69793,26
3.948:69794,24
3.948:69795,21
3.948:69796,19
3.948:69797,19
3.949:69798,18
3.949:69799,18
3.949:69800,18
3.949:69801,18
3.949:69803,18
3.950:69804,18
3.950:69805,18
3.950:69806,969
3.950:69807,969
3.950:69808,969
3.950:69809,969
3.951:69809,971
3.951:69810,971
3.954:69811,23
3.956:69812,978
3.956:69813,26
3.957:69814,24
3.957:69815,21
3.957:69816,19
3.957:69817,19
3.957:69818,18
3.958:69819,18
3.959:69820,18
3.961:69821,18
3.965:69822,18
3.966:69823,18
3.966:69824,18
3.966:69825,969
3.967:69826,970
3.967:69827,970
3.967:69828,973
3.967:69829,975
3.968:69830,986
3.969:69831,25
3.973:69832,18
3.973:69833,26
3.974:69834,23
3.974:69835,20
3.977:69836,19
3.979:69837,19
3.979:69838,18
3.980:69839,18
3.981:69840,18
3.981:69841,18
3.982:69842,18
3.982:69843,18
3.982:69844,18
3.983:69846,970
3.983:69847,970
3.983:69848,969
3.984:69849,972
3.984:69850,974
3.984:69851,981
3.987:69851,22
3.988:69852,972
3.989:69853,26
3.990:69854,23
3.991:69855,20
3.991:69856,19
3.991:69857,19
3.994:69858,18
3.996:69859,18
3.997:69860,18
3.998:69861,18
3.999:69862,18
3.999:69863,18
3.999:69864,18
3.999:69865,970
3.999:69866,970
4.000:69867,971
4.000:69868,973
4.000:69869,975
4.000:69870,985
4.000:69871,23
4.001:69872,978
4.001:69873,26
4.001:69874,23
4.005:69875,21
4.006:69876,19
4.008:69877,19
4.010:69878,18
4.011:69879,18
4.011:69880,18
4.012:69881,18
4.013:69882,18
4.013:69883,18
4.014:69884,18
4.014:69885,969
4.014:69886,970
4.014:69888,973
4.014:69889,976
4.015:69890,982
4.015:69891,108
4.015:69892,26
4.015:69893,20
4.015:69894,26
4.015:69894,22
4.016:69895,20
4.016:69896,19
4.016:69897,18
4.016:69898,18
4.016:69899,18
4.016:69900,18
4.017:69901,18
4.017:69902,18
4.017:69903,18
4.017:69904,18
4.017:69905,969
4.018:69906,970
4.020:69907,970
4.021:69908,981
4.022:69909,983
4.023:69910,973
4.023:69911,22
4.023:69912,992
4.024:69913,26
4.026:69914,22
4.027:69915,20
4.028:69916,19
4.029:69917,18
4.030:69918,18
4.030:69919,18
4.031:69920,18
4.032:69921,18
4.032:69922,18
4.032:69923,18
4.033:69924,19
4.033:69925,969
4.033:69926,970
4.034:69927,970
4.034:69928,970
4.034:69929,970
4.035:69931,978
4.036:69932,25
4.038:69933,26
4.039:69934,26
4.040:69935,22
4.040:69936,20
4.042:69936,19
4.044:69937,18
4.045:69938,18
4.046:69939,18
4.046:69940,18
4.047:69941,18
4.047:69942,18
4.047:69943,18
4.047:69944,18
4.048:69945,969
4.048:69946,970
4.048:69947,971
4.048:69948,972
4.048:69949,975
4.049:69950,978
4.049:69951,20
4.049:69952,26
4.049:69953,26
4.049:69954,22
4.049:69955,20
4.050:69956,19
4.050:69957,18
4.050:69958,18
4.050:69959,18
4.050:69960,18
4.051:69961,18
4.051:69962,18
4.051:69963,18
4.052:69964,18
4.054:69965,970
4.054:69966,970
4.054:69967,971
4.054:69968,970
4.055:69969,971
4.055:69970,976
4.057:69971,23
4.058:69972,26
4.059:69974,26
4.059:69975,22
4.060:69976,20
4.061:69977,19
4.062:69978,18
4.062:69979,18
4.062:69979,18
4.062:69980,18
4.062:69981,18
4.063:69982,18
4.063:69983,18
4.063:69984,18
4.063:69985,969
4.063:69986,969
4.064:69987,973
4.064:69988,971
4.064:69989,971
4.064:69990,988
4.064:69991,22
4.065:69992,26
4.065:69993,26
4.065:69994,21
4.065:69995,20
4.065:69996,19
4.065:69997,18
4.066:69998,18
4.066:69999,18
4.066:70000,18
4.066:70001,18
4.066:70002,18
4.066:70003,18
4.067:70004,18
4.067:70005,969
4.067:70006,970
4.067:70007,976
4.067:70008,979
4.068:70009,986
4.068:70010,20
4.069:70011,21
4.069:70012,26
4.070:70013,25
4.070:70014,21
4.070:70016,19
4.071:70017,19
4.072:70018,18
4.073:70019,18
4.073:70020,18
4.074:70021,18
4.075:70022,18
4.075:70022,18
4.075:70023,18
4.076:70024,18
4.076:70025,969
4.076:70026,970
4.076:70027,972
4.076:70028,972
4.077:70029,982
4.077:70030,26
4.077:70031,23
4.077:70032,26
4.077:70033,24
4.078:70034,21
4.078:70035,19
4.078:70036,19
4.078:70037,18
4.078:70038,18
4.078:70039,18
4.079:70040,18
4.079:70041,18
4.079:70042,17
4.079:70043,18
4.079:70044,17
4.079:70045,969
4.080:70046,970
4.080:70047,972
4.080:70048,976
4.080:70049,982
4.080:70050,26
4.081:70051,982
4.081:70052,26
4.081:70053,24
4.081:70054,21
4.081:70055,19
4.081:70056,18
4.082:70057,18
4.082:70059,18
4.082:70060,18
4.082:70061,18
4.082:70062,18
4.082:70063,18
4.083:70064,18
4.083:70064,969
4.083:70065,969
4.083:70066,969
4.084:70067,972
4.084:70068,981
4.084:70069,815
4.084:70070,24
4.085:70071,970
4.085:70072,26
4.085:70073,24
4.086:70074,21
4.086:70075,19
4.086:70076,18
4.087:70077,18
4.087:70078,18
4.087:70079,18
4.089:70080,17
4.090:70081,17
4.090:70082,17
4.091:70083,18
4.091:70084,969
4.092:70085,970
4.092:70086,969
4.093:70087,975
4.093:70088,982
4.093:70089,985
4.093:70090,24
4.093:70091,980
4.094:70092,26
4.094:70093,23
4.094:70094,20
4.094:70095,19
4.094:70096,18
4.094:70097,18
4.095:70098,18
4.095:70099,18
4.095:70100,18
4.095:70102,18
4.095:70103,18
4.095:70104,18
4.096:70105,969
4.096:70106,969
4.096:70107,969
4.096:70107,975
4.096:70108,990
4.097:70109,862
4.097:70110,23
4.097:70111,977
4.097:70112,26
4.097:70113,23
4.097:70114,20
4.098:70115,19
4.098:70116,18
4.098:70117,18
4.098:70118,18
4.098:70119,18
4.099:70120,18
4.099:70121,18
4.099:70122,18
4.099:70123,18
4.099:70124,970
4.099:70125,970
4.100:70126,970
4.100:70127,970
4.100:70128,976
4.100:70129,989
4.100:70130,24
4.100:70131,26
4.101:70132,26
4.101:70133,23
4.101:70134,20
4.101:70135,19
4.102:70136,18
4.102:70137,18
4.102:70138,18
4.102:70139,18
4.102:70140,18
4.103:70141,18
4.103:70142,18
4.103:70144,18
4.103:70145,970
4.103:70146,969
4.103:70147,970
4.104:70148,969
4.104:70149,972
4.104:70150,982
4.104:70150,26
4.104:70151,27
4.105:70152,26
4.105:70153,23
4.105:70154,20
4.105:70155,19
4.105:70156,18
4.105:70157,17
4.106:70158,18
4.106:70159,18
4.106:70160,18
4.106:70161,18
4.106:70162,18
4.106:70163,18
4.107:70164,970
4.107:70165,970
4.107:70166,971
4.107:70167,976
4.107:70168,980
4.108:70169,990
4.109:70170,22
4.109:70171,22
4.109:70172,26
4.110:70173,22
4.110:70174,20
4.111:70175,19
4.111:70176,18
4.111:70177,18
4.112:70178,18
4.112:70179,18
4.112:70180,18
4.113:70181,18
4.113:70182,17
4.113:70183,17
4.114:70184,970
4.114:70185,970
4.115:70187,970
4.115:70188,971
4.116:70189,971
4.116:70190,986
4.116:70191,26
4.116:70192,26
4.117:70192,26
4.117:70193,22
4.117:70194,20
4.117:70195,19
4.117:70196,18
4.117:70197,18
4.118:70198,18
4.118:70199,18
4.118:70200,18
4.118:70201,18
4.118:70202,17
4.119:70203,17
4.119:70204,970
4.119:70205,970
4.119:70206,972
4.119:70207,977
4.120:70208,979
4.120:70209,992
4.120:70210,25
4.120:70211,26
4.120:70212,26
4.120:70213,22
4.121:70214,19
4.121:70215,18
4.121:70216,18
4.121:70217,18
4.121:70218,17
4.121:70219,17
4.122:70220,17
4.122:70221,17
4.122:70222,17
4.122:70223,18
4.122:70224,970
4.123:70225,970
4.123:70226,974
4.123:70227,970
4.123:70228,974
4.123:70230,988
4.123:70231,23
4.124:70232,26
4.124:70233,26
4.124:70234,22
4.124:70235,20
4.124:70235,19
4.125:70236,18
4.125:70237,18
4.125:70238,18
4.125:70239,18
4.125:70240,18
4.125:70241,18
4.126:70242,18
4.126:70243,18
4.126:70244,970
4.126:70245,970
4.126:70246,970
4.127:70247,972
4.127:70248,975
4.127:70249,938
4.127:70250,26
4.127:70251,26
4.127:70252,26
4.128:70253,21
4.128:70254,19
4.128:70255,19
4.128:70256,18
4.128:70257,18
4.128:70258,18
4.129:70259,18
4.129:70260,18
4.129:70261,18
4.129:70262,18
4.129:70263,18
4.130:70264,969
4.130:70265,970
4.130:70266,972
4.130:70267,974
4.130:70268,981
4.130:70269,980
4.131:70270,32
4.131:70272,26
4.131:70273,25
4.131:70274,21
4.131:70275,19
4.132:70276,18
4.132:70277,18
4.132:70278,18
4.132:70278,18
4.132:70279,18
4.132:70280,18
4.133:70281,18
4.133:70282,18
4.133:70283,18
4.133:70284,969
4.133:70285,969
4.133:70286,972
4.134:70287,970
4.134:70288,974
4.134:70289,26
4.134:70290,20
4.134:70291,26
4.135:70292,25
4.135:70293,21
4.135:70294,19
4.135:70295,19
4.135:70296,18
4.136:70297,18
4.136:70298,18
4.136:70299,18
4.136:70300,18
4.136:70301,18
4.136:70302,18
4.137:70303,18
4.137:70304,970
4.137:70305,970
4.137:70306,971
4.137:70307,973
4.138:70308,979
4.138:70309,26
4.138:70310,188
4.138:70311,26
4.138:70312,25
4.138:70313,21
4.139:70315,19
4.139:70316,19
4.139:70317,18
4.139:70318,18
4.139:70319,18
4.139:70320,18
4.140:70320,18
4.140:70321,18
4.140:70322,18
4.140:70323,18
4.140:70324,969
4.141:70325,969
4.141:70326,973
4.141:70327,976
4.141:70328,982
4.141:70329,25
4.142:70330,196
4.142:70331,26
4.142:70332,24
4.142:70333,21
4.142:70334,19
4.142:70335,19
4.143:70336,18
4.143:70337,18
4.143:70338,18
4.143:70339,17
4.143:70340,17
4.143:70341,17
4.144:70342,17
4.144:70343,970
4.144:70344,970
4.144:70345,970
4.144:70346,979
4.145:70347,984
4.145:70348,990
4.145:70349,23
4.145:70350,520
4.145:70351,26
4.146:70352,24
4.146:70353,20
4.146:70354,19
4.146:70355,18
4.146:70356,18
4.146:70358,18
4.147:70359,18
4.147:70360,18
4.147:70361,18
4.147:70362,18
4.147:70363,18
4.147:70363,969
4.148:70364,970
4.148:70365,969
4.148:70366,976
4.148:70367,984
4.148:70368,714
4.149:70369,24
4.149:70370,359
4.149:70371,26
4.149:70372,24
4.149:70373,20
4.149:70374,19
4.150:70375,18
4.150:70376,17
4.150:70377,17
4.150:70378,17
4.150:70379,17
4.150:70380,17
4.151:70381,17
4.151:70382,18
4.151:70383,970
4.151:70384,970
4.151:70385,970
4.152:70386,972
4.152:70387,976
4.152:70388,991
4.153:70389,25
4.153:70390,973
4.153:70391,26
4.153:70392,23
4.153:70393,20
4.153:70394,19
4.154:70395,18
4.154:70396,17
4.154:70397,17
4.154:70398,18
4.154:70400,17
4.154:70401,17
4.155:70402,18
4.155:70403,18
4.155:70404,969
4.155:70405,969
4.155:70406,970
4.156:70406,973
4.156:70407,974
4.156:70408,980
4.156:70409,22
4.156:70410,976
4.157:70411,26
4.157:70412,23
4.157:70413,20
4.157:70414,19
4.157:70415,18
4.157:70416,18
4.158:70417,18
4.158:70418,18
4.158:70419,18
4.158:70420,18
4.158:70421,18
4.158:70422,18
4.159:70423,969
4.159:70424,970
4.159:70425,970
4.159:70426,976
4.159:70427,979
4.160:70428,988
4.160:70429,26
4.160:70430,26
4.160:70431,26
4.160:70432,22
4.160:70433,20
4.161:70434,19
4.161:70435,18
4.161:70436,18
4.161:70437,18
4.161:70438,18
4.161:70439,18
4.162:70440,17
4.162:70441,18
4.162:70443,18
4.162:70444,969
4.162:70445,970
4.163:70446,970
4.163:70447,969
4.163:70448,971
4.163:70449,977
4.163:70449,24
4.163:70450,26
4.164:70451,26
4.164:70452,22
4.164:70453,20
4.164:70454,19
4.164:70455,18
4.165:70456,18
4.165:70457,18
4.165:70458,18
4.165:70459,18
4.165:70460,18
4.165:70461,18
4.166:70462,18
4.166:70463,969
4.166:70464,970
4.166:70465,970
4.166:70466,977
4.166:70467,974
4.167:70468,977
4.167:70469,233
4.167:70470,26
4.167:70471,26
4.167:70472,22
4.168:70473,20
4.168:70474,19
4.168:70475,18
4.168:70476,19
4.169:70477,18
4.169:70478,18
4.169:70479,18
4.169:70480,18
4.170:70481,18
4.171:70482,18
4.171:70483,970
4.171:70484,970
4.171:70486,970
4.172:70487,982
4.172:70488,986
4.172:70489,972
4.173:70490,398
4.173:70491,26
4.173:70491,26
4.173:70492,22
4.173:70493,20
4.173:70494,19
4.174:70495,18
4.174:70496,18
4.174:70497,18
4.174:70498,18
4.174:70499,18
4.175:70500,18
4.175:70501,18
4.175:70502,17
4.175:70503,970
4.175:70504,970
4.175:70505,971
4.176:70506,972
4.176:70507,975
4.176:70508,782
4.176:70509,23
4.176:70510,26
4.177:70511,26
4.177:70512,22
4.177:70513,20
4.177:70514,19
4.177:70515,18
4.177:70516,18
4.178:70517,18
4.178:70518,18
4.178:70519,18
4.178:70520,18
4.178:70521,18
4.178:70522,18
4.179:70523,970
4.179:70524,970
4.179:70525,975
4.179:70526,977
4.179:70528,984
4.180:70529,18
4.180:70530,20
4.180:70531,26
4.180:70532,26
4.180:70533,22
4.180:70534,20
4.181:70534,18
4.181:70535,18
4.181:70536,18
4.181:70537,18
4.181:70538,18
4.181:70539,18
4.182:70540,18
4.182:70541,18
4.182:70542,18
4.182:70543,970
4.182:70544,969
4.183:70545,971
4.183:70546,971
4.183:70547,980
4.183:70548,26
4.183:70549,21
4.184:70550,26
4.184:70551,25
4.184:70552,21
4.187:70553,19
4.187:70554,19
4.188:70555,18
4.190:70556,18
4.192:70557,18
4.192:70558,18
4.193:70559,18
4.193:70560,18
4.195:70561,18
4.195:70562,18
4.196:70563,969
4.196:70564,970
4.200:70565,970
4.200:70566,972
4.201:70567,971
4.202:70568,26
4.203:70569,22
4.204:70571,25
4.205:70572,25
4.205:70573,21
4.208:70574,20
4.208:70575,19
4.208:70576,18
4.209:70576,18
4.212:70577,18
4.212:70578,18
4.212:70579,18
4.213:70580,18
4.216:70581,18
4.217:70582,18
4.218:70583,969
4.219:70584,969
4.220:70585,971
4.221:70586,975
4.222:70587,977
4.222:70588,25
4.224:70589,987
4.224:70590,26
4.225:70591,24
4.225:70592,21
4.226:70593,19
4.228:70594,19
4.228:70595,19
4.229:70596,18
4.229:70597,18
4.232:70598,18
4.232:70599,18
4.233:70600,18
4.233:70601,18
4.237:70602,18
4.238:70603,969
4.238:70604,970
4.239:70605,971
4.241:70606,971
4.241:70607,982
4.242:70608,23
4.242:70609,971
4.244:70610,26
4.245:70611,24
4.245:70612,21
4.246:70614,19
4.248:70615,19
4.249:70616,18
4.249:70617,18
4.250:70618,18
4.253:70619,18
4.254:70619,18
4.255:70620,18
4.256:70621,18
4.257:70622,18
4.257:70623,969
4.258:70624,970
4.258:70625,970
4.261:70626,971
4.262:70627,987
4.262:70628,26
4.262:70629,18
4.265:70630,26
4.265:70631,24
4.266:70632,20
4.266:70633,19
4.269:70634,19
4.270:70635,18
4.270:70636,18
4.270:70637,18
4.271:70638,18
4.273:70639,18
4.273:70640,18
4.274:70641,18
4.274:70642,18
4.277:70643,969
4.277:70644,969
4.278:70645,981
4.278:70646,982
4.281:70647,483
4.282:70648,26
4.282:70649,979
4.283:70650,26
4.285:70651,23
4.286:70652,20
4.286:70653,19
4.287:70654,18
4.291:70656,18
4.291:70657,18
4.292:70658,18
4.292:70659,18
4.293:70660,18
4.294:70661,18
4.294:70662,18
4.294:70662,18
4.298:70663,969
4.298:70664,970
4.299:70665,973
4.299:70666,979
4.302:70667,981
4.302:70668,22
4.302:70669,970
4.302:70670,26
4.306:70671,23
4.306:70672,20
4.306:70673,19
4.307:70674,18
4.310:70675,18
4.310:70676,18
4.310:70677,18
4.310:70678,18
4.314:70679,17
4.314:70680,17
4.314:70681,18
4.314:70682,970
4.318:70683,970
4.318:70684,970
4.318:70685,971
4.319:70686,971
4.319:70687,980
4.322:70688,26
4.322:70689,151
4.322:70690,26
4.323:70691,23
4.326:70692,20
4.326:70693,19
4.327:70694,18
4.327:70695,18
4.330:70696,18
4.331:70697,18
4.331:70699,17
4.331:70700,17
4.335:70701,18
4.335:70702,18
4.335:70703,970
4.336:70704,969
4.338:70705,970
4.339:70705,973
4.339:70706,970
4.339:70707,973
4.342:70708,26
4.343:70709,26
4.343:70710,26
4.343:70711,22
4.353:70712,20
4.356:70713,19
4.357:70714,18
4.357:70715,18
4.357:70716,17
4.358:70717,17
4.358:70718,18
4.358:70719,18
4.359:70720,18
4.359:70721,17
4.359:70722,970
4.360:70723,970
4.360:70724,970
4.360:70725,970
4.360:70726,971
4.361:70727,979
4.361:70728,26
4.363:70729,20
4.363:70730,26
4.364:70731,22
4.364:70732,20
4.367:70733,19
4.367:70734,18
4.368:70735,18
4.368:70736,18
4.371:70737,18
4.372:70738,18
4.372:70739,18
4.372:70740,18
4.375:70742,18
4.376:70743,970
4.376:70744,969
4.376:70745,969
4.380:70746,979
4.380:70747,982
4.380:70747,985
4.380:70748,24
4.383:70749,23
4.384:70750,26
4.384:70751,22
4.384:70752,20
4.388:70753,19
4.390:70754,18
4.390:70755,18
4.390:70756,18
4.392:70757,18
4.392:70758,18
4.392:70759,18
4.392:70760,18
4.396:70761,18
4.397:70762,969
4.398:70763,970
4.398:70764,970
4.400:70765,975
4.401:70766,977
4.402:70767,982
4.402:70768,22
4.404:70769,26
4.405:70770,26
4.406:70771,22
4.406:70772,19
4.408:70773,19
4.408:70774,18
4.409:70775,18
4.409:70776,18
4.409:70777,18
4.412:70778,18
4.412:70779,17
4.413:70780,18
4.413:70781,18
4.416:70782,970
4.417:70784,970
4.417:70785,971
4.417:70786,975
4.421:70787,978
4.421:70788,971
4.421:70789,22
4.421:70790,26
4.425:70790,26
4.425:70791,22
4.425:70792,19
4.425:70793,19
4.429:70794,18
4.429:70795,18
4.429:70796,18
4.429:70797,18
4.433:70798,18
4.434:70799,17
4.435:70800,18
4.436:70801,18
4.437:70802,969
4.437:70803,969
4.438:70804,972
4.438:70805,971
4.442:70806,980
4.442:70807,991
4.443:70808,23
4.444:70809,26
4.445:70810,25
4.446:70811,21
4.446:70812,20
4.447:70813,19
4.449:70814,18
4.450:70815,18
4.450:70816,18
4.450:70817,18
4.453:70818,18
4.453:70819,18
4.454:70820,18
4.454:70821,17
4.457:70822,970
4.458:70823,970
4.459:70824,973
4.460:70825,973
4.460:70827,973
4.462:70828,26
4.462:70829,988
4.463:70830,26
4.463:70831,25
4.466:70832,21
4.466:70832,20
4.466:70833,19
4.467:70834,18
4.470:70835,18
4.470:70836,18
4.470:70837,18
4.471:70838,18
4.474:70839,18
4.474:70840,18
4.474:70841,17
4.474:70842,970
4.478:70843,970
4.479:70844,969
4.480:70845,970
4.480:70846,976
4.482:70847,26
4.482:70848,20
4.483:70849,26
4.483:70850,25
4.486:70851,21
4.487:70852,20
4.487:70853,19
4.488:70854,18
4.488:70855,18
4.490:70856,18
4.491:70857,18
4.491:70858,18
4.494:70859,18
4.495:70860,18
4.495:70861,970
4.496:70862,970
4.498:70863,970
4.498:70864,970
4.499:70865,972
4.499:70866,979
4.499:70867,25
4.502:70868,308
4.502:70870,26
4.503:70871,25
4.503:70872,21
4.506:70873,19
4.507:70874,19
4.507:70875,18
4.507:70875,18
4.510:70876,18
4.511:70877,18
4.511:70878,18
4.511:70879,18
4.515:70880,18
4.515:70881,969
4.515:70882,969
4.515:70883,969
4.519:70884,971
4.519:70885,973
4.519:70886,973
4.519:70887,23
4.523:70888,969
4.524:70889,27
4.525:70890,24
4.526:70891,21
4.527:70892,20
4.528:70893,19
4.529:70894,19
4.530:70895,18
4.531:70896,18
4.532:70897,18
4.532:70898,18
4.533:70899,18
4.535:70900,18
4.536:70901,970
4.536:70902,970
4.536:70903,969
4.539:70904,975
4.540:70905,979
4.540:70906,783
4.540:70907,24
4.543:70908,986
4.543:70909,26
4.544:70910,24
4.544:70912,21
4.544:70913,19
4.547:70914,19
4.548:70915,18
4.548:70916,18
4.548:70917,18
4.552:70918,18
4.552:70918,18
4.553:70919,18
4.553:70920,18
4.556:70921,969
4.556:70922,970
4.556:70923,969
4.556:70924,975
4.560:70925,981
4.560:70926,991
4.560:70927,22
4.560:70928,990
4.564:70929,26
4.564:70930,23
4.564:70931,20
4.564:70932,19
4.569:70933,19
4.570:70934,18
4.571:70935,18
4.571:70936,18
4.572:70937,18
4.573:70938,18
4.573:70939,18
4.574:70940,18
4.576:70941,970
4.577:70942,970
4.578:70943,970
4.579:70944,976
4.580:70945,983
4.581:70946,987
4.581:70947,20
4.582:70948,984
4.584:70949,26
4.585:70950,23
4.586:70951,20
4.587:70952,19
4.588:70953,18
4.589:70955,18
4.589:70956,18
4.591:70957,18
4.592:70958,18
4.593:70959,18
4.594:70960,18
4.595:70960,18
4.596:70961,970
4.597:70962,969
4.597:70963,969
4.597:70964,973
4.597:70965,977
4.601:70966,980
4.601:70967,27
4.601:70968,26
4.601:70969,26
4.605:70970,23
4.605:70971,20
4.605:70972,19
4.605:70973,18
4.609:70974,18
4.609:70975,18
4.609:70976,18
4.609:70977,18
4.613:70978,18
4.614:70979,18
4.615:70980,18
4.615:70981,970
4.617:70982,970
4.618:70983,969
4.619:70984,971
4.619:70985,975
4.621:70986,981
4.622:70987,26
4.623:70988,26
4.624:70989,26
4.625:70990,23
4.626:70991,20
4.626:70992,19
4.627:70993,18
4.629:70994,18
4.630:70995,18
4.630:70996,18
4.631:70998,18
4.633:70999,18
4.634:71000,18
4.635:71001,18
4.636:71002,969
4.637:71003,969
4.638:71003,970
4.638:71004,970
4.638:71005,971
4.641:71006,979
4.642:71007,26
4.642:71008,27
4.642:71009,26
4.642:71010,22
4.645:71011,20
4.645:71012,19
4.646:71013,18
4.646:71014,18
4.649:71015,18
4.650:71016,18
4.650:71017,18
4.650:71018,18
4.653:71019,18
4.654:71020,18
4.654:71021,969
4.654:71022,969
4.658:71023,970
4.659:71024,979
4.660:71025,976
4.660:71026,980
4.662:71027,23
4.662:71028,24
4.663:71029,26
4.664:71030,22
4.666:71031,20
4.666:71032,19
4.666:71033,18
4.667:71034,18
4.670:71035,18
4.670:71036,18
4.670:71037,18
4.671:71038,18
4.674:71040,18
4.674:71041,17
4.674:71042,970
4.675:71043,970
4.678:71044,970
4.678:71045,977
4.678:71046,980
4.679:71046,983
4.682:71047,18
4.683:71048,26
4.684:71049,26
4.686:71050,22
4.686:71051,20
4.687:71052,19
4.688:71053,18
4.689:71054,18
4.690:71055,18
4.691:71056,18
4.691:71057,18
4.692:71058,18
4.694:71059,18
4.695:71060,18
4.697:71061,970
4.697:71062,970
4.697:71063,971
4.699:71064,972
4.699:71065,972
4.699:71066,981
4.700:71067,26
4.703:71068,26
4.703:71069,26
4.703:71070,22
4.703:71071,20
4.707:71072,19
4.708:71073,19
4.708:71074,18
4.709:71075,18
4.711:71076,18
4.712:71077,18
4.713:71078,18
4.713:71079,18
4.715:71080,18
4.716:71081,970
4.716:71083,970
4.717:71084,972
4.719:71085,973
4.720:71086,977
4.720:71087,989
4.720:71088,19
4.723:71088,26
4.723:71089,26
4.724:71090,22
4.724:71091,20
4.727:71092,19
4.728:71093,18
4.729:71094,18
4.729:71095,18
4.730:71096,18
4.731:71097,18
4.732:71098,18
4.732:71099,18
4.733:71100,18
4.736:71101,970
4.736:71102,970
4.736:71103,975
4.737:71104,972
4.740:71105,971
4.740:71106,26
4.740:71107,26
4.741:71108,26
4.744:71109,25
4.744:71110,21
4.744:71111,20
4.744:71112,19
4.748:71113,19
4.749:71114,18
4.750:71115,18
4.751:71116,18
4.752:71117,18
4.752:71118,18
4.753:71119,18
4.753:71120,18
4.756:71121,969
4.757:71122,970
4.758:71123,971
4.759:71124,971
4.760:71126,971
4.761:71127,27
4.761:71128,22
4.762:71129,26
4.764:71130,25
4.764:71131,21
4.765:71131,20
4.765:71132,19
4.768:71133,19
4.769:71134,18
4.769:71135,18
4.769:71136,18
4.772:71137,18
4.772:71138,18
4.773:71139,18
4.773:71140,18
4.776:71141,970
4.777:71142,970
4.778:71143,980
4.779:71144,983
4.780:71145,985
4.781:71146,25
4.782:71147,989
4.783:71148,26
4.784:71149,25
4.785:71150,21
4.786:71151,19
4.787:71152,19
4.787:71153,18
4.789:71154,18
4.790:71155,18
4.791:71156,18
4.792:71157,18
4.793:71158,18
4.795:71159,18
4.795:71160,17
4.796:71161,969
4.797:71162,970
4.797:71163,982
4.797:71164,980
4.798:71165,983
4.801:71166,24
4.801:71168,327
4.801:71169,26
4.801:71170,24
4.805:71171,21
4.805:71172,19
4.805:71173,19
4.806:71174,18
4.809:71174,18
4.809:71175,18
4.809:71176,18
4.810:71177,18
4.813:71178,18
4.813:71179,18
4.813:71180,969
4.814:71181,970
4.817:71182,969
4.817:71183,981
4.818:71184,983
4.818:71185,980
4.821:71186,25
4.821:71187,969
4.822:71188,26
4.822:71189,24
4.822:71190,20
4.825:71191,19
4.826:71192,19
4.826:71193,18
4.826:71194,18
4.829:71195,18
4.830:71196,18
4.830:71197,18
4.830:71198,18
4.834:71199,18
4.834:71200,969
4.834:71201,970
4.834:71202,969
4.838:71203,976
4.839:71204,983
4.840:71205,979
4.841:71206,25
4.842:71207,970
4.842:71208,26
4.843:71209,23
4.843:71211,20
4.846:71212,19
4.847:71213,19
4.848:71214,18
4.848:71215,18
4.850:71216,18
4.852:71216,17
4.853:71217,18
4.854:71218,18
4.854:71219,18
4.855:71220,970
4.855:71221,970
4.856:71222,969
4.858:71223,970
4.859:71224,973
4.859:71225,985
4.859:71226,25
4.862:71227,974
4.863:71228,26
4.863:71229,23
4.864:71230,20
4.866:71231,19
4.867:71232,19
4.867:71233,18
4.867:71234,18
4.868:71235,18
4.870:71236,18
4.871:71237,18
4.871:71238,17
4.871:71239,17
4.875:71240,969
4.875:71241,970
4.875:71242,970
4.876:71243,978
4.879:71244,978
4.879:71245,984
4.879:71246,20
4.880:71247,971
4.883:71248,26
4.883:71249,23
4.884:71250,20
4.884:71251,19
4.889:71252,19
4.889:71254,18
4.890:71255,18
4.891:71256,18
4.892:71257,18
4.892:71258,18
4.892:71259,18
4.892:71259,18
4.895:71260,969
4.895:71261,970
4.895:71262,970
4.896:71263,972
4.899:71264,971
4.899:71265,970
4.899:71266,18
4.900:71267,977
4.903:71268,26
4.903:71269,22
4.904:71270,20
4.904:71271,19
4.907:71272,19
4.908:71273,18
4.909:71274,18
4.910:71275,18
4.911:71276,18
4.912:71277,18
4.912:71278,18
4.913:71279,18
4.915:71280,970
4.916:71281,970
4.918:71282,970
4.918:71283,976
4.919:71284,970
4.920:71285,973
4.921:71286,18
4.921:71287,991
4.922:71288,26
4.924:71289,22
4.924:71290,20
4.925:71291,19
4.925:71292,19
4.928:71293,19
4.928:71294,18
4.929:71296,18
4.929:71297,18
4.932:71298,18
4.933:71299,18
4.935:71300,18
4.936:71301,969
4.936:71302,969
4.937:71302,970
4.937:71303,974
4.938:71304,980
4.940:71305,984
4.941:71306,21
4.941:71307,25
4.941:71308,26
4.944:71309,22
4.945:71310,20
4.945:71311,19
4.945:71312,19
4.948:71313,19
4.949:71314,18
4.949:71315,18
4.949:71316,18
4.952:71317,18
4.953:71318,18
4.953:71319,18
4.953:71320,969
4.957:71321,970
4.957:71322,971
4.958:71323,970
4.959:71324,972
4.961:71325,979
4.961:71326,20
4.962:71327,26
4.963:71328,26
4.964:71329,22
4.965:71330,20
4.966:71331,19
4.966:71332,19
4.967:71333,19
4.969:71334,18
4.970:71335,18
4.970:71336,18
4.971:71337,18
4.973:71339,18
4.973:71340,18
4.974:71341,969
4.974:71342,970
4.977:71343,974
4.978:71344,981
4.979:71345,986
4.980:71345,987
4.981:71346,581
4.982:71347,27
4.982:71348,26
4.983:71349,22
4.985:71350,20
4.986:71351,20
4.987:71352,19
4.987:71353,19
4.990:71354,18
4.991:71355,18
4.991:71356,18
4.992:71357,18
4.993:71358,18
4.994:71359,18
4.994:71360,970
4.994:71361,970
4.998:71362,973
4.998:71363,980
5.000:71364,988
5.001:71365,19
5.001:71366,26
5.002:71367,26
5.002:71368,25
5.003:71369,22
5.006:71370,20
5.006:71371,19
5.007:71372,19
5.008:71373,19
5.009:71374,18
5.010:71375,18
5.011:71376,18
5.011:71377,18
5.012:71378,18
5.014:71379,18
5.014:71380,969
5.015:71382,969
5.016:71383,973
5.018:71384,980
5.018:71385,985
5.019:71386,26
5.019:71387,19
5.022:71387,26
5.023:71388,25
5.024:71389,21
5.025:71390,20
5.026:71391,19
5.027:71392,19
5.027:71393,18
5.028:71394,18
5.030:71395,18
5.031:71396,18
5.031:71397,18
5.031:71398,18
5.034:71399,18
5.035:71400,970
5.035:71401,970
5.035:71402,971
5.038:71403,971
5.039:71404,970
5.039:71405,26
5.039:71406,984
5.042:71407,26
5.043:71408,25
5.044:71409,21
5.045:71410,20
5.046:71411,19
5.047:71412,19
5.047:71413,19
5.048:71414,18
5.050:71415,18
5.051:71416,18
5.051:71417,18
5.052:71418,18
5.052:71419,18
5.055:71420,970
5.055:71421,970
5.056:71422,975
5.056:71424,975
5.059:71425,974
5.059:71426,24
5.059:71427,975
5.060:71428,26
5.063:71429,25
5.063:71430,21
5.063:71430,20
5.064:71431,19
5.068:71432,19
5.069:71433,19
5.070:71434,18
5.070:71435,18
5.071:71436,19
5.072:71437,18
5.072:71438,18
5.073:71439,969
5.075:71440,969
5.076:71441,969
5.076:71442,976
5.077:71443,977
5.080:71444,973
5.080:71445,21
5.081:71446,973
5.081:71447,26
5.084:71448,24
5.084:71449,21
5.085:71450,20
5.085:71451,19
5.088:71452,19
5.090:71453,19
5.090:71454,19
5.090:71455,19
5.092:71456,18
5.092:71457,18
5.092:71458,18
5.093:71459,969
5.097:71460,969
5.097:71461,969
5.098:71462,972
5.098:71463,972
5.100:71464,972
5.100:71465,24
5.101:71467,969
5.101:71468,26
5.101:71469,24
5.104:71470,21
5.104:71471,20
5.104:71472,19
5.105:71472,19
5.108:71473,19
5.108:71474,19
5.108:71475,19
5.109:71476,19
5.113:71477,19
5.113:71478,18
5.113:71479,969
5.113:71480,969
5.117:71481,969
5.117:71482,980
5.117:71483,981
5.118:71484,991
5.121:71485,26
5.121:71486,987
5.121:71487,26
5.121:71488,24
5.125:71489,21
5.125:71490,19
5.125:71491,19
5.125:71492,19
5.129:71493,19
5.129:71494,19
5.129:71495,19
5.129:71496,18
5.133:71497,18
5.133:71498,18
5.134:71499,970
5.134:71500,970
5.137:71501,970
5.137:71502,982
5.137:71503,986
5.137:71504,987
5.141:71505,26
5.141:71506,982
5.141:71507,26
5.141:71508,23
5.145:71510,21
5.145:71511,19
5.145:71512,19
5.145:71513,18
5.146:71514,18
5.149:71515,18
5.149:71515,18
5.149:71516,18
5.149:71517,18
5.153:71518,18
5.153:71519,969
5.153:71520,970
5.154:71521,969
5.158:71522,976
5.158:71523,976
5.158:71524,973
5.158:71525,24
5.161:71526,975
5.161:71527,26
5.162:71528,23
5.162:71529,21
5.166:71530,19
5.166:71531,19
5.166:71532,19
5.166:71533,19
5.170:71534,18
5.170:71535,19
5.170:71536,18
5.170:71537,18
5.174:71538,18
5.175:71539,970
5.175:71540,970
5.175:71541,970
5.178:71542,970
5.178:71543,972
5.178:71544,974
5.178:71545,26
5.182:71546,985
5.182:71547,26
5.182:71548,23
5.183:71549,20
5.186:71550,19
5.186:71552,19
5.187:71553,19
5.188:71554,18
5.190:71555,18
5.190:71556,18
5.191:71557,18
5.191:71558,18
5.191:71558,18
5.194:71559,970
5.194:71560,969
5.194:71561,971
5.194:71562,972
5.198:71563,971
5.198:71564,971
5.198:71565,22
5.198:71566,468
5.203:71567,26
5.203:71568,22
5.203:71569,20
5.204:71570,19
5.207:71571,19
5.207:71572,19
5.207:71573,19
5.207:71574,19
5.211:71575,18
5.211:71576,18
5.211:71577,18
5.212:71578,18
5.215:71579,970
5.215:71580,969
5.215:71581,972
5.216:71582,977
5.219:71583,981
5.219:71584,987
5.219:71585,23
5.219:71586,22
5.223:71587,26
5.223:71588,22
5.223:71589,20
5.223:71590,19
5.227:71591,19
5.227:71592,19
5.227:71593,19
5.227:71595,18
5.231:71596,18
5.231:71597,18
5.232:71598,18
5.232:71599,18
5.236:71600,969
5.236:71601,969
5.236:71601,970
5.236:71602,971
5.239:71603,973
5.239:71604,985
5.239:71605,93
5.239:71606,27
5.240:71607,26
5.243:71608,22
5.243:71609,20
5.243:71610,19
5.243:71611,19
5.247:71612,19
5.247:71613,18
5.247:71614,19
5.248:71615,18
5.251:71616,18
5.251:71617,18
5.252:71618,18
5.252:71619,969
5.256:71620,970
5.256:71621,971
5.256:71622,985
5.256:71623,981
5.260:71624,987
5.260:71625,280
5.261:71626,26
5.261:71627,26
5.264:71628,22
5.264:71629,19
5.264:71630,19
5.264:71631,19
5.268:71632,19
5.268:71633,19
5.268:71634,19
5.269:71635,18
5.272:71636,18
5.272:71638,18
5.272:71639,18
5.272:71640,969
5.276:71641,969
5.276:71642,971
5.276:71643,978
5.276:71643,979
5.280:71644,22
5.280:71645,22
5.280:71646,26
5.280:71647,25
5.284:71648,22
5.284:71649,20
5.284:71650,19
5.285:71651,19
5.285:71652,19
5.288:71653,19
5.288:71654,18
5.288:71655,18
5.289:71656,18
5.292:71657,18
5.293:71658,18
5.293:71659,969
5.293:71660,970
5.296:71661,970
5.297:71662,970
5.297:71663,970
5.297:71664,26
5.301:71665,18
5.301:71666,26
5.301:71667,25
5.302:71668,21
5.305:71669,20
5.305:71670,19
5.306:71671,19
5.306:71672,19
5.309:71673,19
5.309:71674,18
5.309:71675,18
5.309:71676,18
5.313:71677,18
5.313:71678,18
5.313:71680,970
5.314:71681,970
5.318:71682,976
5.318:71683,979
5.319:71684,977
5.320:71685,26
5.321:71686,986
5.322:71686,26
5.322:71687,25
5.322:71688,21
5.325:71689,20
5.325:71690,19
5.325:71691,19
5.325:71692,19
5.329:71693,19
5.329:71694,18
5.329:71695,18
5.330:71696,18
5.334:71697,18
5.334:71698,18
5.334:71699,969
5.334:71700,969
5.334:71701,976
5.339:71702,984
5.339:71703,984
5.339:71704,23
5.339:71705,978
5.342:71706,26
5.342:71707,24
5.342:71708,21
5.342:71709,20
5.345:71710,19
5.346:71711,19
5.346:71712,19
5.346:71713,18
5.349:71714,18
5.350:71715,18
5.350:71716,18
5.350:71717,18
5.353:71718,18
5.354:71719,969
5.354:71720,969
5.354:71721,975
5.358:71723,979
5.358:71724,980
5.358:71725,22
5.358:71726,969
5.362:71727,26
5.362:71728,24
5.362:71728,21
5.363:71729,20
5.366:71730,19
5.366:71731,19
5.367:71732,18
5.367:71733,18
5.370:71734,18
5.370:71735,18
5.370:71736,18
5.370:71737,18
5.374:71738,974
5.374:71739,970
5.374:71740,970
5.375:71741,976
5.378:71742,983
5.379:71743,980
5.379:71744,23
5.380:71745,973
5.380:71746,26
5.382:71747,24
5.383:71748,21
5.383:71749,19
5.384:71750,19
5.387:71751,19
5.387:71752,18
5.388:71753,18
5.388:71754,18
5.390:71755,18
5.391:71756,18
5.391:71757,18
5.391:71758,970
5.395:71759,970
5.395:71760,969
5.395:71761,980
5.395:71762,978
5.399:71763,989
5.399:71764,23
5.399:71766,991
5.399:71767,26
5.404:71768,24
5.405:71769,20
5.405:71770,19
5.406:71771,19
5.407:71771,18
5.407:71772,18
5.407:71773,18
5.408:71774,18
5.411:71775,18
5.411:71776,18
5.411:71777,18
5.411:71778,970
5.415:71779,969
5.415:71780,970
5.415:71781,979
5.416:71782,982
5.419:71783,982
5.419:71784,25
5.419:71785,969
5.420:71786,26
5.420:71787,23
5.423:71788,20
5.423:71789,19
5.423:71790,18
5.423:71791,18
5.427:71792,19
5.427:71793,18
5.427:71794,18
5.428:71795,18
5.431:71796,18
5.431:71797,18
5.432:71798,970
5.432:71799,970
5.436:71800,970
5.436:71801,970
5.436:71802,971
5.436:71803,975
5.440:71804,26
5.440:71805,984
5.440:71806,26
5.440:71808,23
5.444:71809,20
5.444:71810,20
5.444:71811,18
5.444:71812,18
5.448:71813,18
5.448:71814,18
5.448:71814,18
5.448:71815,18
5.452:71816,18
5.452:71817,18
5.452:71818,969
5.453:71819,970
5.456:71820,971
5.456:71821,982
5.456:71822,985
5.456:71823,990
5.460:71824,26
5.460:71825,977
5.460:71826,26
5.460:71827,22
5.464:71828,20
5.464:71829,19
5.464:71830,19
5.465:71831,18
5.468:71832,18
5.468:71833,18
5.468:71834,18
5.469:71835,18
5.469:71836,18
5.472:71837,18
5.472:71838,969
5.473:71839,969
5.473:71840,969
5.477:71841,970
5.477:71842,971
5.477:71843,983
5.478:71844,24
5.481:71845,679
5.481:71846,26
5.482:71847,22
5.482:71848,20
5.485:71849,19
5.485:71851,19
5.486:71852,18
5.486:71853,18
5.489:71854,18
5.489:71855,18
5.490:71856,18
5.490:71856,18
5.493:71857,18
5.494:71858,969
5.494:71859,970
5.494:71860,970
5.498:71861,971
5.498:71862,969
5.498:71863,971
5.498:71864,23
5.502:71865,437
5.502:71866,26
5.502:71867,22
5.502:71868,20
5.506:71869,19
5.506:71870,19
5.506:71871,18
5.507:71872,18
5.510:71873,18
5.510:71874,18
5.510:71875,18
5.510:71876,18
5.514:71877,18
5.514:71878,970
5.514:71879,970
5.514:71880,973
5.518:71881,980
5.518:71882,979
5.518:71883,983
5.518:71884,20
5.519:71885,26
5.522:71886,26
5.522:71887,22
5.522:71888,20
5.522:71889,19
5.526:71890,19
5.526:71891,19
5.527:71892,18
5.527:71894,18
5.530:71895,18
5.530:71896,18
5.531:71897,18
5.531:71898,18
5.534:71899,969
5.535:71899,969
5.535:71900,973
5.535:71901,976
5.538:71902,977
5.539:71903,988
5.539:71904,23
5.539:71905,26
5.543:71906,26
5.543:71907,22
5.543:71908,20
5.543:71909,19
5.547:71910,19
5.547:71911,19
5.547:71912,18
5.547:71913,18
5.551:71914,18
5.551:71915,18
5.551:71916,18
5.551:71917,18
5.555:71918,970
5.555:71919,970
5.555:71920,974
5.555:71921,980
5.559:71922,981
5.559:71923,23
5.559:71924,20
5.559:71925,26
5.559:71926,26
5.563:71927,22
5.563:71928,20
5.563:71929,19
5.563:71930,19
5.567:71931,18
5.567:71932,18
5.567:71933,18
5.568:71934,18
5.571:71936,18
5.572:71937,18
5.572:71938,18
5.572:71939,970
5.575:71940,969
5.576:71941,978
5.576:71942,986
5.576:71942,980
5.580:71943,26
5.580:71944,985
5.580:71945,26
5.580:71946,25
5.584:71947,22
5.584:71948,20
5.584:71949,19
5.584:71950,18
5.588:71951,18
5.588:71952,18
5.588:71953,18
5.588:71954,18
5.592:71955,18
5.592:71956,18
5.592:71957,18
5.592:71958,970
5.596:71959,970
5.596:71960,977
5.596:71961,987
5.596:71962,985
5.600:71963,25
5.600:71964,404
5.600:71965,26
5.601:71966,24
5.604:71967,21
5.605:71968,20
5.606:71969,19
5.606:71970,19
5.606:71971,18
5.608:71972,18
5.608:71973,18
5.608:71974,18
5.608:71975,18
5.612:71976,18
5.612:71977,18
5.612:71979,970
5.613:71980,970
5.616:71981,971
5.616:71982,970
5.617:71983,970
5.617:71984,24
5.620:71984,18
5.621:71985,26
5.621:71986,24
5.621:71987,21
5.624:71988,19
5.625:71989,19
5.625:71990,18
5.625:71991,18
5.629:71992,18
5.629:71993,18
5.629:71994,18
5.629:71995,18
5.633:71996,18
5.633:71997,18
5.634:71998,969
5.634:71999,969
5.637:72000,974
5.637:72001,971
5.637:72002,970
5.637:72003,22
5.641:72004,969
5.641:72005,26
5.641:72006,24
5.641:72007,21
5.645:72008,20
5.645:72009,19
5.645:72010,19
5.645:72011,19
5.649:72012,19
5.649:72013,18
5.650:72014,18
5.650:72015,18
5.653:72016,18
5.653:72017,18
5.653:72018,969
5.653:72019,970
5.657:72020,979
5.657:72022,979
5.657:72023,973
5.657:72024,25
5.657:72025,969
5.660:72026,26
5.661:72027,24
5.661:72027,21
5.661:72028,19
5.665:72029,19
5.666:72030,19
5.666:72031,18
5.666:72032,18
5.670:72033,18
5.670:72034,18
5.670:72035,18
5.670:72036,18
5.673:72037,18
5.674:72038,969
5.674:72039,970
5.674:72040,976
5.678:72041,977
5.678:72042,979
5.678:72043,26
5.678:72044,970
5.682:72045,26
5.682:72046,23
5.682:72047,21
5.682:72048,19
5.686:72049,19
5.686:72050,19
5.686:72051,18
5.686:72052,18
5.690:72053,18
5.690:72054,18
5.690:72055,18
5.690:72056,18
5.694:72057,970
5.694:72058,970
5.694:72059,969
5.694:72060,983
5.698:72061,976
5.698:72062,971
5.698:72064,22
5.699:72065,971
5.699:72066,26
5.702:72067,23
5.702:72068,21
5.703:72069,19
5.703:72070,19
5.707:72070,19
5.707:72071,18
5.708:72072,18
5.708:72073,18
5.711:72074,18
5.711:72075,18
5.711:72076,18
5.711:72077,970
5.716:72078,970
5.716:72079,971
5.716:72080,984
5.716:72081,983
5.719:72082,979
5.719:72083,23
5.719:72084,971
5.719:72085,26
5.723:72086,23
5.723:72087,21
5.723:72088,19
5.723:72089,19
5.727:72090,19
5.727:72091,18
5.727:72092,18
5.727:72093,18
5.731:72094,18
5.731:72095,18
5.731:72096,18
5.732:72097,970
5.735:72098,970
5.735:72099,970
5.735:72100,973
5.736:72101,978
5.739:72102,981
5.739:72103,20
5.739:72104,981
5.740:72105,26
5.743:72107,23
5.744:72108,20
5.744:72109,19
5.744:72110,19
5.744:72111,19
5.747:72112,18
5.747:72112,18
5.747:72113,18
5.748:72114,18
5.751:72115,18
5.751:72116,18
5.752:72117,970
5.752:72118,969
5.755:72119,970
5.756:72120,971
5.756:72121,970
5.756:72122,975
5.759:72123,168
5.760:72124,788
5.760:72125,26
5.760:72126,22
5.764:72127,20
5.764:72128,20
5.764:72129,19
5.764:72130,19
5.768:72131,18
5.768:72132,18
5.768:72133,18
5.768:72134,18
5.772:72135,18
5.772:72136,18
5.772:72137,970
5.772:72138,970
5.776:72139,972
5.776:72140,975
5.776:72141,975
5.776:72142,977
5.780:72143,22
5.780:72144,26
5.780:72145,26
5.780:72146,22
5.784:72147,20
5.784:72148,19
5.784:72150,19
5.784:72151,19
5.787:72152,18
5.788:72153,18
5.788:72154,18
5.788:72155,18
5.792:72155,18
5.792:72156,18
5.792:72157,970
5.792:72158,970
5.793:72159,972
5.796:72160,979
5.796:72161,980
5.796:72162,980
5.796:72163,120
5.800:72164,26
5.800:72165,26
5.800:72166,22
5.800:72167,20
5.805:72168,19
5.805:72169,19
5.806:72170,19
5.807:72171,18
5.809:72172,18
5.809:72173,18
5.809:72174,18
5.809:72175,18
5.813:72176,18
5.813:72177,969
5.813:72178,970
5.813:72179,977
5.817:72180,989
5.817:72181,985
5.817:72182,981
5.817:72183,18
5.821:72184,26
5.821:72185,26
5.821:72186,21
5.821:72187,20
5.825:72188,19
5.825:72189,19
5.825:72190,18
5.825:72192,18
5.829:72193,18
5.829:72194,18
5.829:72195,18
5.829:72196,18
5.833:72197,18
5.833:72198,969
5.833:72198,969
5.834:72199,974
5.836:72200,975
5.837:72201,973
5.837:72202,27
5.837:72203,985
5.837:72204,26
5.841:72205,26
5.841:72206,21
5.841:72207,20
5.841:72208,19
5.845:72209,19
5.845:72210,18
5.845:72211,18
5.845:72212,18
5.849:72213,18
5.849:72214,18
5.849:72215,18
5.850:72216,18
5.853:72217,969
5.854:72218,969
5.854:72219,973
5.854:72220,973
5.857:72221,976
5.858:72222,26
5.858:72223,18
5.858:72224,26
5.862:72225,25
5.862:72226,22
5.862:72227,19
5.862:72228,19
5.866:72229,19
5.866:72230,18
5.866:72231,18
5.867:72232,18
5.870:72233,18
5.870:72235,18
5.870:72236,18
5.870:72237,18
5.874:72238,969
5.874:72239,970
5.874:72240,973
5.874:72241,974
5.878:72241,970
5.878:72242,25
5.878:72243,988
5.878:72244,26
5.882:72245,25
5.882:72246,21
5.883:72247,20
5.883:72248,19
5.883:72249,19
5.886:72250,19
5.886:72251,19
5.886:72252,18
5.886:72253,18
5.890:72254,18
5.890:72255,18
5.890:72256,18
5.891:72257,970
5.894:72258,970
5.895:72259,979
5.895:72260,985
5.895:72261,986
5.899:72262,23
5.899:72263,969
5.899:72264,26
5.899:72265,24
5.904:72266,21
5.905:72267,20
5.907:72268,19
5.907:72269,19
5.907:72270,18
5.908:72271,18
5.908:72272,18
5.908:72273,18
5.910:72274,18
5.910:72275,17
5.910:72276,18
5.911:72278,970
5.914:72279,969
5.915:72280,974
5.915:72281,978
5.915:72282,987
5.918:72283,24
5.919:72283,982
5.919:72284,26
5.919:72285,24
5.922:72286,21
5.923:72287,19
5.923:72288,19
5.923:72289,18
5.928:72290,18
5.928:72291,18
5.928:72292,18
5.928:72293,18
5.928:72294,18
5.931:72295,18
5.932:72296,18
5.932:72297,969
5.932:72298,970
5.936:72299,976
5.936:72300,976
5.936:72301,976
5.936:72302,24
5.940:72303,975
5.940:72304,26
5.940:72305,24
5.940:72306,21
5.944:72307,19
5.944:72308,19
5.944:72309,18
5.944:72310,18
5.948:72311,18
5.948:72312,18
5.948:72313,18
5.949:72314,18
5.952:72315,18
5.952:72316,18
5.952:72317,969
5.952:72318,970
5.956:72320,970
5.956:72321,970
5.956:72322,974
5.956:72323,26
5.960:72324,976
5.960:72325,26
5.960:72326,23
5.961:72326,20
5.964:72327,19
5.964:72328,19
5.964:72329,18
5.964:72330,18
5.968:72331,18
5.968:72332,18
5.969:72333,18
5.969:72334,18
5.972:72335,18
5.972:72336,18
5.973:72337,969
5.973:72338,970
5.976:72339,979
5.976:72340,985
5.977:72341,981
5.977:72342,24
5.980:72343,971
5.981:72344,26
5.981:72345,23
5.981:72346,20
5.981:72347,19
5.984:72348,19
5.985:72349,18
5.985:72350,18
5.985:72351,18
5.989:72352,18
5.989:72353,18
5.989:72354,18
5.989:72355,18
5.993:72356,18
5.993:72357,970
5.993:72358,970
5.993:72359,971
5.997:72360,975
5.997:72361,977
5.997:72363,26
5.997:72364,983
6.001:72365,26
6.001:72366,23
6.001:72367,20
6.002:72368,19
6.005:72368,18
6.005:72369,18
6.005:72370,18
6.006:72371,18
6.009:72372,18
6.009:72373,18
6.009:72374,18
6.009:72375,18
6.013:72376,18
6.013:72377,969
6.013:72378,970
6.013:72379,973
6.017:72380,977
6.017:72381,978
6.017:72382,26
6.017:72383,902
6.021:72384,26
6.021:72385,22
6.022:72386,20
6.022:72387,19
6.022:72388,18
6.025:72389,18
6.025:72390,18
6.025:72391,18
6.026:72392,18
6.029:72393,18
6.029:72394,18
6.029:72395,18
6.030:72396,18
6.034:72397,969
6.034:72398,969
6.034:72399,974
6.034:72400,975
6.038:72401,977
6.038:72402,24
6.038:72403,991
6.039:72404,26
6.042:72406,22
6.042:72407,20
6.042:72408,19
6.042:72409,18
6.046:72410,18
6.046:72411,19
6.046:72411,18
6.046:72412,18
6.050:72413,18
6.050:72414,18
6.050:72415,18
6.051:72416,18
6.054:72417,969
6.054:72418,971
6.055:72419,970
6.055:72420,971
6.058:72421,970
6.058:72422,21
6.059:72423,20
6.059:72424,26
6.062:72425,22
6.063:72426,20
6.063:72427,19
6.063:72428,18
6.067:72429,18
6.067:72430,18
6.067:72431,18
6.067:72432,18
6.067:72433,18
6.071:72434,18
6.071:72435,18
6.071:72436,969
6.071:72437,969
6.075:72438,970
6.075:72439,973
6.075:72440,975
6.075:72441,973
6.079:72442,121
6.079:72443,26
6.079:72444,26
6.079:72445,21
6.083:72446,20
6.083:72448,19
6.083:72449,18
6.084:72450,18
6.087:72451,18
6.087:72452,18
6.087:72453,18
6.087:72454,18
6.091:72454,18
6.091:72455,18
6.091:72456,969
6.091:72457,969
6.095:72458,972
6.095:72459,973
6.095:72460,970
6.095:72461,979
6.099:72462,22
6.099:72463,26
6.099:72464,26
6.099:72465,21
6.104:72466,19
6.104:72467,19
6.104:72468,18
6.105:72469,18
6.108:72470,18
6.108:72471,18
6.108:72472,18
6.108:72473,18
6.112:72474,18
6.112:72475,18
6.112:72476,970
6.112:72477,970
6.116:72478,970
6.116:72479,971
6.116:72480,970
6.116:72481,980
6.116:72482,895
6.120:72483,26
6.120:72484,26
6.120:72485,21
6.120:72486,20
6.124:72487,19
6.124:72488,19
6.124:72489,18
6.124:72491,18
6.128:72492,18
6.128:72493,18
6.128:72494,18
6.128:72495,18
6.132:72496,18
6.132:72496,969
6.133:72497,970
6.133:72498,978
6.136:72499,981
6.136:72500,976
6.136:72501,26
6.136:72502,19
6.140:72503,26
6.140:72504,25
6.140:72505,21
6.140:72506,20
6.144:72507,19
6.144:72508,18
6.144:72509,18
6.144:72510,18
6.148:72511,18
6.149:72512,18
6.149:72513,18
6.149:72514,18
6.153:72515,18
6.153:72516,970
6.153:72517,970
6.153:72518,975
6.157:72519,981
6.157:72520,980
6.157:72521,26
6.157:72522,792
6.161:72523,26
6.161:72524,24
6.161:72525,21
6.161:72526,19
6.161:72527,19
6.165:72528,18
6.165:72529,18
6.166:72530,18
6.166:72531,18
6.169:72532,18
6.169:72534,18
6.170:72535,18
6.170:72536,18
6.173:72537,969
6.173:72538,969
6.173:72539,979
6.174:72539,985
6.177:72540,981
6.177:72541,24
6.177:72542,975
6.177:72543,26
6.181:72544,24
6.181:72545,21
6.182:72546,19
6.182:72547,18
6.185:72548,18
6.185:72549,19
6.185:72550,18
6.185:72551,17
6.189:72552,18
6.189:72553,18
6.189:72554,18
6.189:72555,18
6.193:72556,970
6.193:72557,970
6.194:72558,972
6.194:72559,971
6.198:72560,970
6.198:72561,23
6.199:72562,970
6.199:72563,26
6.202:72564,24
6.202:72565,21
6.202:72566,19
6.204:72567,19
6.206:72568,18
6.206:72569,18
6.207:72570,18
6.207:72571,18
6.207:72572,18
6.210:72573,18
6.210:72574,18
6.210:72576,18
6.210:72577,969
6.214:72578,970
6.214:72579,976
6.214:72580,978
6.214:72581,977
6.218:72582,22
6.218:72582,969
6.218:72583,26
6.218:72584,24
6.222:72585,20
6.222:72586,19
6.222:72587,18
6.223:72588,18
6.226:72589,18
6.226:72590,18
6.226:72591,18
6.226:72592,18
6.230:72593,18
6.230:72594,19
6.230:72595,18
6.230:72596,969
6.234:72597,970
6.234:72598,978
6.234:72599,977
6.235:72600,970
6.238:72601,19
6.238:72602,970
6.238:72603,26
6.239:72604,23
6.242:72605,20
6.243:72606,19
6.243:72607,19
6.243:72608,18
6.246:72609,18
6.246:72610,18
6.247:72611,18
6.247:72612,18
6.250:72613,18
6.250:72614,18
6.251:72615,18
6.251:72616,970
6.254:72617,970
6.255:72619,974
6.255:72620,972
6.255:72621,970
6.255:72622,20
6.259:72623,969
6.259:72624,26
6.259:72624,23
6.259:72625,20
6.263:72626,19
6.263:72627,19
6.263:72628,18
6.263:72629,18
6.267:72630,18
6.267:72631,18
6.267:72632,18
6.267:72633,18
6.271:72634,18
6.271:72635,18
6.272:72636,969
6.272:72637,970
6.275:72638,981
6.276:72639,979
6.276:72640,979
6.276:72641,22
6.279:72642,973
6.280:72643,26
6.280:72644,23
6.280:72645,20
6.283:72646,19
6.284:72647,19
6.284:72648,18
6.284:72649,18
6.288:72650,18
6.288:72651,18
6.288:72652,18
6.288:72653,18
6.292:72654,18
6.292:72655,18
6.292:72656,970
6.292:72657,970
6.296:72658,981
6.296:72659,973
6.296:72660,972
6.296:72662,24
6.300:72663,973
6.300:72664,26
6.300:72665,22
6.300:72666,20
6.301:72667,19
6.304:72667,18
6.305:72668,18
6.305:72669,18
6.305:72670,18
6.308:72671,18
6.308:72672,18
6.308:72673,18
6.308:72674,18
6.312:72675,18
6.313:72676,969
6.313:72677,973
6.313:72678,982
6.316:72679,980
6.317:72680,977
6.317:72681,24
6.317:72682,380
6.320:72683,26
6.320:72684,22
6.320:72685,20
6.320:72686,19
6.325:72687,18
6.325:72688,18
6.325:72689,18
6.325:72690,18
6.329:72691,18
6.329:72692,18
6.329:72693,18
6.329:72694,18
6.333:72695,289
6.333:72696,970
6.333:72697,971
6.333:72698,971
6.337:72699,974
6.337:72700,985
6.337:72701,18
6.338:72702,26
6.341:72704,26
6.341:72705,22
6.341:72706,20
6.341:72707,19
6.345:72708,18
6.345:72709,18
6.345:72710,18
6.346:72710,18
6.346:72711,18
6.349:72712,18
6.349:72713,18
6.349:72714,18
6.349:72715,969
6.353:72716,969
6.353:72717,972
6.353:72718,971
6.354:72719,970
6.357:72720,978
6.357:72721,18
6.358:72722,26
6.358:72723,26
6.361:72724,22
6.362:72725,20
6.362:72726,19
6.362:72727,19
6.365:72728,18
6.366:72729,18
6.366:72730,18
6.366:72731,18
6.370:72732,18
6.370:72733,19
6.370:72734,18
6.370:72735,970
6.374:72736,970
6.374:72737,975
6.374:72738,979
6.374:72739,973
6.378:72740,978
6.378:72741,389
6.378:72742,26
6.378:72743,26
6.382:72744,21
6.382:72745,20
6.383:72747,19
6.383:72748,19
6.386:72749,18
6.386:72750,18
6.386:72751,18
6.387:72752,18
6.390:72752,18
6.390:72753,18
6.390:72754,18
6.390:72755,969
6.393:72756,969
6.394:72757,972
6.394:72758,978
6.395:72759,980
6.396:72760,980
6.398:72761,18
6.398:72762,26
6.398:72763,25
6.398:72764,21
6.402:72765,20
6.402:72766,19
6.402:72767,19
6.402:72768,18
6.406:72769,18
6.406:72770,18
6.407:72771,18
6.407:72772,18
6.410:72773,18
6.410:72774,18
6.410:72775,969
6.411:72776,969
6.414:72777,978
6.415:72778,977
6.415:72779,973
6.415:72780,669
6.418:72781,990
6.418:72782,26
6.419:72783,25
6.419:72784,21
6.422:72785,20
6.423:72786,19
6.423:72787,19
6.423:72788,18
6.427:72790,18
6.427:72791,18
6.427:72792,18
6.427:72793,18
6.431:72794,18
6.431:72795,18
6.431:72795,969
6.432:72796,970
6.435:72797,970
6.435:72798,975
6.435:72799,980
6.435:72800,26
6.439:72801,980
6.439:72802,26
6.439:72803,26
6.439:72804,21
6.439:72805,20
6.443:72806,19
6.443:72807,19
6.443:72808,19
6.443:72809,18
6.447:72810,18
6.447:72811,18
6.447:72812,18
6.447:72813,18
6.452:72814,969
6.452:72815,970
6.452:72816,969
6.452:72817,973
6.456:72818,972
6.456:72819,970
6.456:72820,25
6.456:72821,836
6.460:72822,26
6.460:72823,25
6.460:72824,21
6.460:72825,20
6.464:72826,19
6.464:72827,19
6.464:72828,19
6.464:72829,19
6.468:72830,19
6.468:72832,19
6.468:72833,18
6.468:72834,18
6.472:72835,969
6.472:72836,970
6.472:72837,969
6.472:72838,980
6.476:72838,974
6.476:72839,970
6.476:72840,24
6.476:72841,979
6.480:72842,26
6.480:72843,25
6.480:72844,21
6.480:72845,20
6.481:72846,19
6.483:72847,19
6.484:72848,19
6.484:72849,19
6.484:72850,19
6.488:72851,19
6.488:72852,19
6.488:72853,19
6.488:72854,969
6.492:72855,970
6.492:72856,969
6.492:72857,973
6.493:72858,977
6.497:72859,979
6.497:72860,22
6.497:72861,969
6.497:72862,26
6.501:72863,24
6.502:72864,21
6.502:72865,20
6.503:72866,19
6.505:72867,19
6.505:72868,19
6.505:72869,19
6.505:72870,19
6.508:72871,19
6.509:72872,18
6.509:72873,19
6.509:72875,970
6.513:72876,970
6.513:72877,969
6.513:72878,972
6.513:72879,970
6.517:72880,976
6.517:72881,25
6.517:72881,971
6.517:72882,26
6.521:72883,24
6.521:72884,21
6.521:72885,20
6.521:72886,19
6.525:72887,19
6.525:72888,19
6.525:72889,19
6.525:72890,19
6.529:72891,19
6.529:72892,19
6.529:72893,19
6.530:72894,970
6.533:72895,969
6.533:72896,969
6.533:72897,990
6.534:72898,990
6.534:72899,986
6.537:72900,23
6.537:72901,969
6.537:72902,26
6.538:72903,24
6.541:72904,21
6.542:72905,19
6.542:72906,19
6.542:72907,19
6.546:72908,19
6.546:72909,18
6.546:72910,18
6.546:72911,18
6.549:72912,18
6.550:72913,18
6.550:72914,969
6.550:72915,970
6.553:72916,970
6.554:72918,989
6.554:72919,991
6.554:72920,988
6.558:72921,24
6.558:72922,972
6.558:72923,26
6.558:72923,24
6.562:72924,20
6.562:72925,19
6.562:72926,19
6.562:72927,19
6.566:72928,18
6.566:72929,18
6.566:72930,18
6.566:72931,18
6.570:72932,18
6.570:72933,18
6.571:72934,969
6.571:72935,970
6.574:72936,969
6.574:72937,973
6.575:72938,970
6.575:72939,977
6.575:72940,26
6.578:72941,981
6.578:72942,26
6.579:72943,23
6.579:72944,20
6.582:72945,19
6.582:72946,19
6.583:72947,19
6.583:72948,18
6.587:72949,18
6.587:72950,18
6.587:72951,18
6.587:72952,18
6.591:72953,18
6.591:72954,970
6.591:72955,970
6.591:72956,972
6.595:72957,971
6.595:72958,975
6.595:72960,977
6.595:72961,20
6.599:72962,978
6.599:72963,26
6.599:72964,23
6.599:72965,20
6.603:72966,19
6.603:72966,19
6.603:72967,19
6.604:72968,18
6.607:72969,18
6.607:72970,18
6.607:72971,18
6.607:72972,18
6.611:72973,18
6.611:72974,969
6.611:72975,970
6.611:72976,971
6.615:72977,977
6.615:72978,977
6.615:72979,969
6.615:72980,19
6.619:72981,992
6.619:72982,26
6.619:72983,22
6.619:72984,20
6.619:72985,19
6.623:72986,19
6.623:72987,19
6.623:72988,19
6.623:72989,18
6.627:72990,18
6.627:72991,18
6.627:72992,18
6.627:72993,18
6.631:72994,970
6.631:72995,970
6.631:72996,970
6.631:72997,971
6.636:72998,977
6.636:72999,977
6.636:73000,991
6.637:73001,26
6.640:73003,26
6.640:73004,22
6.640:73005,20
6.641:73006,20
6.644:73007,19
6.644:73008,19
6.644:73008,19
6.645:73009,19
6.648:73010,19
6.648:73011,18
6.649:73012,18
6.649:73013,18
6.652:73014,970
6.653:73015,969
6.653:73016,974
6.653:73017,974
6.656:73018,970
6.656:73019,970
6.656:73020,986
6.656:73021,26
6.660:73022,26
6.660:73023,22
6.660:73024,20
6.660:73025,20
6.664:73026,19
6.664:73027,19
6.664:73028,19
6.664:73029,19
6.668:73030,19
6.668:73031,19
6.668:73032,19
6.668:73033,19
6.668:73034,970
6.672:73035,970
6.672:73036,971
