432
448
448
425
421
423
429
439
451
462
484
477
477
469
458
440
418
398
408
409
436
452
415
395
395
416
451
425
421
423
429
439
451
462
484
477
477
469
458
440
418
398
408
409
436
452
415
395
395
416
451
425
421
423
429
439
451
462
484
477
477
469
458
440
418
398
408
409
436
452
415
395
395
416
451
532
510
486
462
450
443
475
490
513
549
571
541
505
495
501
484
463
463
492
499
506
501
459
446
412
390
425
435
417
417
412
429
429
451
454
458
451
474
475
451
457
466
455
441
469
472
450
439
457
441
416
408
428
424
450
466
452
400
379
379
402
427
444
465
475
487
481
456
420
408
424
440
455
451
467
488
460
417
402
414
429
444
473
511
503
459
440
435
466
419
382
390
436
436
421
407
420
424
412
407
409
415
412
408
430
435
434
447
463
469
490
506
523
568
547
473
430
441
506
506
568
631
678
711
779
833
882
927
971
990
989
988
987
986
986
985
985
985
986
985
986
987
988
989
959
861
768
672
547
547
425
336
287
264
251
252
283
295
314
331
320
314
323
345
349
352
335
350
367
358
333
323
323
337
368
390
382
364
339
335
337
342
358
365
358
359
359
376
389
399
410
392
351
322
344
352
382
426
459
432
442
448
414
374
357
383
401
460
510
510
499
473
451
431
400
366
344
344
359
364
360
376
418
428
419
441
422
408
373
322
334
373
429
508
545
556
540
537
559
559
575
559
541
554
564
584
620
609
541
499
492
508
518
518
513
487
443
418
429
451
476
529
591
623
613
577
535
504
501
496
487
465
458
468
530
593
642
658
655
635
648
651
634
621
629
654
634
642
630
606
587
556
549
530
540
583
610
603
563
563
516
519
555
555
520
500
497
519
536
512
520
520
502
467
459
486
529
547
540
518
501
477
451
457
483
522
546
564
580
580
579
579
571
576
593
592
603
615
621
602
567
522
475
461
473
492
504
498
485
498
515
535
541
537
538
539
524
500
493
500
515
527
546
538
529
529
530
532
528
540
558
555
530
500
478
497
523
533
529
509
495
491
497
497
499
500
510
512
531
531
560
591
612
618
607
573
523
467
442
404
364
385
439
466
464
475
492
502
516
559
607
614
593
572
552
531
528
517
504
504
508
520
539
569
578
561
551
542
550
545
514
495
504
518
522
516
504
493
499
560
587
562
529
530
554
579
593
601
598
578
544
546
583
630
658
680
690
692
689
665
630
575
541
533
544
569
582
600
629
626
594
592
571
559
515
490
528
564
569
569
566
566
544
564
635
699
762
802
770
675
554
493
492
529
544
532
559
589
621
652
677
683
677
652
632
634
656
680
704
704
749
773
775
776
754
696
637
593
574
583
606
646
671
658
616
572
560
565
572
640
739
804
763
700
658
626
632
625
588
559
514
453
430
438
455
474
486
471
464
488
548
614
648
661
678
674
666
649
630
612
606
607
601
583
561
529
495
455
445
445
450
484
515
547
546
531
510
509
505
497
484
487
506
502
516
542
594
673
690
652
650
636
610
639
659
645
646
655
649
649
649
638
616
608
602
606
594
600
621
627
627
650
667
668
665
651
636
618
621
612
636
669
684
701
706
724
747
774
797
799
806
829
857
904
949
988
989
989
988
987
986
986
985
984
985
985
985
986
987
988
989
951
887
799
736
669
603
535
465
465
381
335
335
366
407
440
459
450
428
417
433
472
494
484
438
413
422
459
492
478
429
397
361
333
328
337
390
439
475
475
536
572
579
581
552
515
492
479
486
515
553
574
571
570
555
542
522
493
490
511
544
543
547
537
532
551
573
603
642
638
629
623
626
649
653
657
635
601
575
545
534
540
534
510
478
443
442
464
483
508
544
573
613
647
649
653
645
632
602
602
584
576
575
569
547
526
504
487
474
471
455
447
469
487
493
506
532
536
544
568
558
529
524
535
565
578
594
628
646
646
660
676
690
701
682
655
642
650
641
636
629
626
628
633
627
628
624
605
620
626
631
628
661
683
725
774
792
795
762
697
652
636
634
657
681
684
669
691
757
762
717
660
604
583
605
633
635
635
637
653
661
650
648
644
642
652
667
622
555
555
539
563
567
580
620
625
582
536
510
508
515
527
540
541
535
500
483
496
507
523
534
523
498
489
483
475
465
458
453
453
435
440
474
488
480
464
447
423
415
459
528
558
549
550
532
540
568
589
577
570
565
555
567
579
567
558
561
547
519
482
463
456
455
464
472
475
507
535
575
616
597
571
560
540
496
455
408
378
386
393
399
389
361
323
311
305
317
332
353
353
428
536
565
541
532
518
496
461
436
425
406
433
450
443
428
422
419
428
427
420
402
399
441
516
558
584
595
570
560
560
564
538
533
551
575
591
579
561
550
534
520
521
520
508
517
526
537
538
543
547
533
504
481
478
463
432
408
388
395
434
480
499
520
542
567
591
627
631
596
545
514
482
463
450
450
443
437
431
431
440
459
481
504
519
548
548
520
497
506
506
541
548
527
511
495
485
475
476
482
483
488
500
532
536
516
493
477
476
479
479
475
463
438
426
424
420
439
458
458
458
461
490
511
515
496
470
461
457
456
457
456
457
474
452
441
451
490
520
507
486
472
480
511
552
599
623
616
572
506
464
431
408
397
399
416
449
466
450
469
510
536
537
529
536
534
521
509
516
517
506
507
503
489
481
480
460
457
461
447
447
452
451
450
453
464
477
486
475
454
433
408
379
373
384
409
453
510
580
656
716
737
763
784
787
789
825
867
878
885
885
905
935
975
990
989
989
989
989
988
988
988
988
989
990
948
890
826
792
755
703
638
578
493
415
375
366
398
469
526
561
609
617
602
549
476
401
320
263
223
203
227
258
269
302
318
336
351
364
376
389
392
405
423
436
451
450
444
430
401
401
387
368
350
347
352
366
405
447
477
489
485
475
452
437
424
429
438
437
431
429
439
444
452
470
482
485
485
474
467
467
450
444
441
431
431
441
454
463
461
471
476
455
459
475
472
471
492
493
504
487
479
478
489
505
533
538
545
556
568
566
568
554
524
527
535
537
545
545
546
542
526
537
550
540
524
512
521
541
561
591
598
590
587
587
597
601
607
586
573
573
588
616
634
631
613
596
587
586
581
576
583
605
611
611
598
572
551
528
525
529
544
543
548
561
581
595
601
608
607
607
609
612
611
609
611
612
620
629
646
638
633
620
612
592
576
564
544
506
521
527
536
540
537
550
571
559
562
558
557
568
560
529
509
505
494
484
472
470
476
468
468
480
486
487
474
485
482
478
474
476
479
479
479
472
469
460
441
443
441
441
442
451
461
456
445
462
472
457
416
409
420
418
407
393
425
476
491
472
472
478
451
436
432
437
437
424
412
408
419
419
416
424
425
438
435
435
437
446
436
409
412
414
414
431
456
463
464
455
437
430
429
451
452
453
451
431
411
411
416
446
458
419
426
428
433
452
483
494
496
495
498
479
471
467
457
464
455
456
471
453
447
426
412
415
428
441
430
439
450
450
486
504
509
504
508
508
503
502
502
496
479
474
477
490
524
544
510
476
419
408
484
495
517
523
531
529
519
508
512
512
512
513
524
512
507
516
515
514
513
500
494
503
483
486
490
488
479
482
487
505
521
516
510
496
497
504
497
506
522
533
525
512
500
496
469
482
498
481
459
468
479
453
445
442
451
462
459
446
451
465
491
493
491
487
473
479
488
495
498
498
483
470
456
453
447
443
432
423
422
422
431
441
443
421
417
421
434
445
455
445
444
458
459
435
399
398
441
468
459
459
453
451
456
458
456
464
457
464
467
457
448
451
453
446
440
453
465
464
468
468
456
456
444
441
428
443
454
425
406
407
407
425
438
444
448
458
473
494
510
503
482
489
526
562
607
661
700
737
776
808
834
848
881
916
948
969
989
989
988
988
988
988
988
988
988
989
990
951
895
832
771
713
676
627
552
460
367
279
224
195
201
218
243
262
270
263
260
264
276
276
286
272
279
309
340
343
344
332
343
379
395
375
367
371
358
355
345
355
380
393
383
396
397
392
387
368
349
346
350
354
366
389
399
407
410
406
365
319
342
389
411
401
390
380
371
377
402
427
437
443
431
416
414
412
428
441
447
429
397
397
377
374
390
400
413
420
410
408
399
403
419
413
393
391
432
486
488
447
454
431
416
404
405
403
407
420
431
433
437
437
451
451
461
455
452
468
490
480
468
457
474
496
502
529
528
464
447
445
452
482
503
499
476
458
454
458
469
478
488
481
483
484
480
470
485
495
498
498
499
495
506
508
502
498
491
513
535
529
514
515
506
513
520
497
498
515
529
547
536
536
513
502
504
519
514
503
507
503
487
465
457
474
502
506
491
484
484
482
488
487
467
464
479
489
474
464
465
462
460
460
455
453
451
458
473
463
452
444
433
434
440
453
473
478
475
465
462
446
428
413
413
411
415
411
409
409
401
389
356
320
294
304
327
354
359
358
351
347
346
334
323
313
325
337
366
379
374
378
378
374
369
387
434
460
463
459
423
386
349
349
329
326
331
361
383
398
394
351
306
270
257
241
223
222
257
299
336
361
360
352
306
264
290
336
389
432
417
385
363
363
357
331
312
316
326
351
397
437
440
452
489
504
536
560
575
543
493
415
290
219
199
220
279
390
473
488
515
578
622
619
579
502
427
380
382
421
430
413
431
469
501
522
506
492
494
505
494
481
502
516
501
467
436
402
416
450
449
447
439
439
419
400
390
392
415
454
460
439
462
481
495
502
488
504
524
516
491
494
498
506
484
436
407
384
396
413
394
360
337
337
349
385
400
419
456
479
469
442
430
409
372
360
367
390
421
418
409
396
432
444
476
516
518
492
460
416
378
361
354
339
318
329
321
294
231
206
236
286
326
356
384
408
378
330
311
300
334
368
355
357
380
399
395
403
440
460
465
480
487
487
493
509
522
515
503
492
505
526
535
518
491
457
379
300
264
230
249
275
313
350
379
381
366
353
326
328
353
361
346
346
345
356
390
425
461
526
581
613
627
652
693
743
779
825
879
925
990
989
989
988
988
988
988
988
988
987
988
989
937
861
773
680
610
556
510
430
315
187
84
47
66
120
184
223
240
227
222
225
258
299
309
297
274
252
237
229
235
239
259
259
303
329
326
329
337
359
384
374
387
383
366
347
317
310
304
296
299
314
345
382
400
399
381
350
357
364
372
358
358
358
357
381
384
367
356
342
322
318
331
381
432
457
430
415
427
444
457
467
468
464
442
379
330
304
298
298
326
380
418
408
371
333
336
360
384
391
402
403
409
402
396
413
414
405
428
443
441
422
385
346
334
330
283
278
320
364
404
465
499
499
501
451
432
445
465
478
471
455
437
435
436
440
435
413
392
400
428
462
484
467
471
447
417
424
452
502
540
561
569
569
559
556
565
552
516
504
503
516
536
542
532
529
542
573
591
593
581
558
532
502
499
510
526
540
525
495
494
493
508
485
452
453
447
441
445
454
464
425
367
343
357
374
371
349
355
384
422
451
479
511
510
532
562
595
601
579
525
506
481
481
438
403
370
355
372
384
394
396
398
399
398
421
437
427
449
489
502
514
49
47
347
344
348
354
345
339
317
322
320
302
284
304
335
352
338
333
339
348
320
279
274
285
304
320
315
315
328
328
330
334
308
306
321
327
330
338
345
336
327
337
339
324
351
370
358
346
341
335
337
336
339
375
380
369
392
408
418
415
404
391
391
372
375
420
465
447
427
437
443
438
426
429
436
438
434
455
458
459
453
447
433
401
370
411
461
497
497
475
465
446
446
429
413
416
418
414
399
368
378
410
430
429
424
421
419
427
436
437
437
466
490
484
489
495
542
557
505
464
444
398
355
357
387
428
439
427
405
368
360
361
360
358
372
398
418
430
427
413
396
395
392
383
379
383
401
406
391
393
394
389
389
392
386
375
380
399
428
435
411
408
394
376
364
354
358
369
385
390
394
404
416
424
404
388
402
418
429
457
465
454
454
436
432
420
404
410
430
412
381
384
376
387
415
417
435
451
451
459
442
416
417
420
422
411
397
391
398
411
415
426
435
445
465
469
495
523
496
492
518
549
572
610
639
689
728
749
771
804
831
857
881
906
946
983
989
989
988
988
988
988
988
988
989
990
911
857
799
739
702
652
585
514
425
333
261
229
210
195
209
245
271
273
266
274
311
340
353
353
359
353
353
359
376
385
389
371
355
357
372
377
385
392
425
473
462
440
428
423
412
401
403
416
424
432
446
432
407
411
425
422
411
412
420
428
456
478
450
440
442
444
453
460
460
458
471
464
458
465
471
461
475
497
457
451
447
474
474
459
465
481
481
485
486
483
473
467
455
456
470
478
495
503
503
498
493
484
489
488
484
522
522
512
496
498
495
495
492
498
500
537
537
536
496
508
537
529
493
480
494
509
520
501
516
524
517
507
506
492
485
504
563
556
532
538
551
562
538
532
525
535
585
580
578
590
586
583
559
570
622
623
613
608
588
582
594
611
596
594
602
604
602
597
605
595
591
590
594
589
596
598
598
574
556
558
556
556
558
563
568
552
542
549
544
527
518
545
561
559
540
538
533
519
493
491
509
523
544
520
503
479
479
465
490
480
481
487
498
482
462
451
445
442
471
493
505
480
472
497
479
487
510
493
491
475
487
493
485
489
467
400
369
378
434
458
471
464
463
461
449
453
438
428
438
445
437
419
410
401
398
393
401
416
437
410
402
403
402
396
407
438
438
463
460
463
452
465
469
450
443
448
438
425
426
425
421
441
440
397
382
390
407
424
438
442
438
442
470
478
476
467
467
459
460
468
461
439
426
453
467
455
453
466
488
516
520
502
491
489
483
495
504
532
529
504
498
491
482
490
485
484
502
520
514
491
474
471
483
497
507
517
509
501
498
492
486
490
492
503
511
499
496
497
495
479
477
477
510
537
546
539
539
514
508
516
527
515
488
485
507
522
513
517
517
536
538
509
490
473
471
485
498
477
450
442
440
440
449
472
475
456
456
436
451
457
466
471
472
476
476
461
446
442
432
433
442
448
439
436
460
464
453
448
466
478
481
471
437
407
418
447
459
443
445
453
430
423
433
440
455
461
449
452
460
461
469
448
448
440
426
442
446
445
419
423
447
472
467
455
445
445
445
453
446
444
436
458
470
446
436
434
439
442
455
457
464
461
471
491
513
537
560
591
610
634
641
633
639
659
698
797
797
912
987
989
989
989
989
988
988
987
987
987
987
987
988
989
989
961
881
826
771
699
620
532
433
332
264
223
193
182
192
196
235
261
285
309
343
370
375
358
360
366
372
395
397
397
385
374
393
387
378
381
366
355
368
373
379
389
391
389
389
396
403
408
423
430
411
406
410
422
387
367
378
392
397
410
411
422
422
404
401
399
413
435
456
444
425
424
431
451
451
460
464
471
462
429
429
432
439
472
490
476
460
444
436
455
482
514
520
504
482
468
471
468
457
464
479
487
492
499
502
500
490
492
494
497
490
482
481
497
494
485
490
503
509
497
491
495
500
510
503
499
508
523
526
530
531
533
538
531
531
511
501
503
504
519
540
560
579
607
622
582
566
557
547
571
554
534
531
533
536
543
563
603
605
593
590
582
587
594
594
593
588
600
613
598
589
580
573
573
577
586
610
602
569
556
534
517
513
519
559
606
609
590
566
549
538
535
555
563
546
511
488
498
539
560
549
537
535
530
537
535
511
506
516
533
544
534
515
505
501
498
493
500
504
508
504
493
488
503
503
517
514
501
500
493
494
509
518
538
530
491
480
458
462
462
485
500
500
501
510
491
439
425
441
460
476
478
470
461
461
467
471
475
472
474
487
498
482
492
490
478
478
481
484
487
479
479
477
460
461
476
489
499
504
499
496
508
514
516
517
517
519
508
493
494
507
528
563
563
551
556
571
523
480
481
496
507
511
546
552
545
544
544
543
551
567
569
574
559
559
559
560
559
559
545
549
564
581
587
602
604
593
563
523
535
571
582
583
582
573
576
581
579
566
587
590
584
586
595
595
601
591
568
540
553
567
573
571
581
605
605
605
606
606
610
610
612
619
616
600
600
603
602
592
589
591
601
602
590
605
592
568
578
594
584
570
565
579
594
592
592
587
583
578
573
563
558
565
564
581
577
564
566
572
569
566
566
569
562
562
548
560
568
574
576
574
575
581
586
585
585
583
588
585
579
576
558
523
519
530
549
579
576
565
570
571
557
563
587
587
582
546
560
585
587
591
589
595
600
595
579
571
594
607
602
597
607
589
578
591
626
609
562
564
587
588
605
610
636
640
644
672
682
698
705
733
788
822
847
863
892
945
988
990
989
988
988
988
987
987
986
986
985
985
985
985
986
987
987
987
988
989
990
916
869
824
735
635
550
485
435
410
419
409
406
417
400
426
439
438
447
472
498
512
518
535
545
532
521
521
526
541
563
566
566
571
578
575
576
584
577
579
575
575
571
569
570
575
590
597
601
606
601
594
607
612
614
611
614
607
591
571
581
579
587
596
611
649
664
664
657
633
616
625
644
662
665
652
642
649
653
640
630
601
620
676
674
680
695
695
695
687
673
649
638
642
648
675
687
688
694
699
701
705
708
708
708
708
715
724
696
683
703
727
715
701
703
710
716
716
705
697
701
710
734
741
733
738
749
754
742
742
753
760
745
736
744
762
770
771
765
752
718
713
745
762
776
794
810
814
809
798
796
798
789
789
794
818
827
825
816
822
828
839
852
853
841
808
801
855
843
814
788
783
784
795
800
810
808
808
793
787
797
802
794
795
788
784
791
795
798
791
781
781
775
763
777
774
774
786
791
786
778
778
779
781
762
745
742
742
750
746
746
779
781
741
712
711
710
705
726
752
749
731
734
721
716
697
708
722
718
731
723
692
683
687
698
719
718
717
726
735
738
730
739
735
713
686
679
692
715
732
731
710
697
703
706
700
689
685
698
703
712
732
736
732
727
720
728
728
723
714
718
732
738
723
720
724
723
718
730
739
744
740
746
750
741
739
728
718
717
728
740
753
773
782
781
762
761
761
752
756
758
752
769
766
768
774
781
763
746
764
779
780
776
796
800
813
818
813
798
797
810
804
798
798
787
794
817
816
805
813
812
808
815
830
804
782
790
827
815
807
801
811
823
830
847
841
810
777
756
781
790
800
807
810
833
857
847
847
846
841
852
856
793
748
747
776
788
787
766
756
768
793
811
810
801
786
772
752
759
764
764
761
758
744
739
743
762
762
794
786
780
770
759
774
783
775
773
768
760
764
752
762
774
780
775
768
793
816
794
766
762
772
773
788
781
770
750
761
759
752
757
752
746
743
738
743
753
767
768
760
760
757
752
745
746
757
758
757
765
793
796
756
749
756
747
744
750
750
750
753
756
722
712
727
746
743
763
780
782
793
813
843
868
876
880
889
907
921
943
980
990
989
989
988
987
987
987
987
987
986
985
985
984
984
984
984
984
984
985
986
987
987
988
989
988
924
851
768
652
564
506
486
506
528
546
579
597
604
590
574
578
574
608
651
639
641
651
661
673
675
668
652
646
650
657
668
670
680
686
689
678
664
654
647
656
667
682
682
688
690
693
684
675
675
679
679
678
708
734
726
696
678
686
691
697
704
704
693
688
693
693
697
708
710
710
703
702
702
708
711
711
713
705
687
684
695
699
711
725
738
749
740
728
721
745
762
751
733
729
740
745
719
691
672
689
704
716
714
716
734
742
732
726
721
723
730
750
760
759
733
702
690
686
693
700
712
720
732
734
740
736
732
755
758
751
750
756
756
761
759
756
759
765
769
767
762
761
755
746
747
754
769
753
749
770
792
801
789
788
798
785
782
772
752
749
751
750
750
759
765
771
779
777
756
751
751
760
760
774
789
760
744
740
735
716
709
700
675
657
661
679
707
731
727
727
726
730
731
715
692
691
694
692
694
675
656
648
648
652
650
653
655
667
675
672
664
660
659
652
640
648
651
631
624
601
591
594
594
612
606
599
603
608
593
578
589
604
616
621
618
607
610
586
549
538
552
578
587
579
570
571
580
592
580
565
564
575
575
595
588
571
570
571
567
570
577
568
568
570
569
565
554
548
553
560
558
568
573
578
567
540
531
543
548
564
575
558
553
569
580
579
571
571
573
571
563
589
592
588
577
578
585
575
561
562
569
576
589
580
576
594
593
593
600
603
608
586
586
551
564
593
613
598
577
568
569
574
572
567
564
578
588
584
593
591
585
580
590
584
587
591
588
587
593
602
600
590
590
568
567
578
586
581
579
580
587
584
581
591
590
591
583
578
590
600
594
579
580
573
562
550
537
535
547
558
551
535
511
502
509
526
528
516
502
501
500
490
502
508
512
516
510
489
479
484
491
498
501
505
507
510
508
500
500
516
519
507
507
503
486
469
469
478
479
473
471
473
478
491
495
492
490
477
456
425
420
450
468
517
547
525
478
459
453
441
443
456
456
466
458
455
457
467
474
472
467
466
466
465
470
471
458
446
437
431
450
471
475
472
468
483
519
547
558
569
582
614
630
647
666
687
724
778
823
859
898
940
980
990
989
989
988
988
988
988
988
988
989
989
972
885
799
725
667
607
521
447
447
360
276
220
184
181
193
231
243
243
272
295
308
315
320
330
339
351
375
362
349
364
357
348
353
368
380
382
365
350
350
347
351
357
358
367
366
358
373
383
379
377
381
376
383
369
366
367
357
347
345
354
376
390
406
398
389
394
388
383
393
391
401
404
398
396
396
399
389
397
415
422
399
376
346
350
385
399
398
404
405
407
419
421
428
431
427
417
414
414
414
401
389
374
392
404
410
426
415
411
411
406
427
443
435
428
426
431
446
437
417
419
429
445
458
443
427
416
418
421
421
427
448
450
434
435
450
466
485
470
452
450
445
447
456
479
474
458
451
454
452
445
454
468
475
468
468
476
491
490
478
466
460
456
463
479
489
482
466
463
467
478
491
483
481
483
484
488
485
492
481
444
436
450
460
454
427
417
415
426
426
445
429
424
436
442
450
470
457
431
420
444
429
405
415
430
426
407
405
379
381
392
399
401
404
402
384
391
402
397
397
390
384
390
383
375
366
366
347
343
361
372
375
381
377
376
360
334
331
338
365
393
373
355
338
331
326
334
332
333
345
346
345
342
323
324
318
309
307
300
315
350
356
358
359
353
349
348
344
336
341
346
345
335
319
331
341
334
352
352
352
356
353
356
368
354
342
346
336
324
328
345
349
357
367
348
340
352
358
373
394
403
400
378
373
372
363
362
381
386
386
380
379
379
375
383
399
407
408
400
377
351
349
377
399
401
403
405
425
419
420
399
382
385
393
390
390
395
396
390
386
381
387
396
400
424
419
396
397
414
402
393
395
399
396
390
396
408
416
412
422
432
428
419
413
412
416
427
430
430
430
414
404
415
412
402
406
400
389
386
381
392
399
402
393
376
364
363
363
366
366
354
345
338
330
326
336
360
381
386
386
383
371
368
375
377
366
352
341
340
350
361
358
341
331
332
331
327
333
348
361
353
346
358
356
362
365
359
323
304
316
333
335
339
350
374
352
320
317
324
345
356
363
366
372
370
342
333
348
339
335
336
329
335
333
362
377
367
367
375
375
363
357
357
339
323
335
365
406
436
449
457
460
481
512
546
582
620
668
714
750
780
812
851
883
934
968
973
990
990
990
990
989
988
988
989
990
953
884
809
749
691
623
540
431
335
232
153
97
72
85
110
140
165
176
191
211
225
228
236
260
285
289
288
282
275
276
281
277
280
298
302
314
320
309
301
296
305
310
307
300
309
322
322
300
294
297
306
304
297
297
307
317
289
284
285
287
294
308
318
314
329
326
316
322
323
318
320
328
337
351
362
368
365
362
354
359
349
315
308
308
331
345
347
328
320
335
375
406
396
374
374
383
379
391
386
376
371
377
385
379
381
396
398
378
371
373
377
383
388
389
394
400
397
393
386
391
398
404
400
398
393
396
391
384
395
397
392
397
419
432
429
426
416
425
420
433
430
403
411
411
415
394
416
437
430
436
442
454
464
456
445
444
447
451
459
450
446
439
429
433
449
473
470
459
447
451
455
453
448
448
454
460
458
459
442
437
435
439
430
425
434
439
459
460
446
422
427
426
426
427
427
422
427
437
409
388
374
381
392
400
405
406
402
397
401
395
382
374
368
382
378
368
371
377
386
392
373
362
358
359
355
348
350
363
375
349
341
347
348
348
349
348
351
354
353
347
354
352
353
350
345
344
348
348
343
328
322
338
341
349
352
346
340
338
350
341
351
358
360
360
363
333
312
318
313
308
329
331
339
335
346
326
317
334
349
364
360
362
345
339
339
336
346
354
367
365
363
351
353
361
370
376
380
373
368
338
331
366
363
371
396
400
380
367
383
409
421
395
383
387
395
393
390
384
379
373
385
402
397
397
388
392
396
397
403
416
412
408
388
381
391
407
439
435
416
406
413
420
426
416
401
391
389
392
391
399
409
412
411
411
418
420
403
394
394
384
388
412
435
451
451
444
429
417
403
409
420
422
424
420
409
399
400
400
391
378
367
370
372
373
365
363
358
353
349
352
358
347
350
353
351
357
373
381
359
345
343
347
351
360
365
366
363
360
355
366
369
393
415
415
397
366
329
332
340
341
340
348
345
341
349
349
352
358
359
352
344
352
365
369
353
336
332
333
340
343
341
340
336
336
335
340
337
342
356
367
361
354
365
380
371
348
343
333
320
310
301
327
370
391
387
402
417
445
447
439
452
475
497
530
555
584
627
673
712
739
773
825
864
903
932
952
990
989
989
988
988
988
989
989
977
917
859
772
686
624
565
495
381
381
254
164
101
53
54
86
130
134
155
156
177
211
224
232
246
264
276
273
283
271
275
295
299
323
316
314
310
301
299
299
304
307
307
309
319
319
303
302
296
294
296
295
290
283
287
300
335
361
337
323
319
316
311
304
317
328
336
336
329
335
345
349
341
333
338
345
338
333
334
335
342
369
364
340
299
307
342
354
352
354
352
342
339
335
338
337
352
346
337
337
334
358
390
399
400
397
389
387
386
378
380
386
384
384
385
388
388
391
387
377
368
378
396
405
405
408
440
454
449
449
435
421
418
405
402
399
402
406
416
426
431
435
445
447
440
442
440
453
453
455
460
464
470
466
427
397
411
433
450
451
442
437
464
483
453
453
453
456
455
446
436
422
424
440
469
470
464
458
463
482
440
413
420
432
428
421
420
440
438
438
424
425
435
451
465
465
442
438
423
421
426
404
403
401
407
401
410
414
424
403
378
374
388
403
417
429
403
384
398
398
396
386
379
379
387
370
336
335
343
365
370
367
362
368
392
371
377
376
366
360
351
332
333
342
368
359
313
305
319
338
347
344
345
360
349
341
341
332
332
332
332
338
347
345
340
347
349
348
347
356
359
351
340
332
330
343
368
361
357
357
352
347
345
352
363
374
372
348
350
360
362
353
346
345
356
380
385
394
399
408
397
379
370
374
356
349
367
388
401
401
393
391
400
397
393
395
398
398
401
384
375
379
389
404
412
407
408
411
408
423
433
437
429
427
439
450
436
423
400
382
379
390
402
403
401
410
413
415
416
415
422
434
431
426
428
431
440
439
438
428
429
415
405
421
434
427
432
446
441
441
428
416
419
448
441
423
417
405
395
404
409
408
401
388
373
375
384
394
411
398
393
389
371
360
353
360
378
380
373
373
369
373
379
365
382
409
390
336
330
355
354
376
395
374
365
376
368
368
375
383
383
365
367
369
356
343
343
364
361
355
348
338
342
370
372
367
379
387
385
384
378
354
352
357
355
348
369
385
374
374
373
400
426
429
400
375
356
359
350
350
341
350
359
367
368
377
392
406
412
413
419
436
473
509
529
552
578
602
638
674
701
728
761
807
875
913
945
983
989
989
989
988
988
988
988
988
988
989
990
919
855
775
661
563
504
439
354
238
129
65
52
66
104
142
182
222
214
231
246
260
275
297
307
300
300
306
324
329
300
291
304
325
336
329
327
338
343
341
338
335
346
342
337
342
348
349
345
340
346
346
341
332
333
335
324
333
328
319
336
368
369
356
350
345
341
348
347
347
341
341
363
406
418
392
384
390
396
401
381
381
368
364
364
379
388
390
393
400
403
398
386
389
398
399
408
423
437
403
374
373
379
408
441
451
433
420
413
413
412
401
405
427
437
434
431
432
435
440
443
446
469
494
478
444
426
427
408
413
436
453
448
454
473
459
442
443
456
465
475
475
495
500
459
440
456
471
478
488
496
496
494
507
525
521
493
474
469
462
456
458
467
481
500
501
507
499
496
497
495
495
491
486
483
498
501
487
489
496
488
486
487
485
491
497
491
486
472
463
462
465
473
472
469
470
463
456
469
468
464
455
445
443
451
462
451
453
456
442
431
439
447
458
450
435
421
409
420
430
430
421
405
409
415
412
394
408
425
435
432
432
426
413
401
409
410
411
396
398
397
387
409
419
392
396
384
387
391
391
387
382
382
393
394
409
403
409
401
399
393
393
403
390
358
353
379
381
385
396
381
375
383
387
391
395
416
414
418
393
385
400
397
399
401
406
427
402
386
388
385
413
423
426
424
417
415
419
426
413
417
418
418
414
411
412
426
434
435
445
430
424
430
454
439
413
426
445
445
424
431
431
442
463
468
464
453
460
441
441
432
406
407
429
445
447
474
502
509
486
456
464
467
459
457
466
473
479
490
483
490
490
474
456
466
457
451
452
463
467
471
468
476
473
468
460
448
441
444
451
479
511
498
481
480
467
459
460
463
461
458
441
436
435
431
443
429
417
411
410
406
400
407
404
401
408
404
406
411
416
418
403
397
392
408
433
451
436
394
404
414
414
412
401
392
394
420
432
414
395
399
410
414
437
441
430
421
416
417
409
403
408
416
412
413
420
407
394
405
412
402
402
412
430
432
434
433
441
431
420
414
402
398
411
406
397
396
404
410
414
427
430
427
424
428
433
455
477
479
485
506
531
562
588
591
614
649
682
725
769
816
870
902
926
969
989
989
989
988
988
988
987
988
988
989
963
896
834
766
679
612
612
541
442
345
289
237
161
129
136
157
187
213
245
260
259
272
289
300
313
321
331
343
344
333
346
360
382
397
382
363
363
361
365
363
352
339
351
367
362
357
375
392
396
384
362
356
362
381
400
392
387
392
404
412
412
402
403
403
403
404
404
413
413
413
410
402
398
424
446
433
445
435
412
401
410
423
435
451
455
435
432
441
442
433
422
435
448
448
442
437
437
441
457
463
465
459
447
446
447
458
472
455
441
438
464
458
459
465
465
458
453
462
472
464
458
470
470
467
469
471
471
468
477
492
498
500
500
495
488
488
486
498
510
515
509
481
477
500
536
540
517
516
525
537
525
514
518
526
547
547
523
513
513
526
542
556
555
546
530
526
530
538
542
546
542
542
547
553
554
544
529
518
538
549
538
531
526
522
528
531
531
526
522
523
507
506
503
498
502
498
493
499
504
526
542
545
509
486
484
489
492
486
481
496
511
504
481
463
445
466
466
483
489
478
479
475
458
455
456
437
431
440
432
425
416
428
440
435
435
433
438
440
439
432
427
428
429
432
426
423
425
414
395
418
443
426
402
386
393
406
425
432
434
413
406
405
397
400
400
401
410
425
432
425
416
413
423
427
441
449
449
461
461
449
433
430
440
420
409
401
404
418
425
432
429
432
446
458
447
451
456
462
459
454
457
460
461
451
447
442
442
440
443
454
461
464
482
481
494
490
479
471
477
487
490
482
463
467
469
481
478
488
500
499
494
489
493
511
523
488
473
477
476
481
492
500
507
519
518
505
489
490
503
505
503
502
501
496
491
482
486
499
504
495
494
512
542
544
528
502
502
469
463
458
464
481
488
500
493
498
486
479
475
457
455
456
451
450
450
435
425
409
417
435
449
460
457
457
459
460
460
428
411
420
441
448
451
469
468
449
426
431
427
413
430
441
431
430
430
431
428
422
437
439
442
439
435
440
446
422
404
417
422
442
450
447
442
437
442
450
447
430
434
437
438
447
451
443
442
434
435
442
438
436
436
432
430
421
437
444
444
440
432
438
446
452
478
501
518
553
569
543
544
566
629
685
713
739
771
813
880
933
968
990
990
989
988
988
987
987
987
987
987
987
988
989
954
872
792
723
666
610
517
412
310
241
202
163
152
168
200
229
246
261
264
282
305
317
327
342
363
374
386
397
407
389
362
361
374
388
394
386
378
381
377
382
395
400
396
389
390
395
397
385
389
394
412
429
418
406
406
400
407
402
397
401
419
426
423
419
416
418
418
422
425
449
447
436
433
439
445
458
456
461
453
449
463
471
479
457
457
436
442
439
463
469
470
478
470
465
464
480
491
477
469
475
483
484
478
474
462
468
482
477
483
479
481
485
493
493
494
500
505
519
486
467
466
476
488
496
500
504
518
531
523
509
511
502
490
477
492
517
529
534
535
533
535
536
552
554
554
541
537
542
547
547
533
527
525
533
534
529
528
547
570
560
558
545
531
536
563
598
604
569
549
558
573
582
579
569
569
556
540
538
540
542
545
546
531
536
561
525
518
529
551
568
570
553
535
529
524
519
526
523
519
525
540
517
475
483
514
510
500
490
491
495
499
499
507
509
502
496
479
473
480
488
486
481
452
436
443
454
456
451
454
471
475
469
478
485
485
462
430
413
418
432
447
432
425
435
456
466
467
456
425
408
429
426
426
428
428
432
441
443
442
434
430
433
435
427
427
432
439
435
424
407
399
409
427
448
457
470
475
458
448
446
452
446
440
429
420
432
453
472
462
450
453
451
446
449
465
479
483
475
468
472
479
478
492
498
496
493
478
479
477
483
503
506
493
484
498
503
502
494
473
483
509
498
478
475
475
488
493
524
546
521
508
511
515
514
506
496
508
527
508
482
486
506
532
540
523
521
501
484
494
510
505
515
522
515
515
515
520
519
518
521
520
506
499
502
494
478
486
503
503
498
489
478
473
467
461
468
469
468
458
463
459
445
442
443
446
439
438
444
445
440
435
457
480
502
464
448
463
476
465
450
421
425
437
425
422
425
434
452
453
452
449
453
469
471
471
467
471
450
430
438
445
459
456
436
437
447
444
450
446
444
450
440
449
473
478
439
422
427
435
433
444
472
470
462
462
449
451
439
436
441
449
446
447
457
472
484
479
496
516
546
581
617
634
634
657
679
709
741
783
826
877
922
962
990
989
989
989
988
988
987
987
987
987
988
988
990
925
837
750
687
624
542
456
348
265
203
144
132
160
206
234
247
250
256
256
270
293
334
338
352
375
373
369
358
357
384
411
396
393
402
409
416
415
410
401
397
410
412
402
409
407
399
392
391
391
397
397
406
407
414
418
428
433
440
440
433
425
416
416
407
420
442
421
412
423
446
462
451
427
441
458
467
480
477
459
455
457
454
461
460
454
446
441
446
457
457
453
456
454
478
493
498
484
476
474
482
479
484
502
496
486
480
473
466
466
485
497
502
503
484
484
491
492
477
480
486
501
536
537
516
501
498
506
517
527
542
539
535
540
529
536
551
555
541
541
545
527
527
525
523
532
527
529
541
563
551
529
535
531
552
556
566
581
582
575
559
555
553
558
572
599
602
591
588
575
555
540
539
534
540
553
569
563
545
539
545
554
562
562
559
560
561
547
545
542
535
526
517
540
539
531
544
554
562
562
560
542
526
525
524
517
509
499
502
505
506
520
528
534
519
497
475
467
469
463
475
477
464
471
481
487
486
473
467
467
467
466
460
453
456
459
458
433
428
440
453
457
462
447
438
440
440
430
416
418
433
431
435
439
439
439
442
409
413
434
436
420
412
402
418
443
458
458
432
427
430
432
437
446
453
450
438
432
447
471
475
465
458
454
454
465
479
478
456
456
443
445
449
449
442
444
442
439
471
509
506
500
499
491
482
478
471
478
495
486
486
482
491
505
503
513
521
506
491
491
494
498
514
513
478
466
482
491
490
492
499
505
501
489
484
491
514
507
503
506
509
514
521
522
504
501
517
519
509
500
514
542
539
532
518
512
518
519
513
508
515
522
527
514
489
484
486
481
473
457
442
443
455
470
479
475
464
450
427
427
432
457
464
467
463
461
456
447
445
456
465
461
452
449
432
426
427
434
439
471
481
469
456
463
481
454
432
434
441
441
450
444
456
458
459
461
458
467
461
444
448
462
465
452
444
427
412
414
423
428
441
449
448
445
456
463
460
450
430
438
445
448
434
435
444
453
450
449
455
441
415
407
418
460
499
507
509
516
537
559
578
583
605
636
665
695
728
772
816
816
858
904
948
973
990
989
989
988
987
987
987
987
987
987
988
989
980
903
828
754
683
605
514
388
282
214
150
135
170
170
225
234
248
276
297
297
293
285
277
302
345
369
378
374
366
365
373
382
392
405
408
403
391
385
390
406
418
411
403
408
406
408
416
410
402
400
407
409
398
407
415
423
418
400
397
409
421
426
421
422
417
418
430
428
440
465
469
448
433
433
435
438
424
429
439
458
464
462
455
446
445
454
466
475
465
474
481
477
466
456
458
480
490
471
469
477
481
480
475
475
476
479
477
473
477
481
493
500
503
500
497
510
528
560
580
559
477
444
451
467
480
485
490
500
516
523
524
523
525
524
518
514
512
519
518
530
545
552
558
556
551
567
588
551
533
520
524
539
562
559
537
542
555
557
549
547
541
550
563
563
571
563
554
546
536
539
542
557
572
583
580
567
561
559
562
556
559
561
560
556
550
541
548
553
556
567
554
537
525
525
517
507
516
536
553
546
529
531
526
520
505
508
521
520
519
517
519
504
508
505
492
490
480
482
491
491
478
475
469
470
475
483
502
513
490
464
451
436
438
449
460
456
435
428
441
460
432
432
434
441
440
434
431
434
442
447
454
456
457
457
434
439
438
421
412
429
430
417
428
440
447
445
446
456
444
432
434
442
437
436
443
425
402
441
466
458
451
447
454
454
447
453
466
478
477
475
481
476
477
478
479
484
494
499
522
497
482
481
464
469
467
465
457
463
469
475
488
491
491
472
467
473
484
489
491
498
488
475
488
505
510
521
529
518
502
499
499
501
506
510
510
511
504
499
499
513
518
514
506
506
508
505
515
511
507
552
595
554
532
533
525
520
522
515
512
496
488
493
497
484
487
496
496
502
490
483
512
498
485
485
488
483
475
473
468
465
460
499
505
470
437
430
469
458
447
440
445
431
430
436
444
434
468
458
450
442
436
439
459
471
456
453
465
449
429
419
408
406
415
419
428
423
438
457
465
466
450
444
448
434
423
444
457
462
462
463
462
484
457
457
441
444
430
420
431
440
448
468
516
475
449
422
427
467
458
462
454
444
481
451
437
445
452
516
526
540
526
545
604
604
602
613
638
667
688
729
773
807
849
902
933
957
990
989
989
988
988
987
988
988
988
988
989
990
941
862
774
687
619
550
471
366
271
204
156
143
185
206
201
225
245
262
265
282
309
332
353
351
352
363
362
369
371
385
408
411
412
394
391
391
402
395
379
359
380
389
386
397
395
389
404
408
405
404
389
393
412
418
412
411
426
429
434
419
411
410
408
410
419
419
417
461
453
439
444
445
430
421
421
425
428
473
454
445
440
448
497
482
470
464
469
510
476
457
451
447
452
454
449
444
445
466
468
459
469
474
484
482
475
465
470
480
483
472
469
469
477
501
501
481
482
487
499
519
510
477
472
498
521
521
510
501
511
526
527
542
552
555
540
515
509
505
504
517
522
532
530
537
559
554
536
527
521
526
529
536
535
546
557
557
582
572
536
528
527
526
543
572
581
580
593
576
564
578
567
558
553
548
550
554
554
553
559
575
581
565
550
559
547
531
526
531
537
537
540
537
533
531
538
542
530
508
501
512
534
535
526
513
501
499
503
506
512
518
502
488
475
466
462
462
469
476
481
492
509
502
481
466
463
467
462
464
453
446
441
439
438
438
449
459
473
481
470
468
445
427
422
409
412
412
430
425
420
415
417
427
432
437
423
417
420
419
418
420
428
439
439
434
438
456
447
438
444
451
470
459
439
427
415
404
414
428
446
454
452
454
455
432
426
425
425
431
444
456
492
515
497
477
447
435
439
454
456
450
455
465
479
482
478
478
476
480
474
471
485
487
476
465
488
479
490
539
541
506
489
497
492
494
494
507
508
507
505
499
486
482
487
504
518
518
498
475
484
495
496
497
498
502
506
513
528
516
512
510
503
496
503
511
514
509
510
526
530
527
516
509
517
535
494
449
459
474
492
494
483
467
471
468
447
439
432
429
430
443
457
458
467
469
463
452
450
451
463
454
452
457
459
455
454
454
462
458
462
485
500
511
474
442
436
447
429
424
423
440
453
468
455
437
444
445
447
436
430
433
441
461
472
469
467
467
471
448
427
428
438
449
475
502
491
474
458
449
456
449
447
456
460
454
472
474
466
450
452
440
444
448
437
460
482
502
477
478
491
511
541
566
590
608
624
641
667
687
728
768
810
873
917
944
990
989
989
989
988
987
987
987
987
987
988
988
989
990
942
880
783
714
652
581
489
379
284
212
179
159
171
201
226
240
267
292
299
299
283
283
293
322
357
377
383
383
394
402
402
409
396
399
422
446
458
430
394
384
394
386
405
404
406
416
416
409
415
421
422
420
412
409
415
425
436
437
445
442
440
432
446
453
451
440
436
441
441
445
445
451
442
440
454
462
459
457
443
435
443
443
461
473
500
476
455
455
458
470
489
506
509
491
482
469
452
448
453
459
479
504
503
513
509
507
517
498
468
471
491
510
516
514
528
548
553
553
545
534
527
525
523
513
518
519
523
529
528
530
543
543
539
564
563
566
543
524
520
530
544
565
580
577
583
571
556
562
566
565
599
599
591
587
577
579
581
580
574
575
595
588
592
584
588
594
599
604
604
599
592
574
559
564
577
585
601
601
588
573
577
586
578
578
581
593
599
609
612
597
586
547
508
521
542
546
554
563
562
554
547
550
551
550
542
544
545
545
538
532
526
533
525
506
503
500
488
508
523
519
521
521
546
530
520
509
512
535
519
508
497
494
497
464
448
452
444
450
456
456
455
458
473
453
445
449
466
462
454
472
470
459
450
444
440
441
441
445
452
458
442
444
458
480
486
479
488
488
479
478
480
474
485
504
472
463
462
450
452
466
474
472
480
495
481
477
477
498
507
506
492
479
479
475
480
485
491
491
486
491
503
507
508
516
515
506
509
503
510
525
527
523
520
527
552
548
543
536
520
523
540
548
537
531
532
528
527
523
529
555
549
540
538
539
554
544
548
556
525
510
506
512
530
540
552
566
563
550
555
572
574
560
558
572
576
569
565
565
541
524
525
525
529
533
526
541
547
537
523
521
528
529
518
496
482
475
489
511
522
506
491
485
473
470
480
511
540
540
540
524
519
519
509
498
495
506
506
507
507
503
492
489
492
498
515
522
516
519
504
490
490
499
505
496
503
515
521
521
515
506
489
487
495
501
514
527
526
523
506
492
486
497
499
508
514
513
518
522
522
508
498
499
506
506
514
520
522
522
520
515
519
540
538
517
493
488
516
562
594
610
620
637
662
695
720
728
770
817
833
869
915
957
990
989
989
989
989
989
988
987
987
987
987
987
988
988
989
978
923
850
772
680
613
549
443
356
305
268
265
279
291
306
326
355
363
328
317
342
365
383
396
424
441
445
457
475
465
456
466
466
471
480
473
466
452
436
448
462
467
474
476
477
472
485
495
496
485
485
493
497
492
492
481
476
477
490
500
510
516
531
536
518
506
502
515
512
500
491
491
509
531
550
540
523
519
538
548
548
540
535
541
545
533
542
546
514
530
531
525
534
545
563
566
525
512
532
550
558
573
576
568
574
568
558
559
566
576
579
576
579
577
571
567
560
568
569
585
602
588
585
588
593
588
601
605
593
590
601
608
617
614
618
631
615
604
618
628
628
630
630
638
642
637
625
629
632
634
633
629
636
653
638
628
645
636
633
647
668
685
680
676
678
677
673
671
656
649
649
647
656
652
638
636
650
652
632
626
633
644
648
647
638
631
633
629
638
627
623
629
639
624
613
610
606
608
597
591
588
597
609
609
614
604
580
575
596
612
602
589
581
582
577
571
565
568
561
557
559
561
560
543
533
529
515
497
516
523
523
550
564
567
560
529
522
521
534
535
528
522
517
515
515
517
515
513
511
529
537
531
530
521
513
505
486
476
486
495
495
512
527
533
524
510
493
491
505
502
514
522
524
507
496
526
536
541
544
545
536
536
546
538
526
526
543
551
540
534
550
554
560
556
534
522
538
539
530
538
531
539
563
573
559
544
545
547
549
545
533
544
585
602
599
592
581
579
582
593
593
586
583
580
588
588
582
587
600
594
572
570
577
587
582
578
563
579
593
600
602
583
587
587
594
597
598
617
614
611
611
592
591
592
603
608
615
610
614
599
582
575
564
573
589
600
590
581
576
575
577
572
574
555
538
534
536
542
563
558
547
558
548
537
550
571
577
546
551
542
537
525
527
533
530
518
511
505
516
526
532
530
515
516
529
537
539
537
537
542
542
549
522
516
529
546
553
564
572
548
524
513
522
512
504
508
514
508
518
539
550
539
516
517
524
532
534
528
529
536
536
543
534
531
529
519
515
512
507
506
511
519
540
571
612
619
618
620
631
637
628
644
667
701
734
782
845
890
909
929
970
990
989
989
988
988
987
987
987
987
987
988
988
989
988
929
879
811
741
646
547
458
364
292
264
241
229
250
279
298
298
326
350
370
391
391
393
406
428
438
446
455
465
474
466
470
477
474
479
480
475
467
464
469
472
461
459
470
473
481
481
496
507
492
472
463
475
489
513
521
512
492
479
483
495
509
494
480
482
480
484
486
501
518
521
524
542
533
527
530
532
536
524
517
516
505
496
487
497
517
519
514
534
562
562
547
542
541
546
556
564
549
540
551
552
546
531
526
545
564
564
559
540
535
539
562
570
562
549
546
544
568
575
577
563
552
571
576
572
576
571
577
579
573
568
563
561
570
582
591
591
594
593
598
615
631
640
624
585
564
547
535
551
593
626
619
599
587
606
627
605
586
599
604
591
590
602
609
599
613
629
636
623
615
616
617
623
618
603
599
594
583
579
584
596
595
600
592
587
603
616
611
602
605
609
595
587
576
572
574
574
582
583
579
567
555
552
552
559
555
548
549
564
567
555
550
557
543
530
534
527
533
534
516
514
524
518
521
506
499
499
509
514
519
520
509
499
499
503
503
529
514
485
470
454
466
487
501
497
478
462
460
467
474
468
456
468
489
486
479
478
479
484
487
499
499
515
494
460
451
450
481
519
496
471
459
438
434
441
450
473
497
507
502
499
506
503
493
492
515
515
518
502
503
514
508
499
500
502
502
508
517
517
522
527
522
518
519
518
520
521
522
530
531
529
518
510
516
526
538
538
541
543
549
559
549
524
513
510
519
520
522
538
548
549
547
550
546
539
534
520
526
538
535
532
543
535
536
545
550
551
539
552
560
559
553
548
545
553
565
563
556
526
528
541
543
547
528
519
525
529
522
520
522
526
529
516
501
504
518
518
503
470
471
490
488
480
474
469
470
477
488
484
481
484
480
470
471
469
470
489
508
500
493
488
479
470
476
482
481
481
475
469
464
464
466
473
491
501
511
496
468
452
451
462
466
469
472
473
476
481
483
496
493
484
476
474
472
472
473
471
475
470
467
472
471
473
480
480
476
469
447
448
457
450
445
452
459
479
491
505
507
512
532
556
582
589
601
625
671
671
702
728
777
820
859
900
938
973
990
989
988
988
987
987
987
987
987
987
987
988
989
948
863
778
712
642
551
459
356
356
271
229
209
191
206
230
261
289
309
325
326
325
333
350
360
372
365
363
377
375
359
373
375
383
407
418
418
415
416
416
429
429
425
411
404
399
398
405
409
415
437
441
439
422
418
428
428
426
424
423
429
435
444
449
443
450
434
437
447
447
447
465
464
465
458
439
426
436
443
439
438
448
457
457
453
434
452
489
508
495
468
464
465
464
457
476
482
473
480
480
479
478
482
487
484
489
475
477
478
470
480
485
500
518
514
506
517
511
504
488
491
504
519
493
472
469
458
463
486
513
506
512
536
529
522
514
518
520
525
530
529
526
539
533
526
541
538
527
531
549
562
552
545
544
546
523
513
529
544
544
550
562
564
566
547
538
544
549
557
559
551
548
563
574
565
546
521
527
537
539
535
533
530
527
495
501
560
566
564
564
547
520
507
504
506
508
501
508
518
530
519
495
479
483
502
517
513
522
492
473
468
465
466
471
495
477
448
436
456
466
469
480
471
447
439
444
451
460
453
455
456
450
443
435
436
438
438
431
438
441
448
439
441
439
430
423
431
441
437
437
432
425
425
426
425
425
430
434
422
425
429
430
447
459
451
449
441
427
431
416
417
428
435
436
428
427
442
448
436
436
455
473
464
448
441
437
447
450
432
439
447
452
455
461
480
478
461
476
507
494
465
448
450
461
466
464
456
456
466
492
497
491
478
477
478
477
481
480
489
472
475
486
494
496
495
498
510
501
482
465
444
440
470
480
482
484
491
506
517
517
515
487
476
500
508
495
485
497
508
501
514
507
503
507
517
523
524
521
517
524
514
508
513
514
512
505
501
505
510
510
500
495
485
483
492
493
491
491
478
456
442
425
433
441
448
443
436
440
455
448
444
449
444
433
442
460
460
451
445
434
429
428
441
446
445
443
437
433
441
439
434
433
428
419
417
421
425
439
451
463
472
452
450
444
440
449
438
406
399
399
422
445
474
457
436
421
410
415
419
426
433
441
429
431
429
433
432
421
415
412
420
421
431
429
431
433
436
430
429
429
451
468
480
482
497
514
549
574
585
607
644
674
705
738
776
827
855
883
908
943
990
989
988
988
988
987
988
987
988
988
988
988
990
918
837
755
678
599
499
376
270
215
174
152
181
218
239
243
241
237
241
260
283
310
323
340
366
377
351
351
336
330
323
322
335
374
391
401
398
381
380
404
418
403
396
377
358
341
329
337
367
389
391
384
377
380
383
387
384
384
380
385
398
415
426
427
416
411
401
410
417
418
418
417
414
400
411
432
430
435
433
429
423
421
410
405
406
412
420
426
427
425
425
429
437
429
433
440
442
443
462
472
461
444
433
443
447
453
454
462
464
473
471
465
460
460
474
481
483
483
480
477
487
481
456
439
447
456
447
443
453
466
488
500
511
517
519
518
496
483
487
501
504
513
528
530
523
514
513
513
510
514
525
516
496
507
524
521
522
523
519
520
515
523
528
531
537
535
513
512
519
510
514
520
517
524
518
513
510
509
516
516
516
528
520
511
508
510
514
512
498
498
492
489
504
486
478
470
464
460
463
464
466
469
468
469
473
480
474
474
471
463
452
456
467
475
468
447
428
447
462
459
448
416
408
431
420
417
430
430
430
417
411
405
407
418
427
429
423
423
422
416
403
386
376
396
432
438
418
411
409
405
405
403
397
394
400
401
402
403
407
411
410
415
413
394
412
410
400
410
419
428
415
406
399
389
401
414
418
417
413
407
401
409
415
430
413
407
413
423
428
425
410
413
421
435
438
449
450
450
444
445
437
434
428
428
453
458
451
435
420
421
433
436
444
442
441
435
437
446
454
472
487
504
483
446
435
454
462
462
461
465
464
461
463
468
470
470
476
475
462
459
468
474
477
480
475
462
467
481
482
472
474
469
458
476
496
501
493
505
503
487
484
487
491
479
454
442
441
443
454
467
471
472
474
471
460
455
456
447
437
447
451
450
449
449
437
439
434
434
426
420
406
397
404
414
429
428
416
409
406
402
404
399
392
400
400
414
432
429
417
419
411
417
417
411
406
403
399
399
408
408
404
419
415
417
417
415
413
433
436
426
429
422
411
415
422
418
413
418
430
414
406
416
411
411
420
410
399
406
425
418
409
403
403
411
422
425
394
380
396
403
403
423
436
419
393
394
422
467
499
520
547
545
559
584
614
644
688
688
739
781
820
856
899
931
969
990
989
989
988
987
987
987
987
987
988
989
962
868
789
714
635
558
480
376
274
186
122
122
112
128
160
191
225
240
241
244
260
286
300
306
302
310
307
312
342
350
341
345
343
344
338
344
371
345
326
342
348
353
350
348
344
346
341
346
345
347
355
371
392
384
375
380
388
367
379
380
361
336
325
332
365
388
387
398
390
380
379
379
386
390
392
395
394
399
391
390
416
427
414
413
411
411
406
402
397
395
416
428
435
437
433
426
425
429
414
419
417
417
414
414
424
447
466
459
435
441
444
441
430
434
436
434
430
433
458
456
454
466
464
458
458
468
473
461
431
431
449
467
486
483
460
449
455
471
488
489
484
480
485
478
474
482
491
498
481
487
493
512
521
517
502
499
502
502
518
499
489
489
498
504
497
481
470
499
536
547
543
526
518
524
543
530
485
477
495
515
496
490
495
497
507
511
501
495
482
454
439
439
459
474
476
478
469
479
488
480
480
476
479
479
479
471
465
466
469
448
419
421
428
444
452
446
436
427
422
417
422
411
418
442
460
448
432
428
426
416
396
400
402
404
398
388
389
396
397
393
393
370
373
389
399
397
406
414
406
397
397
397
438
402
362
365
381
396
403
408
409
395
378
376
400
401
388
379
381
383
401
398
401
402
405
398
388
384
385
395
404
404
404
400
414
393
385
387
421
440
425
422
410
415
423
427
418
417
413
416
423
427
435
427
429
441
446
442
431
423
425
431
422
422
429
446
438
445
442
447
472
462
461
445
438
435
432
445
445
454
470
469
448
454
457
464
460
453
448
447
455
455
475
492
479
478
472
450
442
453
471
485
486
466
467
450
449
458
467
468
486
512
519
534
514
480
466
468
481
489
489
489
495
502
492
493
492
492
496
488
486
473
462
472
465
443
434
444
464
449
448
439
422
415
414
441
442
437
422
413
408
415
418
412
425
429
410
411
429
424
424
433
435
434
419
429
430
423
409
413
424
421
425
431
454
468
450
436
428
422
423
423
423
429
436
425
430
447
455
446
430
424
425
428
436
409
395
417
436
449
449
438
429
422
418
427
445
445
459
467
448
448
416
394
387
398
414
413
415
427
434
427
437
461
483
507
515
533
569
587
591
600
617
644
698
774
817
831
879
925
958
990
989
989
988
987
987
987
987
986
987
988
988
989
952
870
789
693
627
541
426
312
229
163
125
156
196
234
266
284
288
288
296
297
286
294
320
364
406
397
373
357
349
346
353
366
374
370
376
381
383
394
392
384
390
401
400
400
392
381
373
373
375
385
400
404
407
411
403
406
409
416
423
423
408
406
413
422
420
415
432
424
415
400
385
407
420
425
420
418
421
431
449
461
460
448
445
456
466
467
472
460
435
422
439
463
470
470
465
476
477
469
465
459
462
483
502
494
491
506
517
517
505
497
494
497
492
489
491
492
503
509
522
525
516
512
512
511
512
510
508
520
522
525
533
549
534
524
527
526
530
530
532
537
542
541
538
553
562
553
557
554
557
553
554
554
555
567
586
591
564
544
560
579
579
565
560
569
574
571
564
575
586
585
594
584
568
586
597
586
571
574
577
565
562
563
564
573
581
582
584
561
544
549
547
542
546
543
549
550
543
543
543
548
554
555
554
546
522
522
530
542
542
529
510
510
532
540
536
527
516
512
510
503
502
502
496
490
498
518
527
527
518
501
492
501
494
480
479
504
498
478
464
462
468
473
473
461
459
469
462
451
448
455
456
452
462
469
473
470
469
468
471
481
486
492
489
469
465
469
464
453
445
450
456
498
508
493
490
487
491
489
494
508
517
516
517
516
504
491
483
483
495
496
489
489
493
495
490
486
505
518
513
504
506
512
510
510
513
522
525
522
519
516
510
517
508
492
491
503
509
509
529
546
519
513
529
562
573
575
564
548
545
547
560
557
547
542
544
525
516
533
542
538
535
538
542
550
562
563
564
575
572
568
563
553
551
557
558
566
581
576
573
566
561
569
566
567
574
580
584
585
579
575
576
581
586
589
585
570
555
555
556
579
590
580
580
570
561
552
550
543
544
557
557
540
527
511
493
483
477
481
510
515
505
503
504
510
507
511
508
508
502
501
530
530
500
493
496
498
485
479
521
531
516
520
542
545
530
518
501
492
499
518
532
528
513
523
515
496
492
495
508
518
523
512
497
501
516
518
510
513
516
499
499
512
505
489
494
503
514
517
532
537
520
504
493
488
499
510
500
500
496
485
486
501
507
507
512
529
546
560
586
613
624
646
664
682
713
752
783
822
854
893
957
989
989
989
989
988
987
987
987
986
986
986
986
985
986
987
988
989
959
864
783
728
653
565
449
346
293
254
237
243
254
284
312
319
329
333
344
369
383
404
424
427
427
430
411
415
433
437
441
441
432
428
430
434
449
451
452
451
447
443
462
457
428
433
442
453
476
476
477
461
448
443
447
452
442
446
458
469
475
475
472
475
485
489
488
475
479
502
500
492
492
478
475
484
483
492
502
502
496
497
490
469
484
503
510
520
507
510
509
489
462
480
510
525
546
538
532
527
528
528
525
523
528
527
520
522
519
517
525
507
507
516
528
541
541
527
518
533
558
580
574
543
529
543
546
564
574
573
570
568
546
543
570
585
593
584
584
584
580
578
579
575
572
579
581
581
600
586
572
579
586
587
589
584
585
595
601
624
636
597
564
570
568
548
544
573
598
598
594
603
606
606
595
586
593
595
592
573
553
542
547
554
559
562
560
561
562
575
559
545
539
539
544
544
547
548
546
535
537
538
530
526
534
531
522
526
536
538
524
504
485
481
492
527
522
508
491
477
499
492
500
500
483
481
488
499
499
499
481
457
452
457
459
455
448
452
460
465
453
448
436
438
438
444
434
438
456
460
464
448
452
441
422
426
442
451
463
463
462
443
441
442
448
426
423
423
432
449
450
459
452
446
442
439
434
432
439
449
453
436
443
454
460
456
458
460
451
437
436
483
488
472
461
452
438
425
439
475
488
463
472
465
462
473
462
470
481
486
464
459
454
440
452
463
474
482
486
486
489
489
474
496
496
509
511
495
496
491
497
523
530
504
485
496
498
499
505
496
481
495
513
509
488
491
490
488
491
491
500
506
507
509
489
471
471
477
493
505
511
509
510
489
496
505
507
515
526
528
510
508
515
531
525
531
535
534
522
504
494
494
494
493
493
482
481
482
477
474
476
471
458
441
443
454
457
439
430
428
431
429
428
423
435
434
435
432
424
424
420
418
425
435
448
431
449
470
463
452
442
443
457
465
466
462
458
438
435
436
433
443
454
447
442
428
427
432
427
427
418
404
413
477
475
445
435
423
427
431
427
431
432
433
435
440
432
433
441
460
449
435
446
452
457
437
403
388
403
421
438
440
436
435
439
453
460
469
477
475
485
497
528
561
590
617
639
656
708
782
826
833
870
928
969
985
990
989
989
989
988
988
987
987
987
987
988
988
990
909
829
757
692
624
539
438
335
246
183
151
160
191
209
228
238
250
256
266
270
270
281
294
302
312
339
355
335
341
352
351
348
350
354
358
362
356
370
366
366
384
398
374
362
352
361
358
353
361
360
370
386
389
381
382
370
356
366
377
404
416
427
419
399
406
396
397
404
405
399
409
444
462
422
388
380
396
411
413
406
406
422
425
409
406
410
421
417
410
411
421
435
436
435
441
459
443
423
419
413
420
432
439
441
424
424
431
433
446
455
455
455
459
453
446
451
449
458
470
467
461
466
463
453
469
480
482
477
472
467
470
466
470
470
471
482
485
490
500
509
520
531
508
480
480
474
476
506
537
535
529
521
520
528
536
535
533
530
533
541
535
526
527
540
543
542
541
515
507
526
526
543
532
533
527
515
518
528
517
519
532
521
526
527
531
519
484
473
472
460
446
462
474
481
490
495
489
481
484
484
484
477
461
451
457
461
464
459
450
448
445
439
432
421
412
408
411
423
426
436
465
463
438
430
423
411
409
402
402
414
423
412
405
411
383
361
350
366
375
396
411
405
384
382
377
374
393
402
393
373
377
378
376
369
371
379
362
371
384
389
389
391
386
375
388
391
396
396
385
381
388
388
395
397
391
389
399
390
387
386
383
403
412
400
403
403
419
425
408
401
401
387
379
392
417
402
382
396
405
407
409
421
435
431
421
426
422
413
414
413
408
416
415
414
416
414
423
444
457
451
435
435
453
450
441
427
399
412
441
454
439
431
423
433
442
426
434
460
465
459
449
440
443
446
446
450
460
463
460
444
444
441
435
432
423
429
430
432
444
458
472
479
474
477
481
473
473
472
468
463
454
470
497
487
468
478
483
456
444
444
444
445
445
456
457
451
443
441
438
429
426
423
412
412
411
401
404
409
403
390
394
411
411
412
417
418
423
425
409
409
417
411
414
433
430
402
393
385
385
400
408
396
399
415
421
407
403
402
398
399
404
413
420
427
434
432
421
395
393
383
383
374
365
357
365
381
403
418
419
426
429
437
441
431
420
396
389
399
392
393
397
397
387
381
397
414
417
407
404
407
407
419
437
442
442
447
461
456
456
472
502
537
564
585
617
627
653
678
716
767
811
851
882
898
922
961
990
989
989
988
988
987
988
989
990
947
892
834
767
710
657
595
514
419
318
241
182
155
164
174
186
226
255
271
274
284
280
275
278
289
289
296
315
336
364
353
335
321
305
307
330
353
366
376
374
355
347
365
385
391
374
373
368
359
361
345
352
360
386
394
394
365
365
371
378
387
380
375
379
383
389
387
392
399
400
403
409
422
440
430
405
388
380
378
387
392
396
401
412
410
406
407
419
425
425
424
439
456
442
417
392
382
393
412
432
434
429
432
436
433
428
422
431
439
447
449
445
453
460
458
458
451
450
449
451
459
467
470
470
469
466
471
474
465
463
474
483
474
491
506
515
511
513
509
508
503
496
500
510
518
518
514
507
505
514
522
525
528
527
541
522
524
528
524
548
542
520
525
547
574
547
505
525
543
557
562
558
546
547
542
545
557
530
504
487
489
497
493
498
510
523
518
510
505
511
524
524
489
478
483
487
489
480
472
476
473
471
467
462
473
473
497
483
475
474
469
463
462
462
467
467
467
454
434
419
423
430
432
430
435
445
439
428
422
430
437
432
427
413
405
405
403
407
403
390
383
386
387
395
401
405
406
411
409
406
399
392
385
375
361
356
364
392
412
396
387
399
398
403
411
393
395
389
383
387
386
388
394
398
398
402
405
385
377
374
379
406
421
407
396
387
411
420
408
409
405
404
403
413
419
419
410
414
428
435
436
407
384
403
409
391
400
420
440
442
451
453
449
441
431
418
412
415
423
443
449
450
452
461
460
460
462
465
458
453
441
444
458
466
451
433
436
443
451
462
480
474
471
466
462
462
454
455
467
470
456
466
470
477
480
483
472
464
466
460
489
491
474
452
442
445
465
485
494
491
468
470
489
486
468
467
460
458
463
466
483
465
455
456
456
456
461
465
465
462
454
433
422
414
421
421
415
415
425
443
459
467
450
429
413
419
410
396
400
422
441
433
435
432
432
432
429
427
429
427
432
426
443
435
430
431
431
415
396
396
410
412
399
410
425
448
448
426
417
413
417
424
418
413
415
401
401
410
413
416
423
428
435
433
425
410
403
402
395
401
407
411
426
419
415
418
411
408
409
434
447
440
425
441
458
458
487
509
528
527
536
559
583
616
634
665
702
724
771
810
849
888
918
945
984
990
989
989
988
988
988
988
988
989
986
986
918
856
773
706
649
596
527
437
325
248
207
185
183
192
204
228
256
276
294
282
281
286
296
308
315
318
320
347
364
332
310
332
339
342
362
386
385
405
423
385
349
343
351
368
374
383
401
403
387
387
383
384
383
379
372
368
373
384
407
407
419
425
408
391
373
387
390
404
423
411
422
425
429
419
415
413
417
422
422
426
419
420
418
410
419
422
428
437
432
432
414
418
433
456
456
457
456
453
452
456
459
444
451
477
474
468
460
453
459
453
436
433
434
442
441
452
463
479
459
449
470
468
458
461
468
491
495
494
499
498
488
495
495
500
494
502
500
503
498
479
495
513
527
539
544
514
502
521
524
524
522
520
533
540
554
542
534
519
511
527
539
541
536
531
528
530
529
528
533
534
527
517
522
524
529
532
533
535
535
535
524
503
500
499
518
534
540
539
541
531
511
493
483
494
492
492
492
494
505
507
500
488
489
477
463
466
467
461
457
460
455
451
448
435
447
464
481
489
451
431
425
421
429
424
421
422
415
414
420
432
441
443
434
429
422
425
426
425
426
426
420
407
395
410
402
393
387
384
388
400
410
402
405
398
416
424
413
400
395
404
408
409
414
417
406
412
428
416
401
401
402
409
409
404
394
404
411
417
420
417
424
426
428
435
448
437
413
412
423
439
432
434
441
437
428
440
447
447
423
415
415
420
423
425
437
435
444
452
454
448
442
451
462
457
445
448
447
453
468
480
461
451
455
463
464
444
435
445
445
445
445
451
466
484
489
487
492
482
473
473
475
474
481
481
483
502
516
493
489
477
469
471
481
493
490
480
486
492
501
501
498
497
501
490
478
475
481
480
485
489
493
496
502
504
509
519
489
480
484
469
451
449
457
464
459
467
485
483
479
472
474
478
474
456
443
441
434
434
423
418
421
433
444
448
450
446
445
433
433
445
449
431
426
442
450
454
441
439
439
439
437
448
472
491
466
426
407
402
399
408
420
429
443
438
426
426
417
414
425
430
452
459
437
420
417
425
436
450
430
430
421
428
432
429
426
433
436
432
419
415
423
428
432
425
422
420
415
424
435
441
455
459
451
433
447
471
490
517
540
560
574
593
620
655
680
677
703
755
808
834
870
912
949
990
989
989
988
987
987
987
987
987
988
988
989
975
898
823
758
758
681
615
529
428
332
262
225
199
183
191
221
254
285
302
310
298
297
303
311
327
329
333
338
345
344
328
332
348
360
360
370
378
367
368
382
386
402
402
381
378
388
379
377
381
384
392
404
423
394
371
360
367
375
387
394
390
387
390
391
390
403
404
403
401
386
388
400
408
403
404
412
414
417
425
429
431
435
434
429
427
431
433
439
445
445
433
441
444
432
432
441
422
423
436
448
451
449
442
443
454
458
462
456
450
447
443
437
432
435
445
464
463
468
470
462
472
475
456
451
451
457
469
486
497
512
519
502
483
477
485
493
499
493
501
507
514
519
529
546
546
532
522
522
518
520
525
536
526
523
515
542
549
543
540
538
544
544
533
523
516
522
524
521
516
520
545
554
535
524
528
532
533
526
523
519
521
522
531
526
526
524
527
542
552
522
497
492
488
484
490
505
502
493
493
499
501
506
508
494
476
469
457
441
441
434
438
449
453
456
456
450
448
458
456
447
440
447
470
488
433
402
413
429
430
424
416
428
436
435
433
433
450
442
435
431
438
445
435
419
403
412
414
408
410
417
413
412
410
406
393
396
407
411
418
426
437
440
438
433
422
416
427
444
445
434
415
408
426
434
434
429
429
433
436
436
437
444
443
433
449
438
433
442
444
433
427
442
452
453
464
454
449
453
468
464
435
432
440
458
458
457
433
429
433
443
471
466
448
442
442
451
462
477
481
472
473
477
475
466
452
445
437
449
468
478
493
476
458
460
458
458
457
462
489
508
508
487
483
489
494
498
488
485
489
490
484
489
516
505
489
476
471
474
487
498
496
494
495
501
501
509
513
515
510
511
512
513
507
504
518
530
531
523
518
512
518
514
511
515
507
501
491
491
480
477
474
474
470
463
463
463
461
451
440
449
458
458
452
446
440
440
443
448
447
447
445
448
443
439
439
443
449
444
424
419
443
458
452
438
448
463
437
449
439
423
417
403
407
426
434
440
445
463
457
465
481
476
458
454
461
459
444
442
442
445
448
438
434
431
431
430
427
444
472
453
439
440
442
441
456
451
443
446
444
432
432
433
436
445
434
437
430
424
430
441
457
474
491
521
521
559
582
589
598
611
642
678
720
758
796
843
870
893
928
958
990
989
988
988
987
987
987
987
986
986
988
988
989
945
862
785
719
661
575
489
387
290
237
194
172
197
236
269
272
275
279
288
301
312
343
366
368
355
341
337
332
342
343
338
338
332
347
382
398
395
398
385
360
360
370
384
374
363
354
357
376
389
405
401
407
411
403
412
419
400
382
377
383
398
398
413
416
400
400
404
398
403
407
410
420
428
424
418
407
412
432
445
443
438
461
463
453
433
420
418
418
422
425
428
448
453
442
454
454
439
444
446
442
460
473
476
476
471
492
491
468
462
454
455
471
481
460
456
458
458
469
487
489
492
492
498
494
498
495
497
499
500
499
489
492
499
514
524
523
517
517
532
518
479
481
494
511
537
539
530
516
508
498
504
504
516
551
567
553
551
551
546
543
544
528
532
543
557
570
557
533
554
547
533
538
553
550
551
548
543
525
523
520
518
514
514
516
519
531
531
525
530
515
501
498
500
512
521
504
501
494
488
490
486
486
496
509
517
498
459
454
465
461
451
451
453
459
467
474
455
451
447
456
467
449
421
414
419
424
445
439
445
442
437
440
442
438
446
455
445
447
441
448
437
437
432
426
419
420
422
423
413
423
435
430
432
440
441
414
402
410
426
425
423
421
410
413
421
416
421
438
430
418
402
419
434
462
477
474
472
446
444
440
435
431
429
430
437
439
439
442
429
430
439
450
453
451
450
456
464
449
450
447
453
453
457
451
440
434
447
454
461
455
448
448
446
445
460
468
460
469
483
492
494
498
496
484
466
455
453
457
477
471
461
461
459
469
467
464
467
479
494
502
508
509
505
483
463
459
469
484
493
497
490
487
487
504
507
498
506
512
531
514
498
493
498
501
503
509
498
492
491
504
505
507
526
530
519
508
501
501
513
511
514
519
520
509
512
520
520
514
513
528
503
503
495
485
475
469
475
484
481
484
483
491
484
480
480
471
452
435
439
446
466
467
459
446
423
422
424
437
448
443
437
437
452
454
454
455
455
447
449
456
454
478
472
452
460
440
410
413
429
445
452
442
445
441
446
450
444
433
436
443
448
460
451
443
450
456
443
423
431
446
455
445
444
443
456
446
421
414
423
430
439
463
467
459
465
470
471
443
427
426
426
426
415
417
433
435
437
443
476
504
524
536
547
572
609
617
631
658
688
718
761
806
845
887
925
962
990
989
989
988
987
987
987
987
987
987
986
987
988
988
989
964
873
778
705
638
566
464
349
263
207
193
192
212
218
242
274
293
301
319
336
332
343
354
379
366
342
320
308
300
312
330
347
363
358
364
379
382
379
375
375
381
383
382
396
404
409
404
400
404
406
406
401
400
404
394
383
388
395
397
396
396
393
398
397
404
408
416
428
425
416
419
425
426
429
427
436
440
437
431
430
430
434
448
479
479
456
440
439
461
447
445
456
462
461
458
446
451
450
452
448
449
458
470
503
501
499
496
476
464
455
460
467
477
483
486
473
469
477
485
497
502
498
488
475
483
501
506
526
519
504
493
494
496
498
510
513
521
537
526
507
507
512
530
535
530
512
501
519
530
533
534
531
531
533
536
544
533
539
553
559
546
537
544
553
563
570
571
563
563
558
558
548
539
545
557
561
539
521
521
529
538
537
530
525
524
540
537
539
546
539
540
540
515
509
509
512
514
500
494
490
486
486
486
485
486
484
475
485
496
494
482
474
475
480
491
483
462
445
427
426
441
458
455
451
457
454
443
443
448
433
433
432
449
440
426
428
431
427
412
422
449
443
448
454
460
451
442
420
405
404
411
420
413
408
415
434
448
438
422
417
417
430
452
439
414
426
453
448
409
422
444
438
421
423
445
444
435
440
445
442
443
446
443
438
435
440
449
448
431
430
431
451
473
473
460
461
457
448
443
430
421
427
436
449
452
452
455
464
470
476
471
466
466
475
482
466
460
465
471
458
458
460
442
438
444
451
461
466
464
460
468
473
471
469
464
462
477
481
478
479
479
487
502
510
507
502
504
495
476
479
479
481
477
486
496
484
475
468
484
497
495
485
496
524
523
525
531
533
528
521
516
515
512
519
527
515
508
509
512
538
530
504
508
520
523
520
526
534
538
531
530
547
536
527
518
477
464
473
463
472
480
479
477
476
470
465
466
476
481
464
464
442
440
445
454
457
453
450
448
446
447
442
435
447
459
460
456
456
456
454
453
461
460
453
444
445
457
452
455
457
457
466
476
465
445
439
438
440
444
461
457
451
450
449
460
471
463
449
445
446
446
435
433
430
435
450
472
470
468
475
473
459
444
433
450
460
460
448
447
465
478
468
452
442
438
433
434
431
433
461
459
454
474
498
514
542
586
586
575
594
594
613
646
666
681
714
772
836
884
935
984
990
989
989
988
988
987
987
987
987
986
987
987
988
989
990
902
791
698
636
636
580
476
341
266
212
188
186
205
239
267
282
286
297
301
299
314
330
336
354
349
358
374
367
354
354
359
362
366
372
382
386
385
392
382
382
389
391
392
394
392
384
379
368
370
367
363
385
434
450
414
397
402
427
424
427
436
424
416
410
410
406
403
399
392
404
413
427
437
434
428
426
421
417
441
462
452
409
412
428
436
444
453
449
440
441
443
450
456
457
457
467
475
470
461
484
474
462
461
482
495
477
465
462
471
467
470
466
471
491
496
488
482
490
499
499
496
502
491
477
473
492
496
491
498
494
498
497
502
523
533
527
517
521
527
533
522
521
531
538
542
538
537
533
540
540
538
528
529
543
543
558
559
561
564
553
554
543
545
546
554
546
551
553
559
554
539
539
551
562
558
553
544
535
533
531
543
535
530
534
534
537
537
547
541
527
512
491
498
504
503
504
499
492
491
499
506
515
508
502
497
512
512
490
484
495
496
492
489
479
480
484
475
472
463
465
467
467
458
453
451
462
457
444
447
463
483
463
454
440
434
436
441
442
450
451
439
446
440
415
415
397
395
413
424
422
425
423
416
427
416
421
441
456
448
443
449
443
431
426
435
446
448
444
435
438
444
448
439
437
437
450
453
423
422
432
426
415
412
422
417
412
430
446
459
461
464
467
467
454
453
455
456
452
450
457
458
455
450
455
448
449
476
475
449
443
451
462
465
458
463
464
465
461
450
433
436
449
468
493
477
462
473
489
493
482
471
465
465
466
466
478
480
481
482
478
468
471
478
479
490
485
489
497
502
500
489
484
487
491
485
489
496
507
512
522
513
508
513
509
509
507
494
464
449
456
464
476
485
503
519
522
533
537
537
530
515
496
500
513
520
527
508
514
534
547
541
526
515
520
525
505
497
502
514
524
527
527
524
527
524
527
512
501
497
495
491
482
484
487
485
465
463
457
463
472
469
468
455
447
447
441
449
446
445
448
460
457
446
447
452
453
443
445
448
460
465
467
458
448
437
421
428
447
465
459
472
479
469
438
438
407
387
386
442
473
472
462
447
429
421
426
436
464
470
469
474
470
448
437
449
455
456
445
443
439
450
448
440
442
449
453
451
465
464
450
445
449
452
445
442
440
443
442
453
462
475
476
494
512
527
558
594
621
624
646
678
708
742
785
785
831
876
917
946
986
990
989
988
988
987
987
986
987
986
986
987
988
988
989
934
852
779
711
630
538
430
316
238
186
186
176
193
213
234
258
286
306
295
291
302
315
335
368
372
357
366
371
365
361
367
372
362
363
378
370
359
353
366
374
373
369
373
383
381
377
402
416
411
401
395
385
380
413
439
442
394
368
373
387
397
405
413
422
431
427
431
426
421
419
419
418
427
439
442
439
444
438
444
449
429
431
438
442
438
437
436
448
453
456
465
456
441
443
456
467
471
460
456
470
470
471
462
465
477
493
495
490
496
497
506
508
498
480
479
481
470
471
471
500
496
466
460
477
500
516
518
510
505
492
490
491
487
496
513
527
537
540
528
529
540
543
542
536
537
541
538
529
540
554
554
567
571
552
538
535
539
544
529
533
533
550
556
560
558
560
550
553
543
549
561
569
574
577
567
552
562
559
547
539
537
536
556
535
507
510
509
520
519
518
518
521
535
548
547
527
514
497
497
509
507
501
513
507
491
482
479
496
501
492
499
498
488
481
479
482
480
504
485
460
423
413
433
460
472
478
484
480
470
455
456
451
446
448
446
437
444
456
465
462
437
428
416
401
393
400
420
428
424
417
417
422
422
428
443
443
436
430
421
419
428
431
427
423
427
429
440
431
427
427
431
438
441
441
445
448
440
440
444
443
443
445
443
450
454
449
452
448
438
440
440
440
454
464
465
437
440
451
453
463
455
454
453
446
422
435
444
457
467
459
460
465
486
458
449
461
467
475
480
470
448
445
457
466
478
478
472
466
450
448
456
455
464
486
497
492
485
471
471
474
474
483
488
482
474
473
468
471
482
488
493
496
496
504
511
503
495
494
491
489
489
484
474
476
492
504
504
502
509
515
515
518
519
523
522
524
519
506
505
513
513
503
503
511
515
520
525
523
520
531
530
519
520
523
525
531
537
536
509
495
503
506
514
534
530
531
534
520
511
502
505
494
465
458
462
474
463
458
461
454
464
452
468
471
461
458
461
462
470
452
452
445
456
452
440
436
441
450
454
454
456
466
461
460
456
448
441
443
449
453
452
469
480
466
456
455
456
460
459
455
455
449
449
454
461
462
464
479
465
446
443
444
443
451
450
441
442
445
452
457
452
445
456
481
488
475
467
458
442
430
430
439
456
464
455
438
429
425
428
452
471
488
501
507
526
538
567
592
614
639
657
681
717
746
771
818
868
902
942
985
985
990
989
989
988
988
987
987
987
987
987
987
988
988
990
946
868
796
726
664
574
460
345
268
211
187
179
198
228
265
265
279
278
278
288
308
312
339
350
353
359
359
358
358
356
355
366
379
385
369
371
375
370
377
392
392
378
382
391
405
413
406
387
375
363
349
364
375
390
406
402
402
413
408
404
393
386
404
421
436
440
417
410
421
444
463
463
446
452
437
437
420
417
420
430
440
436
420
420
426
441
454
456
450
455
471
483
488
466
454
452
455
454
460
473
473
477
466
471
472
472
479
489
489
480
477
468
471
501
493
480
483
488
490
491
483
490
493
487
506
522
521
518
529
535
515
505
512
531
524
508
509
519
526
526
525
531
535
526
533
540
543
541
544
537
537
553
556
555
547
546
556
569
574
570
565
566
562
549
546
546
547
564
577
600
601
571
564
566
572
568
563
559
558
548
547
552
555
556
541
544
536
532
529
523
537
545
564
562
558
558
531
531
538
531
519
511
496
483
481
473
478
492
506
512
508
497
495
493
482
478
459
457
466
479
471
453
455
466
468
452
451
452
435
428
435
434
439
445
443
447
435
423
428
457
459
450
434
432
432
424
426
424
432
441
448
444
435
430
436
436
424
397
397
408
416
418
419
407
406
415
412
426
432
438
442
437
435
442
446
431
440
430
418
417
414
417
425
444
455
455
451
431
433
433
439
443
449
455
462
465
455
447
427
416
415
418
424
429
442
471
505
505
501
468
457
450
445
438
442
464
473
477
471
470
471
469
468
468
479
480
472
463
471
474
486
495
489
481
492
484
476
476
466
466
485
486
480
479
494
494
518
513
489
496
504
495
482
476
481
501
520
511
510
495
485
501
522
514
506
515
520
489
478
495
487
485
499
515
515
515
513
512
507
510
507
503
510
517
517
507
513
524
529
524
524
514
515
527
514
493
489
492
498
505
497
501
516
503
496
513
489
437
418
403
413
425
441
454
454
453
453
451
439
438
431
430
441
447
463
473
460
435
444
443
447
447
455
457
470
470
474
462
457
450
452
448
448
448
449
441
436
445
454
458
460
471
474
465
447
445
454
467
467
459
458
455
442
438
449
449
465
446
435
437
440
451
450
434
441
449
449
447
453
459
460
453
443
445
458
458
443
426
432
466
483
489
500
492
500
516
529
541
563
586
603
609
608
627
676
737
793
823
851
892
928
939
965
990
989
989
988
988
987
987
987
988
988
989
990
990
926
866
803
764
716
624
525
429
356
291
215
187
191
218
252
268
281
285
291
301
299
302
316
320
335
359
371
395
420
420
428
398
362
355
355
366
371
376
374
379
385
387
385
387
399
400
397
385
368
386
413
412
422
434
431
432
426
432
428
417
407
408
414
417
428
431
430
412
398
411
424
433
444
454
454
453
455
447
435
447
452
445
439
454
456
459
464
465
471
471
470
475
466
457
456
454
449
463
469
465
468
487
486
466
462
476
489
497
487
488
498
500
494
490
493
499
500
494
481
481
496
516
523
535
530
506
506
501
499
506
529
538
542
552
541
508
499
510
520
524
530
545
552
547
541
544
552
545
552
556
560
560
572
592
591
576
572
573
564
567
547
520
538
560
566
572
578
577
574
565
562
563
577
585
583
580
577
575
568
568
576
562
557
563
557
552
554
558
551
554
547
537
534
539
530
526
514
516
531
543
539
531
522
498
478
482
501
524
546
546
520
478
474
497
516
495
479
474
484
490
461
441
435
440
443
439
432
425
428
428
425
444
455
450
442
437
429
425
432
444
451
440
422
418
429
436
444
427
409
419
432
410
413
419
418
419
411
405
407
414
424
431
411
410
421
435
433
432
431
431
420
411
401
404
419
426
429
426
427
437
446
450
443
432
432
453
463
461
458
464
457
439
440
454
458
453
451
440
445
445
446
436
438
446
448
450
447
437
428
432
440
450
464
470
473
476
470
460
457
474
485
473
466
464
452
450
449
467
471
479
500
500
488
469
453
455
454
460
477
495
502
500
504
490
475
480
499
495
497
496
507
519
522
528
515
505
505
503
503
503
508
508
514
519
514
487
481
485
478
491
499
507
515
504
509
522
534
540
538
533
524
520
526
529
526
515
518
528
533
533
534
545
536
493
475
484
489
491
496
494
493
491
474
434
418
425
456
476
483
473
462
461
463
463
452
449
434
432
434
428
432
434
455
473
464
459
451
455
456
454
455
462
473
477
465
457
454
450
456
461
458
465
465
458
460
467
468
459
476
476
477
463
447
442
452
453
465
457
444
437
437
439
449
439
435
464
475
478
481
494
476
447
452
467
471
449
443
445
452
452
453
448
446
457
466
467
466
461
457
464
473
482
494
515
534
546
555
577
622
666
681
693
709
742
792
839
882
908
938
973
990
990
990
989
988
988
988
987
988
988
989
987
922
855
795
733
682
635
564
474
370
285
231
206
212
220
215
245
273
273
301
313
306
297
298
315
336
370
368
379
400
404
396
374
361
360
370
385
406
419
399
377
380
391
406
421
410
405
398
398
396
398
411
420
415
408
417
418
419
432
440
436
422
410
408
413
423
426
431
438
430
430
429
430
436
448
460
466
460
471
464
453
442
440
439
439
458
458
456
450
455
463
464
463
456
457
467
469
456
463
473
478
473
458
453
476
488
485
487
487
474
461
468
485
506
505
517
527
514
488
497
517
525
514
503
490
495
507
511
529
521
526
516
516
523
517
518
528
539
539
531
533
534
551
545
535
531
538
557
554
551
556
552
553
559
568
565
561
566
568
563
570
560
573
594
590
571
569
572
580
593
567
548
563
569
567
566
570
564
559
550
553
557
563
562
561
561
543
532
534
549
540
535
532
528
521
522
521
522
522
524
513
508
508
526
530
537
538
520
503
488
484
479
493
510
523
516
497
494
481
466
455
454
461
455
446
453
463
469
469
465
459
445
454
456
449
440
436
443
456
460
461
450
447
449
456
454
439
430
439
454
431
426
425
422
427
428
426
428
437
436
430
413
410
409
419
426
426
427
435
438
433
434
428
428
437
434
431
429
437
441
437
453
470
449
437
446
439
426
426
430
433
432
440
440
448
459
479
472
437
441
466
457
447
446
455
461
466
467
475
483
484
489
486
472
471
480
480
465
465
464
482
488
465
454
464
477
495
485
473
477
474
472
473
492
495
492
511
531
509
486
482
490
494
486
493
495
482
471
477
479
486
498
506
514
509
507
515
516
511
508
512
511
506
499
505
508
514
523
519
526
534
533
521
521
522
531
534
532
532
527
531
526
504
485
490
516
500
503
523
522
527
536
533
523
510
490
490
505
507
500
495
481
470
468
451
448
451
446
446
440
436
450
477
490
478
466
470
470
460
461
454
459
469
467
459
448
454
460
464
463
457
458
455
450
450
461
457
474
500
510
479
448
435
429
426
407
417
444
459
462
451
450
456
460
456
449
445
449
445
441
440
443
441
457
469
469
457
448
448
449
453
461
471
459
448
451
460
461
440
425
422
423
422
432
445
470
489
496
520
550
541
535
554
589
610
642
671
671
671
686
718
766
822
872
912
962
990
989
989
989
988
988
987
987
987
987
987
987
988
989
975
906
833
775
716
650
563
464
353
255
195
184
212
238
230
246
270
292
301
308
320
339
357
363
364
367
357
354
348
346
365
389
389
388
377
370
369
366
366
373
377
375
384
389
388
394
393
390
389
400
414
401
399
404
411
408
403
404
404
406
431
442
416
407
414
426
423
418
418
427
434
431
429
422
419
420
423
425
431
452
465
459
436
422
417
432
459
471
469
471
474
495
501
489
455
449
474
483
469
462
465
465
479
470
459
455
467
477
473
478
479
478
477
479
478
478
481
484
486
473
466
474
485
482
486
503
498
491
491
486
493
509
542
554
545
536
533
530
530
533
518
512
512
527
545
527
523
537
526
519
534
532
536
545
540
533
535
539
539
559
581
574
571
579
581
571
555
551
551
533
506
512
529
551
565
567
554
543
542
547
552
546
550
554
548
522
501
500
514
537
525
524
526
521
515
505
499
503
507
506
509
501
495
485
477
470
460
462
459
463
469
473
478
478
471
468
463
462
462
466
453
427
403
430
456
470
466
457
453
455
453
440
442
448
446
446
449
450
469
468
445
416
400
408
420
427
430
427
427
433
444
428
406
416
436
446
430
420
418
418
432
416
432
432
433
440
437
432
435
437
427
416
399
405
417
432
434
425
422
422
436
448
446
425
419
427
440
442
442
443
454
468
456
450
450
470
466
448
437
446
451
437
443
445
444
451
464
463
463
458
458
465
468
454
459
456
454
457
449
462
494
501
474
459
449
456
470
473
476
475
477
485
492
475
478
472
492
483
483
483
504
495
474
458
475
480
485
503
498
487
480
502
518
504
485
486
489
491
490
491
492
494
490
483
488
482
490
497
501
501
497
502
507
507
509
517
519
531
535
531
534
538
511
494
496
497
508
509
501
496
498
505
511
516
490
474
481
490
490
470
463
458
463
466
453
444
422
428
453
460
464
461
455
453
444
420
428
438
458
457
455
450
445
435
437
449
452
452
452
450
447
445
446
453
451
450
427
429
449
468
475
448
408
400
408
429
449
441
445
456
449
436
421
424
438
445
433
445
453
453
449
434
409
402
427
452
452
443
444
447
450
445
443
439
429
433
428
439
444
447
450
447
460
450
462
466
478
483
483
495
509
521
532
557
591
620
644
661
693
728
753
791
850
890
921
965
990
989
989
988
988
987
987
987
986
986
987
987
987
988
989
990
904
818
736
647
541
454
353
255
207
186
195
221
231
241
253
256
255
273
300
324
343
346
343
344
350
366
363
355
341
347
353
348
349
370
368
359
352
356
368
374
361
355
370
377
380
372
360
356
370
380
383
378
371
377
391
411
411
394
395
412
416
412
408
405
413
421
414
427
427
432
429
424
416
415
419
431
460
464
443
424
414
436
443
418
412
414
414
421
441
443
445
447
445
433
425
438
450
456
448
447
451
461
469
461
445
439
448
461
464
458
457
454
447
448
457
470
475
474
474
481
483
487
492
481
478
476
479
494
500
495
510
515
509
508
510
506
508
512
508
503
496
500
512
504
514
559
559
571
576
560
524
520
537
554
555
539
528
530
545
532
507
505
515
542
560
560
556
564
567
560
548
537
532
537
537
539
539
541
552
558
543
533
521
520
516
510
509
534
539
533
521
502
506
514
509
503
485
472
477
484
481
484
484
476
465
458
464
469
474
478
494
494
472
451
450
451
441
438
427
431
443
436
434
441
445
443
447
446
438
441
443
443
439
431
416
415
415
424
440
438
429
429
432
444
437
443
432
415
416
412
409
413
411
417
427
426
430
408
391
387
407
431
429
426
437
436
436
433
435
441
443
440
438
434
432
431
433
442
444
455
465
437
437
450
446
435
432
427
431
450
445
436
440
448
453
453
443
445
438
438
446
443
446
454
463
467
457
465
468
438
412
455
457
442
448
458
427
423
432
449
469
464
463
479
481
475
475
470
462
471
483
491
497
492
495
488
487
489
490
490
488
477
462
466
476
485
495
495
495
506
507
497
489
478
477
481
481
486
480
477
497
521
520
509
516
527
530
522
509
498
511
521
522
526
519
512
496
478
472
474
485
508
529
530
517
488
477
502
533
523
496
487
489
491
476
465
464
471
489
468
455
452
440
427
456
475
477
455
423
411
415
429
443
451
442
444
444
448
445
440
432
419
426
442
439
436
429
428
421
423
440
433
439
459
472
463
456
455
451
449
458
456
449
444
432
435
435
441
449
449
445
446
442
441
438
450
451
439
429
428
423
417
419
441
465
465
466
462
453
457
458
458
459
456
452
454
446
447
440
432
418
411
412
418
429
428
444
452
460
467
472
489
528
563
588
608
620
639
663
722
769
804
848
890
926
960
960
990
989
989
988
988
987
987
987
987
987
987
987
988
989
950
875
824
749
662
563
450
336
262
218
183
182
211
241
259
259
278
291
285
291
305
311
322
336
348
357
350
355
363
364
356
357
354
347
366
374
384
355
344
359
377
386
375
363
358
363
367
376
379
409
428
417
396
391
389
389
395
386
384
386
389
394
408
424
419
415
408
405
416
436
441
424
407
408
409
409
412
415
395
406
428
437
437
432
428
435
440
434
437
440
461
472
473
465
457
463
475
476
466
441
438
446
431
427
427
427
441
462
459
466
468
470
480
475
465
464
464
474
483
473
477
488
507
488
471
483
500
501
488
498
508
514
511
507
510
516
518
506
501
513
527
526
509
496
503
516
506
498
490
520
548
548
548
540
535
553
566
566
572
566
564
562
568
569
562
562
554
553
552
546
555
556
555
550
536
530
536
542
560
563
544
532
525
524
519
513
514
526
538
528
518
506
511
513
511
511
512
509
505
509
513
480
475
483
487
486
476
477
470
457
457
480
479
468
456
449
442
439
441
447
453
448
444
449
449
447
445
446
449
455
457
452
441
446
436
420
415
419
425
423
425
421
414
401
415
423
428
425
424
426
423
428
431
438
440
440
430
421
426
429
431
431
421
427
431
438
460
437
416
421
422
415
417
416
415
425
436
438
450
447
436
447
439
419
407
407
405
411
427
454
459
457
452
454
440
445
467
449
447
471
461
455
461
453
452
455
463
463
448
436
436
440
443
456
459
458
458
448
451
455
452
450
450
444
447
462
478
464
464
468
464
452
444
448
456
482
495
491
503
500
494
499
508
502
488
488
480
482
483
485
491
492
494
496
500
487
489
506
505
495
496
502
506
509
509
510
505
491
481
486
501
522
525
510
509
509
513
518
518
532
529
515
513
522
532
528
531
534
519
518
502
496
502
497
485
492
496
511
506
486
483
492
491
484
470
461
466
473
472
464
462
454
449
441
431
431
437
440
442
436
438
445
431
426
449
462
475
475
472
461
457
461
455
439
434
434
448
455
448
439
454
462
472
453
442
449
438
432
457
456
444
454
456
457
460
457
453
462
464
451
447
444
443
439
444
444
447
454
460
456
446
433
441
450
459
465
464
460
460
462
464
458
457
475
474
449
419
404
399
424
451
471
474
477
488
504
524
548
563
572
582
610
650
692
729
774
815
844
881
925
963
990
989
989
988
988
987
987
987
986
986
986
987
988
989
989
982
897
818
750
687
598
499
385
293
229
189
187
209
240
263
289
314
310
302
311
308
314
318
330
348
347
344
350
358
358
363
350
348
355
355
364
389
395
413
413
397
400
396
390
395
397
396
381
369
375
387
375
383
397
412
413
412
411
404
397
401
421
412
408
405
413
420
419
422
426
428
416
417
423
439
438
443
451
434
437
441
442
439
452
475
475
459
448
451
451
461
472
457
462
471
474
471
469
462
461
461
458
470
468
471
482
478
480
481
484
485
485
479
482
485
498
515
507
484
484
477
495
505
502
498
503
505
512
522
512
508
517
515
513
527
528
526
523
522
521
509
511
526
537
535
539
542
537
539
547
553
553
553
537
528
516
529
548
563
569
567
571
573
576
566
561
562
564
555
554
555
556
558
552
561
567
570
539
529
529
538
542
542
534
542
542
556
570
572
556
541
532
534
522
509
526
533
540
530
526
510
514
547
548
524
504
494
494
485
485
490
504
488
484
486
473
475
476
477
477
477
477
470
469
478
480
464
459
459
466
462
458
460
465
461
446
453
439
420
415
427
433
439
442
438
443
432
431
436
444
434
418
443
440
417
410
410
405
406
402
404
415
420
436
468
483
468
454
444
444
436
421
418
428
435
439
434
458
488
475
461
461
439
433
448
466
483
478
473
478
464
453
445
445
457
467
466
472
464
464
467
465
466
468
478
486
483
466
467
484
482
475
468
468
476
480
474
475
483
471
478
489
481
478
476
478
478
484
477
478
486
482
482
494
502
522
521
485
487
499
518
518
503
493
494
489
489
516
512
506
499
486
478
486
507
533
553
545
528
528
520
520
506
496
488
487
479
485
504
513
532
538
530
520
516
529
547
543
520
526
535
552
577
563
532
521
534
538
542
542
533
520
518
524
530
531
530
520
508
499
506
514
513
522
512
493
482
486
491
490
475
467
466
469
465
463
464
464
470
471
464
482
492
482
473
470
470
452
457
471
463
461
478
470
453
448
453
476
489
473
466
466
466
466
459
450
451
462
468
468
471
465
465
463
470
470
460
460
463
471
477
488
487
475
441
436
456
467
463
466
474
474
471
476
475
458
455
463
465
465
466
468
472
460
455
461
458
449
455
456
453
458
460
468
475
487
500
490
507
541
553
568
603
617
641
673
702
744
788
822
858
887
933
966
990
989
989
988
987
987
987
987
986
986
986
987
988
989
985
929
862
778
692
597
492
388
292
217
163
163
177
232
262
291
316
329
329
316
319
333
349
363
379
381
385
393
397
386
387
388
373
372
380
408
417
397
384
388
385
385
388
387
386
391
390
393
403
410
420
413
413
406
396
398
411
429
433
427
419
415
415
415
412
418
421
425
429
420
421
433
430
429
438
435
439
447
454
451
450
464
468
462
468
460
448
453
462
457
453
457
470
478
485
472
457
469
488
482
485
485
501
503
496
492
499
512
489
486
497
504
498
482
479
479
481
481
495
505
503
488
494
517
538
539
526
513
532
540
541
541
533
542
540
530
531
532
543
561
568
534
516
524
543
557
557
549
552
568
571
559
568
556
552
557
542
545
566
581
579
563
555
554
556
566
569
561
551
555
563
562
566
570
567
568
565
568
568
564
570
575
568
571
572
560
556
551
544
543
542
542
542
536
532
542
544
528
527
533
543
545
523
508
512
515
499
501
510
506
490
479
476
479
484
495
511
493
471
461
460
460
467
465
455
454
458
452
469
483
483
477
474
463
466
466
471
470
450
443
433
427
418
418
436
445
454
453
452
459
468
468
448
406
388
383
391
417
429
447
457
459
455
440
432
441
452
442
430
420
429
451
458
449
443
438
441
453
449
450
452
452
460
459
453
447
455
460
461
466
461
465
475
470
457
440
431
441
458
452
469
483
487
489
473
458
454
456
451
449
438
438
440
476
485
473
475
475
481
478
471
477
477
478
487
493
490
486
486
490
494
481
480
476
477
487
493
509
512
508
492
494
492
493
490
491
493
505
516
516
529
521
512
508
496
497
507
510
503
494
498
510
488
473
487
501
505
508
517
517
517
517
509
519
531
531
525
524
530
547
548
523
521
523
533
538
532
523
518
517
523
533
525
532
529
515
499
496
499
502
501
501
491
494
491
495
490
487
495
486
472
489
499
477
473
455
437
426
431
441
436
437
439
460
461
460
454
454
454
456
465
478
484
469
459
454
449
445
448
452
457
457
446
449
445
447
450
458
463
467
467
480
498
477
452
436
437
438
439
446
444
444
444
437
446
457
475
480
475
465
471
487
490
461
434
418
428
440
451
468
458
455
455
438
428
423
442
457
461
448
445
445
437
427
444
448
457
475
490
501
521
539
564
600
615
653
685
705
719
738
778
837
874
920
970
990
990
989
989
988
988
987
987
986
987
987
987
989
989
955
881
809
739
669
578
458
329
266
227
195
200
210
224
242
250
275
287
291
299
298
305
305
325
339
339
345
350
363
373
372
376
376
380
387
395
353
328
352
390
392
393
399
385
376
379
385
378
384
385
375
387
387
396
400
414
412
390
396
407
413
406
398
402
415
417
414
422
428
424
414
407
402
405
406
423
437
438
451
458
444
431
429
438
447
453
453
465
462
454
463
459
446
462
488
469
459
442
443
450
457
456
457
451
447
448
446
451
461
480
487
483
483
482
493
501
497
510
516
497
478
461
465
475
482
494
521
518
513
509
510
509
512
522
526
508
502
531
545
543
559
544
544
519
505
510
522
530
543
554
550
547
550
546
542
541
547
566
575
567
561
560
557
562
563
561
545
556
568
573
557
548
553
560
563
564
559
566
574
564
560
554
547
542
537
528
531
543
539
524
510
499
497
502
516
532
538
532
513
496
492
501
501
498
488
478
487
493
480
464
464
462
472
463
453
452
464
465
465
465
457
452
457
462
459
454
448
448
447
445
443
438
438
439
435
424
422
430
429
439
451
445
441
433
451
437
404
401
411
422
422
426
406
409
427
416
395
389
384
391
401
398
396
396
399
405
413
409
414
408
410
417
417
412
418
421
419
417
425
434
422
411
418
422
420
410
413
424
430
431
426
415
415
421
445
451
445
445
444
447
440
429
430
435
450
472
449
446
454
460
455
444
444
445
441
445
449
451
466
480
478
474
474
465
461
460
469
489
474
440
444
467
462
445
443
454
467
474
472
474
484
490
481
476
475
471
462
464
465
471
483
508
502
479
485
487
484
489
493
486
480
489
483
488
486
480
489
497
483
477
483
481
485
491
491
493
496
504
502
500
503
515
515
517
516
519
527
527
511
485
468
471
482
497
495
478
486
489
475
449
427
434
433
422
435
454
464
467
466
461
463
461
461
433
422
406
406
416
429
443
442
448
450
452
438
435
427
407
429
461
456
447
443
438
442
437
443
449
451
462
442
425
429
435
429
437
438
439
436
426
421
425
441
445
441
435
433
421
418
428
420
412
416
434
443
456
453
463
465
457
441
425
425
434
440
434
417
406
412
426
436
430
431
459
470
452
437
434
452
448
455
468
484
496
509
531
541
550
581
619
652
675
675
699
735
772
795
842
886
928
960
981
990
989
989
989
988
988
988
988
988
989
990
948
891
840
776
730
678
592
511
409
301
234
208
190
191
200
214
234
257
260
265
284
302
310
314
327
335
349
360
359
358
385
400
393
390
390
398
367
335
335
335
361
380
389
375
361
379
391
402
395
387
390
386
384
380
393
391
393
409
416
413
413
419
402
398
392
399
404
420
438
438
450
453
447
430
416
425
430
417
412
420
424
423
432
428
438
440
440
436
456
456
455
458
466
467
465
465
450
433
447
453
452
454
462
481
488
505
521
510
523
491
466
457
453
471
467
471
481
504
523
516
515
522
506
493
501
512
505
485
484
484
490
509
507
507
531
528
528
520
518
515
516
519
521
524
528
544
547
552
560
576
576
553
524
518
531
537
547
544
549
549
563
567
562
567
559
559
571
570
577
575
588
582
577
569
566
577
570
555
540
536
541
550
560
559
555
561
560
544
538
528
524
526
528
543
544
539
530
525
517
507
496
498
505
518
505
496
492
472
469
476
482
479
474
442
438
461
466
475
471
471
474
492
491
465
454
459
465
451
433
427
424
424
429
434
424
411
399
395
409
410
416
424
423
422
424
427
430
425
406
406
397
390
399
406
409
414
418
436
418
401
396
425
423
412
405
388
390
404
415
405
421
439
420
401
394
396
392
393
400
410
420
428
428
426
423
415
415
421
413
403
420
433
434
434
420
416
425
448
447
431
423
437
459
441
434
437
439
444
446
446
439
436
446
462
459
448
441
432
432
425
423
435
480
504
472
446
447
466
473
481
484
489
496
510
502
487
476
453
441
441
443
445
440
435
458
499
495
482
480
491
506
514
516
509
506
497
502
511
505
497
490
485
480
492
503
492
483
478
485
514
511
491
486
490
498
488
492
491
494
511
514
526
547
538
497
487
493
496
484
475
475
478
485
496
497
472
457
451
451
451
456
457
455
448
452
460
448
441
440
450
454
440
436
427
416
422
437
459
473
465
459
459
456
449
456
456
449
439
436
436
445
444
435
439
447
442
436
437
450
451
439
419
423
434
442
445
441
439
439
442
450
450
443
433
427
444
447
436
440
445
450
423
421
418
425
454
484
497
492
451
436
423
424
440
447
451
456
455
450
445
449
454
450
443
438
450
466
484
489
489
496
503
522
538
548
566
599
631
659
683
718
759
798
829
866
898
935
966
985
990
989
988
988
987
987
987
987
988
988
988
990
929
862
805
755
695
638
560
464
353
265
220
200
192
202
223
254
267
275
284
290
301
319
340
368
382
385
384
372
362
353
355
373
385
367
375
404
418
395
357
348
374
393
395
393
384
384
402
411
406
401
407
415
420
406
415
428
436
429
429
420
402
393
399
400
414
427
440
447
430
430
421
424
434
441
435
457
461
444
441
449
442
448
459
464
465
455
460
470
470
474
470
467
473
481
494
499
497
483
476
478
484
479
472
474
471
476
477
484
493
496
496
495
504
509
506
497
495
488
492
506
508
497
491
488
502
526
525
527
538
550
538
505
508
538
544
508
500
513
526
538
549
530
522
522
529
540
539
550
550
566
595
584
551
555
566
557
523
517
526
548
566
572
564
555
557
564
586
578
572
571
574
584
584
570
570
574
563
572
572
574
576
577
577
564
556
556
552
550
543
538
542
550
545
542
554
562
549
524
511
500
514
515
515
514
512
514
520
520
508
507
501
496
497
494
488
486
483
469
475
480
512
513
492
459
436
449
467
488
483
488
501
448
429
440
438
442
449
442
442
445
445
448
452
452
454
454
460
462
445
414
407
414
422
424
421
427
429
429
417
413
415
436
440
422
419
440
460
464
464
464
452
459
463
443
445
441
437
436
444
435
430
423
429
439
448
452
455
457
453
454
454
457
463
464
458
455
459
468
469
456
458
467
480
483
484
480
475
480
481
476
473
477
483
488
491
497
488
485
486
485
495
496
517
495
481
494
531
527
527
495
507
502
493
513
508
511
511
511
515
515
504
502
493
511
519
506
499
512
516
502
504
500
507
522
526
516
496
502
502
520
527
519
526
536
541
533
513
506
517
542
550
539
516
511
515
530
537
535
542
547
557
541
520
516
524
527
517
511
521
522
516
514
506
507
522
516
500
484
478
478
478
485
489
486
481
483
470
452
450
458
466
488
475
463
467
470
480
480
480
468
460
459
459
467
471
478
482
483
476
472
477
481
484
484
476
454
450
452
450
453
457
453
450
455
496
494
463
445
445
433
435
442
457
463
471
474
464
457
454
459
479
498
518
517
499
477
475
479
477
465
464
472
457
449
442
461
469
475
468
466
468
476
480
493
515
534
554
571
584
602
620
638
666
708
734
769
804
829
870
913
963
989
989
989
988
988
987
987
987
987
987
986
987
987
987
988
989
960
860
776
695
628
548
454
347
273
220
212
235
255
268
278
303
310
301
301
328
369
369
383
391
393
376
382
385
379
373
375
402
418
427
413
399
395
408
412
404
406
409
397
370
361
391
416
414
413
423
435
454
441
414
406
421
433
436
429
420
423
428
437
446
452
458
455
445
438
435
439
468
469
446
447
455
458
465
458
449
455
455
467
474
465
457
457
475
489
480
468
457
451
456
461
466
475
480
486
481
486
493
487
482
486
498
504
517
493
480
497
497
497
491
489
488
495
510
509
517
519
509
515
523
533
526
512
510
528
533
537
533
532
533
539
536
531
537
544
548
543
543
549
564
571
564
564
570
565
560
566
560
572
575
563
547
548
566
570
584
581
574
585
604
613
607
597
599
596
581
577
577
571
569
586
589
562
547
551
554
561
555
543
543
551
563
564
554
544
554
543
541
550
563
550
525
519
530
527
511
505
505
497
496
505
509
497
497
496
493
489
478
480
486
495
493
489
483
484
484
481
485
472
457
449
462
465
463
478
495
502
481
471
471
453
448
454
451
452
464
482
490
466
455
456
462
447
437
444
455
455
424
437
468
477
464
451
452
430
424
447
447
466
457
461
460
451
448
442
446
470
476
441
455
466
466
470
467
461
469
485
464
453
425
429
459
472
468
475
484
484
484
482
471
477
480
478
473
473
472
480
490
479
479
475
481
495
495
494
490
494
494
496
494
499
499
503
499
490
478
472
476
476
490
502
513
528
528
512
499
495
512
520
508
511
506
513
510
500
512
524
528
526
532
527
530
537
530
519
514
518
518
518
519
518
531
534
548
541
525
513
506
502
503
523
536
542
557
563
552
549
554
553
548
529
526
531
542
546
539
554
554
561
534
543
531
502
520
556
555
536
528
524
519
517
504
511
513
503
497
507
496
484
479
477
487
495
485
483
480
465
469
479
480
471
465
473
475
468
469
472
466
463
468
473
478
469
466
471
466
460
467
472
477
479
485
503
510
502
482
462
462
461
466
464
451
440
444
454
469
477
474
465
472
482
484
472
470
468
477
481
481
475
468
457
453
468
469
472
480
473
473
453
443
461
478
489
484
487
477
486
479
462
454
456
484
500
515
524
538
551
566
591
616
636
662
684
708
752
800
823
867
914
956
990
989
989
988
988
987
987
986
986
986
986
986
987
988
988
990
948
873
795
727
657
565
451
341
259
207
199
199
222
250
260
286
315
311
322
348
357
367
385
385
373
362
366
373
372
378
391
406
410
384
353
348
372
386
397
418
422
422
413
408
401
390
383
382
384
392
398
403
407
409
407
397
395
396
399
409
427
440
453
460
467
450
432
435
448
430
421
439
454
450
445
446
447
446
444
444
451
461
466
464
462
463
485
489
477
479
474
477
485
469
444
443
459
470
476
489
499
499
492
479
471
467
470
474
485
502
514
505
492
499
504
495
494
510
496
478
491
484
481
490
500
516
525
543
553
536
533
533
539
554
549
539
523
519
537
557
556
537
515
517
533
535
531
540
553
557
554
554
558
572
582
582
574
570
589
600
590
585
589
591
586
579
573
574
575
578
582
580
579
591
594
575
558
546
548
555
546
535
541
559
545
535
540
545
539
538
543
543
536
533
540
533
531
535
529
525
519
506
499
495
503
510
495
489
494
495
488
484
474
470
467
497
497
464
435
431
445
445
441
445
457
474
494
484
468
456
453
459
470
457
435
436
451
463
462
447
453
468
451
434
430
436
434
434
440
451
459
458
462
456
442
426
426
441
448
443
441
434
412
421
449
466
459
453
452
435
432
447
446
429
436
440
438
439
440
440
463
463
474
467
471
465
449
449
454
456
464
478
472
468
465
467
477
471
463
459
449
457
467
465
474
471
468
472
471
452
452
452
470
496
514
488
472
476
493
496
480
464
468
486
481
493
503
502
502
514
515
503
492
483
497
508
510
514
518
519
510
505
507
497
490
506
512
523
512
498
504
516
516
512
517
508
509
522
537
535
510
494
501
507
508
516
525
542
551
536
520
520
516
519
539
547
537
533
535
527
521
518
520
543
535
509
509
517
515
516
514
511
513
512
501
499
490
490
496
509
501
501
484
494
498
462
435
435
438
456
465
456
444
445
465
481
490
478
474
469
461
456
451
448
451
454
452
459
465
473
483
479
466
459
452
446
447
448
458
464
475
477
460
450
453
460
458
473
465
454
446
441
442
454
452
456
470
465
471
481
475
475
460
455
473
482
482
471
460
446
438
440
439
435
443
448
442
447
436
442
452
439
433
438
455
478
493
499
501
504
512
512
530
552
580
610
639
670
699
715
746
787
830
870
941
990
990
989
989
988
988
987
987
986
986
986
986
987
987
989
990
917
839
761
700
619
518
405
298
237
203
201
226
255
274
285
296
303
315
318
325
347
371
371
363
356
357
349
345
361
368
368
372
378
379
378
385
389
390
391
383
384
388
386
391
396
423
430
389
366
362
368
390
402
394
385
396
406
402
402
396
396
416
432
437
428
408
409
413
412
412
422
426
444
449
434
423
437
456
456
448
432
417
419
423
429
439
449
454
467
469
465
467
470
471
480
476
466
456
463
473
460
444
458
462
466
476
492
482
479
472
475
482
481
484
490
496
500
508
512
513
513
506
503
504
497
511
523
514
521
526
520
513
520
531
528
514
498
503
516
521
525
539
564
558
542
532
516
513
527
543
543
559
559
539
549
559
553
551
566
586
604
583
559
560
572
576
567
561
563
570
562
550
565
561
561
557
551
553
554
543
535
530
531
526
516
517
515
502
525
549
557
544
532
511
499
496
496
513
535
550
551
514
490
486
478
475
478
485
486
479
479
472
476
475
482
485
478
467
459
447
431
435
442
452
463
466
459
449
443
444
443
435
429
446
463
451
437
428
432
438
438
442
446
439
432
425
429
432
412
421
428
427
417
424
429
431
435
434
415
414
431
438
439
440
425
414
434
447
452
453
445
429
420
424
430
449
470
454
429
427
439
439
439
427
440
457
452
438
419
440
459
466
454
449
444
453
447
442
446
455
455
462
464
467
452
437
434
441
453
460
463
466
465
458
460
459
468
463
471
492
489
490
491
502
495
494
501
507
490
470
470
458
460
473
489
501
488
488
493
489
482
476
471
476
490
493
495
491
488
486
489
496
507
514
510
512
507
504
494
489
487
500
508
519
511
494
508
531
534
537
523
504
494
508
524
551
551
525
508
498
491
489
508
518
532
517
509
504
510
512
512
503
496
495
488
494
509
494
500
513
498
482
469
454
455
464
451
443
440
441
443
441
459
472
469
447
449
456
459
457
457
456
458
453
456
463
473
466
463
475
488
474
416
399
420
437
429
437
440
447
459
466
463
459
452
446
448
442
444
454
448
443
433
422
422
426
417
437
465
484
487
479
469
470
465
460
474
470
470
464
464
462
452
444
447
451
445
456
468
472
472
469
460
433
424
421
423
458
456
456
478
503
520
538
548
557
569
583
618
657
702
739
774
817
872
924
959
990
989
989
989
988
987
987
987
986
986
986
986
987
988
988
989
956
882
805
711
607
517
399
297
247
206
193
195
205
231
258
263
269
287
316
332
341
343
354
364
357
355
352
350
351
353
369
386
392
392
398
395
399
384
382
384
389
391
392
391
387
393
389
389
392
393
395
396
386
389
397
401
388
385
399
403
400
378
380
400
420
436
447
435
439
418
413
411
413
413
430
441
435
435
432
428
431
434
438
445
460
471
461
464
456
441
438
435
432
438
447
456
475
477
488
494
478
449
439
451
452
463
469
480
473
475
480
473
466
476
493
496
493
481
482
489
497
502
490
492
504
515
514
510
503
504
510
519
529
528
535
528
505
505
488
497
523
544
537
550
563
545
535
536
537
533
541
554
554
547
541
556
575
576
569
582
575
555
550
549
551
558
549
549
547
547
540
543
550
555
538
532
547
575
584
570
564
551
543
542
538
529
527
535
556
537
502
500
519
500
479
476
479
498
503
497
508
503
501
501
502
495
494
502
495
487
480
458
437
431
435
442
454
470
476
463
447
452
457
463
455
445
442
442
442
447
449
447
444
434
431
429
425
434
447
451
439
431
429
432
437
424
411
423
436
427
414
409
416
430
443
439
423
423
403
394
394
397
401
416
448
457
445
435
429
427
434
435
432
435
440
435
439
467
484
459
424
416
423
432
434
443
447
438
440
460
477
460
437
437
451
457
454
460
479
484
456
440
440
448
458
463
461
461
476
472
456
438
428
448
446
441
449
449
460
466
467
464
462
455
466
477
479
485
494
489
485
480
477
484
495
483
469
471
485
498
509
491
487
483
490
499
496
496
498
492
490
492
506
501
496
506
531
522
494
494
504
515
493
486
489
495
512
513
504
506
519
523
533
523
511
502
512
522
526
539
522
512
516
527
519
516
526
519
496
489
497
496
487
491
500
510
520
511
500
489
488
497
471
452
458
456
452
452
450
446
443
446
445
447
447
445
463
470
452
434
429
440
450
446
465
466
462
458
453
443
441
446
448
454
447
445
452
452
453
449
442
442
450
453
446
448
448
454
462
472
469
460
458
447
448
444
448
467
451
429
420
405
415
448
446
452
453
467
467
449
438
440
447
448
456
455
456
461
458
458
453
430
416
419
426
439
441
455
476
495
499
500
515
541
571
591
598
598
608
640
670
701
740
795
862
891
928
966
990
989
989
988
988
987
987
987
987
987
987
987
988
989
986
877
795
719
662
662
587
496
385
286
220
180
182
205
239
257
264
271
280
286
302
324
340
347
343
355
362
363
357
349
348
356
358
361
371
385
382
384
393
387
381
384
391
392
390
399
382
378
383
393
379
371
378
397
416
414
409
402
401
398
393
394
405
407
396
396
403
410
416
414
406
404
397
415
417
429
444
446
443
432
437
452
467
483
475
435
442
458
463
466
461
464
461
451
447
447
461
464
472
469
456
452
448
446
452
459
453
466
482
493
498
488
477
476
481
486
489
484
480
481
477
482
488
490
497
512
528
539
532
521
521
512
497
500
510
521
519
522
532
548
548
529
522
517
513
518
523
538
541
549
547
543
555
557
545
545
559
581
578
569
544
530
530
534
537
544
556
558
574
580
594
597
592
592
586
555
516
498
508
528
549
562
552
538
528
528
528
533
532
530
534
535
537
530
508
504
496
484
499
509
521
527
527
510
501
501
503
495
485
481
470
454
459
459
452
463
479
483
482
468
469
470
476
479
478
467
443
441
443
444
444
442
427
428
439
452
461
462
440
422
425
425
425
431
432
432
432
426
419
417
419
423
419
409
403
415
439
437
417
406
402
402
400
402
420
436
441
457
445
435
428
413
416
430
430
430
435
453
448
440
423
408
416
424
428
431
435
443
442
432
431
436
442
444
457
463
445
435
447
456
444
430
437
447
445
443
444
448
446
436
434
439
449
464
472
467
467
470
471
470
450
442
451
451
467
475
479
490
493
476
480
499
499
500
488
488
479
489
485
473
475
478
489
494
493
498
501
494
497
490
484
493
489
492
489
495
504
510
511
508
507
496
494
495
488
488
491
488
490
505
519
520
500
489
498
521
532
518
505
504
507
517
512
524
528
523
520
524
530
514
502
499
503
498
494
499
494
487
487
488
486
486
470
458
449
455
453
447
453
460
462
438
443
444
450
451
443
430
425
425
439
456
473
486
479
479
466
451
445
454
468
466
443
450
447
425
415
419
455
455
451
451
468
477
483
468
451
436
431
433
438
449
443
452
460
460
456
450
444
438
435
439
446
455
442
438
440
450
456
460
471
485
474
448
445
449
459
461
461
457
461
447
436
444
433
445
459
458
448
439
436
470
487
489
507
523
552
576
597
611
631
667
700
728
761
809
866
926
965
990
990
989
989
988
988
988
987
987
987
987
987
988
989
990
962
882
798
738
680
588
496
396
297
228
169
164
192
223
242
252
271
285
297
301
309
309
312
321
340
357
359
358
361
359
373
366
374
386
387
378
382
390
393
389
381
385
384
388
386
393
401
397
392
402
418
407
404
403
395
392
395
403
414
416
411
407
401
400
397
406
419
439
453
466
458
427
430
436
449
450
445
440
442
442
446
446
450
443
453
472
476
467
465
469
467
461
445
452
455
447
436
448
452
459
459
455
459
464
466
468
474
479
497
496
483
483
496
496
475
479
483
500
497
498
496
518
526
520
520
520
516
518
521
518
524
526
522
523
520
525
530
530
528
524
522
530
547
568
544
559
570
545
538
540
537
546
550
551
569
578
578
575
576
577
573
582
592
588
575
576
575
577
579
578
584
584
586
578
576
571
570
565
555
562
569
567
565
558
558
550
548
549
544
539
532
529
539
546
534
529
541
544
529
518
511
511
524
513
490
483
477
477
477
484
494
492
486
502
493
480
469
465
488
506
472
430
420
447
472
464
454
448
447
454
448
444
447
446
442
446
451
437
438
443
426
416
422
419
418
414
403
400
402
432
442
430
436
436
427
423
424
426
417
422
418
418
405
402
411
426
420
406
413
413
410
410
417
439
458
448
437
438
430
429
433
432
416
415
420
423
422
424
432
433
435
435
435
443
442
432
418
420
428
439
453
476
480
467
463
475
486
474
457
454
459
449
440
452
463
460
452
461
475
464
460
469
465
480
509
505
512
500
466
463
472
479
496
492
482
478
464
470
479
486
484
478
480
485
483
478
480
481
510
518
501
501
504
520
520
504
493
482
492
491
495
494
499
498
501
505
507
511
504
503
499
504
505
503
509
518
526
514
512
515
520
520
526
514
498
490
488
492
496
486
483
478
479
477
482
484
484
472
472
489
469
456
447
438
435
443
449
448
458
451
453
468
463
459
457
454
460
457
446
473
488
481
471
459
446
447
443
442
454
454
448
443
454
460
467
471
474
471
446
451
464
464
452
440
438
430
428
438
445
446
442
446
457
465
468
454
443
445
441
438
450
454
456
456
450
446
443
440
451
444
446
446
454
457
464
469
445
438
450
456
452
462
459
462
466
469
471
474
502
531
557
571
581
600
622
641
670
696
731
770
799
841
883
935
950
955
990
989
989
988
988
988
988
988
988
988
989
972
914
855
780
731
690
635
538
431
326
258
233
228
247
247
242
238
256
280
292
291
303
314
325
324
334
350
365
369
366
363
369
379
382
386
380
376
381
390
388
383
387
385
381
381
376
387
403
425
420
405
401
407
412
420
426
418
416
421
419
419
418
426
419
420
425
428
436
461
463
437
420
422
429
458
467
444
435
437
440
434
435
449
465
461
446
451
456
455
444
456
470
475
471
463
465
472
467
472
474
465
453
472
490
490
481
473
477
475
491
509
508
498
477
475
480
482
469
475
505
539
549
550
551
515
490
483
501
508
499
498
503
507
525
525
537
545
556
548
540
541
543
532
525
536
544
546
546
546
547
564
574
567
561
559
561
564
560
550
559
583
602
601
602
613
615
613
617
610
564
547
547
555
573
574
577
579
581
586
573
565
557
553
554
556
555
548
540
540
554
548
554
549
530
530
534
542
550
549
540
534
525
517
513
508
509
508
505
499
499
500
493
492
473
460
474
490
476
454
447
447
449
475
483
483
475
456
460
479
461
438
441
457
459
443
426
420
420
427
430
424
416
418
414
413
422
428
431
430
436
414
407
404
398
393
396
409
418
428
444
450
444
430
425
432
432
427
425
415
418
426
439
442
443
432
419
414
419
429
430
434
433
434
434
434
438
423
419
430
423
420
428
435
439
441
440
438
454
459
451
438
428
439
443
450
453
459
463
451
435
444
451
460
473
473
479
472
461
469
468
454
440
446
455
467
476
491
492
483
481
469
463
458
465
475
478
472
459
460
452
464
484
493
495
495
495
494
484
481
487
488
504
527
543
531
509
495
496
500
503
522
526
519
514
509
506
504
510
511
512
500
501
506
521
521
525
528
522
511
515
520
524
508
502
504
505
504
500
507
530
513
484
482
461
461
469
458
451
443
456
474
478
469
448
448
440
441
440
442
449
457
465
456
447
460
458
451
451
455
462
470
450
430
417
422
440
466
464
436
413
415
428
434
447
449
455
449
430
433
444
446
450
462
458
457
455
462
453
457
451
448
453
452
460
458
448
446
446
449
446
437
439
448
437
437
437
444
458
465
465
460
460
455
442
460
463
464
467
466
460
455
461
474
483
483
499
519
543
558
562
586
626
633
636
636
666
698
742
792
833
869
913
958
990
990
989
989
988
988
988
988
988
987
988
988
990
947
884
822
763
707
651
563
467
374
286
228
210
212
219
228
251
262
269
268
284
296
313
326
341
346
341
357
378
393
387
376
368
368
373
378
385
390
399
399
407
403
398
397
393
386
389
402
409
416
417
406
406
421
426
410
408
409
411
416
414
413
403
406
415
423
435
435
427
427
416
420
411
421
435
436
430
431
443
451
454
454
457
461
464
455
453
469
467
469
469
468
462
456
447
446
455
453
455
464
477
472
483
493
484
471
466
489
507
511
499
489
476
476
482
491
500
499
510
515
504
489
490
497
507
510
504
495
501
501
505
509
524
512
507
515
530
533
532
532
528
528
529
532
528
538
547
556
574
561
546
511
513
521
531
552
565
560
561
561
566
574
578
560
551
554
550
556
559
566
568
564
561
567
575
580
582
575
555
546
542
556
562
557
557
546
549
551
537
537
532
542
547
521
509
512
513
511
512
511
517
527
528
519
508
515
526
530
518
474
457
465
472
477
476
487
494
486
477
477
453
456
466
453
448
446
457
458
442
432
436
450
454
451
443
434
427
432
448
448
443
437
427
420
424
430
450
452
435
435
411
410
414
407
400
398
418
434
429
433
425
424
436
425
412
414
413
423
430
443
444
432
421
432
441
420
418
418
428
427
420
427
428
424
413
418
445
473
468
447
448
445
457
464
467
461
464
461
448
442
444
450
452
451
447
456
458
459
469
469
480
489
484
472
448
438
440
448
451
458
466
455
456
464
481
487
494
473
478
489
484
483
481
481
484
492
490
488
497
497
502
491
477
472
470
476
502
509
512
519
519
512
499
479
476
482
491
487
486
489
497
497
492
506
526
532
524
524
520
514
500
505
522
531
524
518
520
508
505
515
532
536
519
509
505
525
498
480
493
513
513
503
485
475
471
477
497
486
458
458
455
459
452
434
436
452
476
466
434
439
452
458
452
452
458
449
444
447
446
455
447
439
435
427
424
441
451
439
443
443
460
465
454
443
447
462
473
456
462
451
430
424
423
420
422
433
436
427
418
437
448
464
477
474
463
458
462
464
475
470
466
473
480
438
418
427
450
465
460
457
456
452
440
442
434
433
432
431
441
445
455
462
479
498
520
537
564
569
559
559
569
585
616
657
682
711
751
791
833
882
926
957
990
989
989
988
988
987
987
987
987
987
987
987
988
989
990
919
853
853
780
690
606
521
418
310
238
214
209
194
200
229
254
280
304
319
325
336
347
348
350
351
354
341
330
337
352
366
370
378
375
382
385
387
388
382
375
373
373
373
383
391
395
390
381
376
379
389
397
408
377
374
405
412
410
403
397
403
411
411
411
420
416
413
406
400
406
411
417
428
436
426
427
429
433
429
428
423
426
430
426
427
430
449
458
454
449
450
429
429
415
417
423
435
443
452
452
444
467
505
511
500
483
471
468
471
468
463
461
468
480
483
477
482
486
482
481
490
505
509
511
504
500
492
493
501
511
487
470
486
499
505
513
518
518
526
528
522
524
529
534
537
539
536
519
523
536
559
558
558
547
543
547
547
553
558
555
551
547
551
553
547
554
558
555
549
555
558
554
552
558
563
563
556
546
546
544
533
519
519
513
505
517
517
519
513
489
491
506
542
571
571
558
533
503
485
473
470
479
478
470
466
464
472
487
499
479
447
454
468
472
475
474
468
463
457
458
459
447
434
439
446
446
441
432
431
434
435
440
440
436
447
461
450
449
438
420
411
411
411
417
428
433
434
447
444
441
435
420
413
406
413
420
419
416
433
440
436
432
426
409
401
418
432
442
448
435
438
451
451
451
432
404
403
412
403
419
443
467
465
474
468
442
449
447
451
438
434
432
441
456
458
450
454
457
443
440
444
443
443
437
426
433
446
451
473
454
462
466
469
474
479
481
481
479
477
480
466
468
468
470
486
486
481
483
495
487
481
474
474
479
479
479
489
490
487
479
490
490
490
487
480
481
488
497
514
526
518
507
510
519
519
526
512
499
490
483
508
531
531
531
532
523
504
503
516
530
520
499
502
510
504
502
511
538
543
527
506
504
504
509
513
507
509
509
488
479
487
482
480
500
511
499
486
470
467
470
470
474
463
428
435
452
454
455
454
446
442
436
442
455
456
455
460
460
454
463
454
456
456
452
456
452
443
439
445
449
448
454
457
453
445
445
446
451
455
458
461
459
489
486
450
437
441
439
435
446
456
465
465
460
466
466
467
460
449
448
447
447
439
441
449
462
461
451
447
456
465
470
473
464
458
445
439
443
448
457
464
464
440
423
422
443
465
492
518
540
557
580
606
612
624
650
680
707
741
792
846
887
923
960
990
989
989
988
988
987
987
986
986
986
986
986
987
987
989
990
938
859
780
699
618
521
429
330
257
205
190
207
238
268
276
289
283
292
347
359
325
313
313
314
312
331
343
355
360
351
338
346
371
380
382
380
380
382
386
389
384
383
394
389
365
380
399
393
386
393
387
388
395
385
379
384
389
397
409
409
403
398
401
408
417
425
421
419
424
418
419
426
453
464
440
417
409
416
426
448
455
451
451
447
434
406
399
416
432
435
438
445
453
455
452
452
452
460
460
454
448
442
450
466
485
494
494
475
465
455
451
459
459
469
477
479
476
459
455
465
478
489
496
514
533
528
519
524
526
520
506
511
506
502
509
507
508
515
515
534
557
545
538
547
545
530
518
511
535
553
559
554
549
554
564
560
551
552
561
574
586
564
538
535
554
572
582
577
575
578
580
576
576
565
552
548
529
503
515
529
531
537
538
538
544
541
524
517
512
510
507
512
516
515
508
499
496
492
489
488
484
489
489
495
504
493
485
466
470
466
470
477
474
480
478
471
469
466
461
462
450
439
444
438
441
449
448
442
451
455
457
450
441
429
421
421
423
437
440
427
403
394
398
425
445
455
446
429
436
444
443
445
444
437
431
425
425
428
413
403
411
419
419
427
435
451
471
471
465
452
432
444
415
427
432
416
422
431
443
430
427
434
442
441
448
456
449
439
417
415
425
448
448
452
458
475
474
470
470
474
467
455
446
442
442
450
448
460
467
461
458
452
456
457
460
458
459
472
478
485
471
460
460
460
459
457
456
474
503
508
500
488
483
485
481
484
487
483
493
524
513
502
505
495
476
490
507
514
512
487
487
496
496
508
507
511
514
510
510
498
508
501
493
498
500
504
518
524
518
524
512
518
513
508
510
513
517
515
508
518
538
519
519
510
488
471
490
513
513
506
520
493
475
475
482
481
493
506
519
517
492
491
465
443
442
439
427
450
471
482
486
471
483
481
470
455
438
429
428
435
444
461
457
450
450
448
451
446
436
429
423
422
432
454
481
483
472
459
453
454
448
455
455
467
467
452
439
448
444
452
458
457
445
445
443
447
458
461
460
463
456
444
446
421
413
431
443
446
449
459
465
455
455
435
439
464
456
437
429
429
435
446
451
460
448
434
428
427
451
463
465
474
484
497
524
557
581
595
608
626
655
700
757
807
837
871
904
936
963
990
989
988
988
987
987
986
986
986
986
986
987
988
989
959
874
785
698
627
560
468
359
267
267
200
169
182
202
232
273
298
306
304
321
342
320
314
331
342
341
352
354
355
356
358
358
366
369
373
379
367
363
368
368
391
381
373
367
365
385
396
396
392
379
373
371
374
389
392
401
397
387
392
400
404
403
401
399
406
419
425
409
408
410
409
413
426
436
448
438
417
411
409
413
422
431
433
438
446
449
450
441
443
454
457
449
446
458
451
457
470
452
439
439
455
473
479
467
458
469
471
454
449
455
469
470
456
458
467
475
480
480
476
481
492
497
509
519
516
506
503
507
510
510
513
522
522
522
530
527
518
508
503
499
494
511
535
546
542
538
554
550
539
539
544
546
544
534
529
530
538
558
571
573
565
567
570
578
574
565
576
593
554
522
532
551
558
547
544
547
549
547
550
554
549
547
547
551
541
534
534
528
515
515
513
499
507
539
531
523
519
522
520
517
495
478
487
509
515
493
465
452
464
465
456
457
472
486
476
466
460
462
446
446
426
431
449
481
491
477
456
445
447
453
443
432
422
417
420
424
438
439
444
449
443
433
427
429
431
443
430
419
426
443
438
409
402
411
422
421
423
417
420
423
420
415
428
438
436
434
426
424
426
432
441
447
450
451
430
396
404
433
425
425
424
448
456
450
460
452
453
441
438
456
464
455
447
451
454
447
425
437
455
453
438
435
441
440
447
451
457
450
448
448
459
463
455
466
469
454
442
431
442
448
467
484
473
456
456
465
475
485
474
470
473
484
495
494
495
497
492
475
474
472
481
497
506
517
503
476
470
485
495
501
510
507
490
486
495
511
526
513
506
512
516
513
509
504
513
528
529
526
501
501
485
481
494
498
492
512
522
531
532
535
519
513
513
520
519
518
521
518
517
512
514
522
522
517
509
507
505
498
489
489
504
512
513
504
489
473
476
471
463
446
436
449
438
443
452
451
462
477
496
481
430
399
411
439
447
440
429
438
443
465
469
458
459
467
468
458
459
461
453
437
439
438
446
454
457
448
440
451
464
474
458
442
439
442
439
434
444
454
452
452
443
445
452
467
458
444
450
444
438
449
459
453
448
444
433
427
445
453
461
460
454
467
470
465
456
454
434
436
439
439
434
435
438
443
448
467
483
491
499
508
530
554
586
610
641
677
716
746
783
815
860
908
946
980
990
990
989
988
987
987
986
986
986
987
986
987
988
989
979
896
819
743
667
579
484
389
315
244
216
218
222
237
241
246
260
272
288
300
313
313
330
336
338
335
352
363
360
347
335
349
374
386
380
381
393
400
390
373
371
381
391
402
402
403
404
380
366
376
389
389
397
398
391
390
393
388
386
395
401
412
418
417
422
433
418
395
396
406
412
415
418
421
418
432
455
448
437
422
403
404
429
444
469
464
455
467
460
448
442
443
451
449
446
463
471
478
476
467
468
457
425
426
458
490
483
469
476
481
479
479
484
491
486
475
474
480
486
484
492
503
502
503
506
517
515
506
515
527
528
511
499
506
527
520
513
506
506
520
531
531
537
526
525
531
538
538
540
543
549
546
537
538
548
560
555
554
557
566
569
564
563
581
574
550
549
546
555
561
553
550
545
532
533
556
547
553
558
560
558
546
533
529
531
529
530
532
539
546
544
530
528
527
532
526
504
503
506
505
497
497
490
487
484
499
506
494
483
465
471
503
498
471
462
467
482
463
462
464
464
460
456
454
457
458
458
461
448
439
445
445
449
448
441
442
449
445
427
421
425
434
428
428
431
413
419
424
441
427
416
416
410
411
412
408
413
426
420
429
439
425
417
415
402
413
425
446
471
437
408
406
418
433
428
430
432
434
439
448
428
415
403
407
419
429
442
465
487
475
461
461
443
433
447
443
448
459
466
459
464
469
470
462
455
450
453
451
446
448
449
446
445
462
482
475
468
467
464
457
464
464
464
471
478
496
498
485
476
464
460
457
469
481
475
460
461
470
470
472
469
469
466
477
488
503
513
519
490
467
481
487
477
479
484
485
484
489
499
496
483
492
499
498
498
498
494
491
488
487
493
482
485
500
502
507
515
524
538
551
535
535
524
518
510
507
511
515
522
525
522
526
519
515
518
523
517
512
511
508
505
495
499
496
497
501
502
508
506
480
469
469
478
451
434
436
437
429
438
446
446
443
442
444
444
452
461
455
439
441
459
471
485
486
453
422
412
418
431
443
453
449
438
447
451
460
463
451
442
447
456
452
437
427
436
459
464
447
441
443
446
440
429
434
432
420
420
431
446
464
470
470
469
474
468
469
470
463
447
443
448
458
465
468
470
472
472
474
467
442
424
434
445
450
446
449
459
479
493
495
511
511
524
539
554
592
631
667
699
716
736
781
831
888
938
975
990
989
989
989
988
987
987
987
987
987
986
987
987
988
990
953
878
809
734
652
555
454
347
264
204
183
189
210
238
264
282
290
290
302
326
323
303
314
334
342
355
365
362
354
352
352
356
359
361
366
369
373
372
362
352
367
379
389
405
406
405
409
411
405
401
402
411
425
422
409
412
409
398
398
403
403
411
405
402
417
423
414
393
390
398
407
419
439
455
465
463
459
448
446
451
443
451
457
451
455
458
465
466
460
467
451
427
419
428
438
453
457
466
469
466
459
458
470
496
507
487
474
471
474
480
480
481
489
496
491
490
482
477
479
491
491
498
502
493
499
507
496
511
521
503
499
504
514
517
510
502
518
548
553
548
546
539
537
536
538
543
538
539
545
560
560
572
558
557
566
563
542
548
561
593
608
599
582
572
571
562
572
551
545
565
583
577
560
561
577
585
580
569
541
551
557
545
545
548
540
532
533
533
537
550
550
539
529
524
524
521
505
508
513
522
531
531
515
491
473
460
446
476
499
489
489
482
481
480
479
481
475
461
473
467
468
471
469
469
457
438
432
431
424
432
440
447
454
441
438
445
454
438
432
431
431
437
427
429
440
422
394
395
411
412
419
423
409
402
409
407
402
409
408
430
456
453
441
424
427
433
424
418
418
407
418
434
425
416
407
408
428
436
424
429
434
438
450
455
457
455
442
435
434
430
437
445
451
451
455
452
447
456
461
468
468
462
453
446
434
442
446
438
446
460
458
453
460
471
469
463
465
476
472
448
449
443
451
464
471
476
477
472
473
473
473
469
460
472
482
477
470
479
497
496
483
480
480
477
480
485
484
491
493
479
468
454
460
484
500
495
487
488
500
500
495
509
525
529
526
521
513
479
465
472
491
498
507
511
502
503
503
498
496
499
505
518
532
557
541
528
529
512
498
503
503
502
493
500
512
512
504
501
502
497
502
495
486
489
485
472
458
449
454
463
462
462
452
447
444
448
440
440
453
456
456
455
472
476
470
469
471
463
458
460
459
462
454
453
483
496
461
425
428
442
453
459
459
450
447
450
445
439
451
458
454
439
426
424
439
461
476
474
459
453
450
445
443
449
458
453
451
446
429
423
427
427
438
440
438
446
454
444
442
449
449
451
452
460
464
458
461
457
447
442
448
456
471
488
493
462
441
454
486
521
549
568
592
612
631
661
687
722
769
820
820
879
926
964
987
990
989
989
988
988
988
987
987
987
987
987
988
989
990
928
857
789
727
659
570
478
372
289
214
181
190
215
238
257
267
268
276
289
308
316
323
339
351
358
346
337
344
353
358
360
374
389
389
380
398
415
429
403
381
377
377
388
400
404
415
406
403
411
414
414
384
355
361
381
391
419
430
424
429
423
415
410
410
412
411
394
383
397
420
429
429
434
431
437
442
435
448
450
444
434
435
438
439
466
476
469
445
440
457
468
466
461
464
475
484
469
464
457
455
462
470
475
488
501
485
479
466
466
471
476
484
479
473
491
515
504
514
513
502
506
516
516
512
506
501
501
504
518
519
518
518
521
522
523
525
526
523
532
542
550
547
546
546
560
569
553
556
553
547
561
566
576
583
588
593
590
572
572
596
568
568
528
513
522
556
599
605
596
573
554
562
571
574
577
580
579
577
561
567
560
555
555
541
536
551
561
565
568
559
548
543
546
547
536
531
511
509
505
504
503
514
513
504
494
493
491
486
505
510
499
486
481
478
468
458
461
455
448
461
464
464
471
468
455
446
448
450
450
453
452
453
447
441
439
432
431
433
432
426
432
431
429
425
418
416
419
426
429
