444
441
419
401
420
441
460
463
466
455
441
430
433
453
455
452
448
458
455
438
448
458
448
434
434
443
445
444
442
432
426
431
442
432
442
441
452
471
487
498
517
545
567
592
595
620
651
703
753
781
813
848
885
933
990
990
989
988
988
987
987
986
986
986
986
986
987
988
989
989
936
834
726
646
569
471
371
288
215
172
164
191
217
235
235
235
259
286
307
324
331
341
337
339
341
345
331
328
339
337
345
356
349
359
395
408
391
375
362
355
358
368
371
375
375
378
384
369
365
371
376
376
372
370
373
382
377
379
376
374
388
389
397
409
409
401
385
378
411
433
428
425
423
426
424
418
401
397
394
408
430
434
436
443
445
442
449
441
432
434
438
441
444
452
455
451
437
443
460
472
467
447
445
446
446
443
444
452
451
457
468
470
469
471
476
473
472
479
479
462
475
497
496
477
484
492
497
501
493
481
478
481
487
495
495
506
523
534
529
526
523
533
535
531
518
509
521
529
528
525
514
511
526
532
537
539
534
536
530
542
557
571
573
558
545
539
542
548
562
568
568
567
563
559
554
548
543
535
518
520
537
541
527
505
510
519
527
529
532
522
515
514
514
516
516
513
511
508
501
494
502
502
500
490
491
487
482
477
468
473
476
479
477
467
441
425
443
459
459
459
461
463
479
476
476
455
433
434
445
435
441
444
447
452
451
437
431
454
446
424
407
419
441
452
442
431
425
418
421
428
434
424
419
421
424
420
415
407
408
423
429
444
445
434
420
407
409
418
430
426
410
400
410
425
430
426
424
423
426
428
422
428
432
442
442
448
439
432
413
418
437
453
447
442
449
448
433
430
439
444
449
464
464
444
434
435
437
437
440
444
444
446
442
449
449
465
470
460
448
441
447
449
441
446
463
479
475
465
448
484
489
465
455
453
464
479
470
467
464
471
479
489
479
473
470
476
483
488
491
491
493
497
497
489
493
481
473
478
484
489
490
491
484
489
492
496
494
483
483
485
480
493
512
499
499
495
498
499
498
501
509
514
519
519
520
517
516
514
511
509
511
510
510
518
517
517
509
505
502
500
508
512
491
478
478
483
489
487
486
476
467
469
456
446
443
436
435
449
460
449
442
446
453
455
454
458
451
452
454
452
447
445
443
445
451
449
455
470
461
431
430
434
444
441
427
426
437
443
443
436
427
421
420
421
424
419
425
440
452
464
460
457
430
407
407
383
371
370
384
409
438
447
450
458
455
436
413
408
420
422
429
436
448
456
444
426
415
412
414
413
400
389
385
422
422
459
482
478
477
483
484
482
485
503
510
499
490
528
566
611
648
668
683
696
723
748
766
785
826
894
951
969
990
989
988
988
987
987
986
986
986
986
986
987
989
990
939
869
778
694
612
530
429
331
229
156
148
171
203
248
289
323
347
370
370
352
378
410
428
456
478
449
420
417
437
433
443
464
513
569
596
595
540
450
385
331
333
333
300
331
375
408
441
430
430
425
467
455
425
452
507
580
533
450
384
325
308
311
334
340
356
386
396
383
355
365
400
399
396
387
385
405
394
369
360
363
401
439
459
439
422
414
413
418
425
433
429
430
458
487
495
472
446
416
402
426
433
448
437
425
425
438
470
494
494
519
546
552
556
556
562
506
466
449
438
440
451
459
471
475
492
521
550
568
575
531
465
433
427
431
440
481
539
580
580
589
566
579
593
577
552
534
526
532
546
565
549
535
499
459
479
510
529
528
532
530
535
546
538
531
523
518
516
532
539
550
552
547
561
542
520
525
538
571
590
596
598
600
606
613
605
600
591
583
559
555
564
562
549
516
484
482
485
483
483
478
513
555
572
584
596
552
506
464
437
419
423
420
446
463
461
431
444
457
424
415
410
400
396
405
400
409
435
456
456
480
509
496
493
506
508
471
447
434
429
427
401
401
431
448
450
454
434
421
434
448
454
454
446
428
427
392
363
353
374
384
391
378
378
393
416
410
380
372
389
410
424
420
413
407
414
425
462
461
466
495
509
526
526
525
505
487
457
432
432
437
445
449
443
442
435
442
468
507
538
559
543
497
476
440
398
393
418
425
418
428
441
450
451
449
449
458
456
462
462
468
453
436
442
431
435
458
463
473
472
488
507
527
527
509
474
453
458
454
456
442
452
488
514
535
555
573
576
551
519
503
478
463
481
478
485
498
505
488
462
435
428
419
386
359
371
425
504
554
553
534
500
483
473
475
470
488
500
486
486
500
524
555
575
565
549
524
485
449
439
422
432
469
490
477
439
426
441
450
433
450
461
471
467
465
468
477
497
494
494
491
459
444
463
469
475
474
453
434
449
453
477
496
495
508
506
494
470
436
434
435
415
403
419
426
428
447
474
510
539
545
512
474
443
409
404
413
428
446
446
442
451
456
425
363
360
367
372
394
434
461
475
449
424
428
449
451
424
396
396
411
438
429
421
416
385
380
393
401
423
443
431
450
501
535
519
494
447
409
388
360
362
381
384
385
383
398
416
434
434
451
442
425
421
404
391
403
437
501
606
695
735
777
817
846
881
945
990
989
988
988
988
987
985
984
984
984
984
984
985
985
987
988
989
926
815
683
539
365
234
163
147
146
159
163
169
192
211
212
236
272
298
312
317
324
301
271
269
281
281
285
322
365
365
378
395
396
397
408
401
388
399
429
434
399
341
311
340
364
334
320
318
297
284
303
309
302
308
321
321
345
375
371
351
324
312
317
335
355
358
359
377
386
362
338
332
314
333
360
390
432
468
481
499
516
500
469
466
450
433
433
459
480
478
456
457
463
467
449
433
450
497
513
536
554
555
549
546
520
490
467
465
449
439
418
407
419
466
503
503
496
498
480
456
462
486
495
520
558
569
568
524
488
483
489
468
457
462
469
462
446
458
461
444
470
561
569
506
426
426
398
399
419
455
518
555
560
617
670
689
687
644
607
578
595
617
601
566
522
499
500
517
512
505
515
525
522
521
524
541
560
560
536
527
555
558
540
534
579
586
558
531
524
538
563
564
562
550
537
511
527
500
472
511
576
597
575
546
562
562
627
624
583
554
523
514
501
487
475
474
461
441
430
422
418
413
410
398
402
417
419
408
400
399
417
445
458
433
422
422
447
468
495
505
489
465
459
447
414
388
379
359
334
320
318
320
303
293
324
355
352
372
413
414
382
349
330
328
364
398
421
422
405
406
419
431
439
429
399
381
379
385
441
434
425
441
440
429
434
460
452
429
434
437
388
339
322
325
376
376
432
449
440
446
473
458
433
465
505
527
526
520
490
447
416
417
437
464
479
503
538
521
497
480
480
500
506
484
438
438
399
370
353
366
409
454
462
455
477
510
531
517
513
507
475
454
451
476
494
522
549
546
520
483
496
495
490
493
461
418
413
446
495
534
534
537
541
532
501
508
530
549
532
495
504
480
464
466
456
429
423
424
424
436
480
497
511
516
521
521
555
595
573
497
443
399
379
406
410
392
354
348
398
470
474
445
469
506
533
559
561
492
400
334
294
314
370
428
485
485
537
542
524
506
502
510
488
463
444
438
406
392
367
342
296
305
338
378
383
398
404
422
442
452
519
598
634
583
485
412
383
416
454
457
463
449
455
477
436
386
381
387
412
425
408
402
405
436
459
461
454
441
465
501
539
520
483
456
412
412
362
365
371
387
385
381
389
388
422
449
440
441
454
508
613
682
659
678
735
743
735
729
776
831
875
947
990
990
989
989
989
988
988
987
986
985
985
985
985
987
987
988
989
983
899
805
718
646
531
366
244
227
202
189
228
268
303
301
237
185
190
218
241
274
291
279
294
335
384
396
416
434
395
350
330
277
314
378
412
451
447
423
435
418
380
323
309
305
293
293
279
277
296
312
356
384
410
417
420
416
372
337
337
359
414
442
403
389
388
364
367
374
413
465
478
446
475
513
565
565
558
522
445
363
322
321
349
366
372
352
346
343
340
370
416
461
476
454
453
468
462
456
470
511
510
529
590
572
562
572
541
475
433
409
404
469
476
458
468
487
518
490
486
524
558
513
484
516
538
504
490
469
446
468
525
555
547
531
502
502
483
484
471
492
508
496
504
545
574
543
515
546
575
596
650
680
657
621
558
490
419
400
446
535
567
585
628
619
634
634
625
523
457
514
561
565
583
588
616
648
608
543
505
464
434
415
410
438
525
604
574
524
514
503
497
509
519
546
552
570
540
505
477
440
411
421
460
467
467
471
460
463
456
445
447
479
484
480
438
407
404
418
403
371
378
467
523
533
495
495
454
436
421
413
430
448
480
478
415
356
355
374
369
398
420
418
474
504
481
464
426
387
394
410
405
399
388
381
334
334
340
385
436
466
412
360
376
376
387
397
404
445
476
454
445
439
375
319
359
380
366
396
407
404
372
376
391
408
404
364
363
376
416
416
417
467
499
507
509
528
524
518
478
413
394
383
380
392
402
401
396
430
494
539
536
517
498
466
443
443
434
438
423
433
496
523
498
479
442
440
442
438
464
480
485
502
545
557
558
537
531
550
502
453
500
512
495
502
508
508
499
487
466
452
459
475
493
537
567
575
539
506
513
516
477
454
447
474
510
515
527
544
548
546
531
456
383
342
361
396
424
372
372
398
448
461
457
455
466
461
461
473
460
412
387
377
305
257
321
435
475
499
530
522
495
504
526
530
497
497
507
502
462
467
479
453
396
393
427
461
425
395
435
474
502
495
471
430
392
405
431
454
500
527
514
529
462
353
324
324
340
414
463
476
481
453
394
361
374
401
406
445
500
539
574
571
564
562
554
526
486
468
468
441
409
392
370
395
439
413
381
383
365
371
399
408
415
415
440
459
447
435
417
448
514
541
513
511
558
635
696
708
716
679
730
860
981
990
990
990
990
989
989
990
989
988
987
986
986
986
985
986
987
987
988
989
915
821
722
619
496
362
280
235
204
202
224
220
242
242
271
271
241
243
292
340
377
403
441
473
502
511
499
443
365
326
325
334
336
338
310
286
266
262
272
304
356
387
351
329
373
394
361
388
422
431
428
449
434
377
361
373
401
388
373
358
352
353
338
348
413
427
428
439
448
435
414
390
389
389
394
388
371
367
375
380
377
388
405
432
464
475
478
486
496
478
450
455
462
435
396
376
375
386
410
433
432
433
429
429
421
419
438
495
482
478
491
498
498
489
495
497
486
483
487
479
466
457
487
492
495
499
489
447
421
436
465
478
479
509
547
531
521
528
533
521
544
562
569
579
583
581
524
457
470
529
566
549
538
530
549
558
585
572
573
591
603
601
602
602
592
595
576
564
560
568
547
532
517
532
565
597
600
629
590
520
472
467
464
472
448
465
484
495
519
539
561
559
571
571
563
554
540
508
490
490
483
471
445
394
405
421
435
453
448
431
439
466
487
483
458
445
460
464
449
475
493
471
454
458
461
463
460
443
377
356
383
391
405
420
433
419
373
389
404
370
341
355
377
393
420
437
448
444
433
396
336
338
349
349
364
343
333
360
411
421
410
379
388
421
442
443
447
458
454
452
450
452
460
468
463
431
393
386
382
406
437
451
442
442
406
418
453
442
391
400
423
476
495
460
438
413
811
864
868
807
753
710
712
700
647
583
609
669
696
658
617
598
629
633
622
598
612
643
642
589
568
565
670
739
704
667
666
662
619
569
534
512
534
555
562
568
633
719
736
673
642
642
647
691
708
672
635
615
606
614
632
648
666
693
693
651
620
657
709
719
674
657
651
689
724
699
632
589
552
538
549
549
551
577
638
704
730
708
761
829
832
754
666
597
625
647
599
536
531
545
535
504
486
494
558
598
600
591
624
679
671
611
595
620
695
730
722
713
740
785
834
847
883
935
990
989
989
988
988
987
986
987
987
986
984
984
983
983
983
983
984
984
985
986
986
987
988
989
944
903
866
744
590
469
417
455
485
472
454
471
482
477
445
411
400
443
468
478
475
524
592
592
609
601
628
644
689
685
603
512
503
523
501
488
479
462
479
490
481
479
542
615
614
561
532
540
614
641
630
623
653
671
669
643
607
566
560
542
507
485
526
578
579
556
544
566
647
676
600
541
567
589
597
570
549
548
597
630
630
635
711
711
804
809
725
663
639
652
659
635
600
586
583
586
584
586
582
606
598
562
540
586
658
660
617
609
605
640
644
608
613
613
678
761
804
796
794
802
820
766
693
653
666
697
655
572
543
576
650
673
653
633
654
673
686
678
693
715
735
729
679
641
672
724
708
632
590
561
559
564
540
506
512
536
568
619
709
782
828
858
830
787
822
881
887
816
745
702
707
676
595
595
523
514
531
541
545
556
569
593
622
615
610
657
705
707
684
683
690
743
744
692
652
648
650
649
671
701
729
747
739
739
725
731
800
830
791
680
590
532
495
449
386
361
402
463
512
544
582
613
635
663
652
647
704
733
705
654
605
583
616
592
513
427
392
404
409
401
398
427
500
554
570
605
664
693
641
564
522
506
549
557
542
524
515
505
489
471
469
480
483
483
478
449
405
424
457
444
421
441
502
592
606
590
583
621
668
695
717
734
708
685
631
562
535
572
599
581
560
553
561
561
609
614
565
527
556
597
604
557
522
535
546
544
503
440
455
503
513
478
466
470
504
532
515
522
559
587
574
567
570
589
628
653
624
585
598
620
591
521
495
514
562
550
503
516
572
587
557
505
465
440
428
425
429
464
546
616
603
563
563
563
605
656
639
577
557
573
581
575
556
541
555
597
598
530
482
532
586
572
534
516
563
624
628
593
579
578
570
541
483
483
438
423
440
436
420
448
553
633
625
596
581
611
659
657
609
594
633
649
628
588
565
574
601
592
575
593
654
698
669
624
581
588
623
611
546
514
514
503
470
465
480
518
548
556
522
520
564
584
542
482
456
489
540
547
507
491
513
529
509
509
474
457
488
548
567
541
551
610
637
612
589
584
614
648
634
569
525
533
540
525
502
490
510
543
546
514
522
579
624
624
589
552
552
594
638
636
585
545
546
569
578
576
590
618
651
675
686
732
828
899
903
907
930
990
989
988
989
989
988
988
987
986
986
986
986
986
987
988
988
988
989
952
878
836
806
737
616
514
435
367
331
306
295
321
367
385
363
372
440
440
474
435
390
385
438
490
475
427
435
459
449
433
405
388
407
446
468
464
477
531
549
505
462
445
478
514
499
461
448
448
459
457
444
424
422
453
492
496
475
492
557
585
541
501
468
499
545
540
507
508
520
518
505
501
504
522
517
479
433
440
504
541
514
501
506
563
603
585
528
515
530
525
504
479
461
491
522
531
534
572
639
664
625
604
582
606
629
609
568
568
566
589
587
562
533
524
538
548
530
499
521
571
599
570
544
547
596
631
620
576
577
598
616
615
599
595
618
632
626
626
599
609
656
678
652
623
598
628
652
631
588
590
621
634
631
619
621
648
666
651
625
635
685
700
645
602
596
643
679
652
602
602
622
610
580
563
564
596
613
609
569
541
594
623
586
571
568
611
639
621
581
581
608
613
604
591
586
601
615
615
604
581
600
637
631
574
549
536
575
611
577
521
515
554
580
560
532
515
529
542
521
498
515
573
575
529
501
492
534
534
555
542
511
507
523
525
507
490
485
511
529
519
484
506
562
579
545
538
540
595
613
559
493
493
513
524
509
484
472
473
476
454
416
435
508
534
497
478
467
510
546
526
487
489
509
524
510
497
485
494
504
494
472
498
562
572
510
488
496
496
552
583
558
520
527
557
555
535
519
506
524
527
513
502
527
584
583
536
516
503
550
582
554
519
540
569
586
575
554
554
534
547
550
532
518
549
627
631
573
540
524
563
587
560
529
543
570
584
564
547
543
575
584
565
538
566
624
632
587
567
566
623
642
614
577
579
575
558
527
512
516
549
566
555
537
580
637
647
584
552
548
596
626
603
568
589
616
607
569
569
537
539
566
569
548
525
562
627
644
598
579
574
616
625
582
536
538
561
554
526
517
522
543
546
510
466
499
564
564
564
508
486
485
542
563
533
509
519
552
555
531
508
499
520
533
522
514
549
595
589
529
509
504
550
576
542
518
532
547
543
520
504
511
552
568
535
498
527
575
582
527
511
506
544
557
524
493
503
515
493
470
467
486
520
531
509
484
518
583
583
581
530
510
514
553
562
524
500
526
546
538
529
537
549
584
606
597
591
656
732
749
730
758
793
866
918
919
923
969
969
989
989
988
988
987
987
986
985
985
985
984
985
986
987
988
988
989
960
856
808
758
670
540
412
334
313
303
294
307
375
448
455
402
376
374
426
443
412
385
401
422
414
395
379
386
420
431
410
394
445
515
505
444
416
433
502
528
488
456
456
474
490
487
467
453
456
463
452
421
414
467
514
494
447
430
441
490
503
454
433
463
490
486
472
463
462
479
472
453
453
442
494
556
550
509
497
527
584
592
539
506
515
521
516
496
485
494
516
513
474
437
474
519
514
479
476
497
555
567
532
514
532
534
508
482
476
488
510
518
495
488
532
574
559
523
511
530
570
572
534
511
539
557
543
526
522
528
542
553
553
541
534
573
608
594
559
562
592
641
653
617
592
599
602
591
587
589
604
613
608
573
563
613
664
643
587
555
573
636
636
651
622
607
635
675
675
615
571
566
590
593
558
551
607
668
669
653
616
611
646
616
527
485
511
526
526
520
538
577
611
619
580
542
556
562
521
465
448
480
548
558
525
515
531
551
547
522
508
520
534
532
499
491
548
585
554
509
489
516
516
565
552
488
459
475
486
494
500
507
524
550
552
521
503
542
567
522
496
490
520
555
541
481
459
476
486
485
467
447
447
459
473
464
444
461
525
553
514
468
441
459
500
498
447
439
472
483
469
448
438
464
502
520
498
489
527
558
530
495
478
509
552
535
478
457
482
501
497
488
470
482
507
516
487
486
540
564
527
479
458
491
531
515
473
487
537
559
531
489
489
467
471
485
472
444
460
547
624
624
599
601
623
645
614
552
540
549
540
526
512
515
536
549
545
526
544
594
619
589
589
549
532
563
608
600
561
550
568
579
561
536
531
558
580
574
544
539
578
593
562
531
529
576
622
619
575
562
587
612
593
564
566
582
579
556
528
550
607
635
606
575
547
563
592
575
517
507
505
522
519
496
471
481
492
486
475
507
571
616
616
600
565
546
583
617
592
540
520
544
576
563
524
511
533
555
550
521
539
601
611
572
554
543
584
628
608
549
541
557
557
558
521
506
497
520
536
532
495
501
561
583
538
500
494
528
571
544
491
510
539
553
554
528
517
540
534
501
467
475
540
570
550
520
494
534
573
580
554
546
554
561
527
503
506
554
594
599
586
622
720
768
751
747
764
839
905
928
920
976
976
989
988
988
988
988
987
986
986
985
985
984
984
984
985
985
986
986
987
989
983
933
860
759
650
528
448
380
310
266
266
309
414
457
411
388
392
449
497
464
416
415
437
457
451
424
414
445
480
464
435
449
494
515
470
454
450
488
501
496
474
481
491
488
469
447
429
450
457
453
444
479
541
553
507
478
471
526
567
555
529
514
499
497
488
496
502
522
545
515
515
486
507
569
595
532
498
477
524
562
550
512
520
543
545
526
507
500
511
515
494
508
551
620
635
599
570
566
610
627
627
597
548
541
565
562
516
502
512
559
578
570
550
582
644
646
599
585
569
608
625
575
533
551
561
572
579
578
571
586
621
608
555
580
652
667
610
594
590
635
644
616
584
585
598
594
586
584
584
616
633
621
599
633
695
688
614
589
604
682
682
696
648
599
606
638
661
643
609
589
616
632
633
624
644
687
682
644
646
628
671
683
630
580
590
607
611
603
579
559
559
573
577
547
528
592
640
630
578
565
559
604
635
584
541
544
569
566
547
524
509
528
528
527
552
564
576
544
519
523
530
566
573
527
481
485
510
511
474
444
444
459
456
436
447
527
598
576
508
484
494
541
565
530
488
489
507
501
472
452
452
454
488
496
472
461
522
591
566
514
507
486
519
530
490
462
491
515
506
476
466
472
502
521
491
471
516
570
564
515
515
499
510
549
537
522
468
456
453
442
435
440
460
485
508
495
486
523
561
565
516
492
506
575
586
529
495
501
501
491
490
513
523
554
554
527
496
536
601
588
536
514
520
574
584
540
520
545
547
539
524
532
532
549
553
528
512
573
629
605
605
548
536
547
610
622
569
527
536
547
533
520
516
532
567
568
553
539
573
625
626
575
550
553
595
601
546
512
543
559
559
537
509
508
524
544
537
509
493
555
626
624
573
544
539
585
619
564
508
545
546
509
465
432
440
492
509
489
478
526
575
554
509
496
515
559
545
491
480
497
511
508
478
457
464
484
480
449
436
499
565
571
523
490
497
551
561
512
480
502
502
520
511
494
472
462
455
462
447
443
498
546
518
473
459
487
534
535
505
474
492
501
479
452
457
476
494
482
465
477
477
522
561
543
506
472
497
561
566
497
450
475
508
516
501
488
517
568
570
553
564
635
681
673
640
651
710
792
818
828
858
930
990
990
989
988
988
987
986
986
985
984
984
983
984
984
985
985
986
987
989
990
906
804
694
556
432
344
279
226
226
228
299
365
363
340
329
360
404
404
360
338
369
392
382
349
346
356
367
377
378
393
441
464
433
388
375
411
458
451
451
408
390
410
432
434
420
410
420
419
398
359
344
398
459
472
442
395
405
454
451
412
406
426
437
421
389
381
436
478
481
450
456
506
534
511
476
458
482
522
528
484
473
491
506
503
489
483
517
533
498
453
448
497
524
490
452
439
474
515
515
509
462
448
470
488
481
468
475
481
493
511
483
476
532
576
543
501
478
508
553
549
510
513
545
556
543
523
515
533
533
544
533
502
506
563
595
570
537
524
559
601
592
550
540
563
570
557
535
528
546
566
560
538
564
619
646
611
582
571
617
665
652
596
584
602
609
597
568
554
571
572
554
530
541
598
622
575
522
514
567
612
600
532
511
527
533
530
509
502
502
533
549
536
510
523
588
606
571
533
514
550
592
588
532
515
535
539
512
477
467
494
505
490
461
477
527
542
507
477
477
461
500
540
527
480
461
470
479
490
475
457
462
461
438
405
410
466
496
466
444
433
465
499
486
447
445
475
493
483
457
431
436
453
447
427
448
504
502
450
428
425
459
481
459
420
428
478
503
488
477
478
506
517
502
477
498
545
556
516
516
487
478
522
548
508
452
438
447
442
425
413
410
436
471
487
481
482
526
545
509
484
464
502
541
510
451
451
478
475
475
463
446
434
467
487
472
446
461
519
528
497
485
475
521
561
538
490
496
509
507
492
474
482
509
527
512
489
520
570
575
519
506
498
538
571
545
510
502
509
510
496
473
465
501
517
506
489
513
580
588
526
495
486
541
576
557
511
502
523
523
530
513
501
498
516
530
517
491
508
560
569
523
494
466
502
539
525
479
487
510
520
493
463
445
465
461
443
422
447
447
494
510
463
435
418
466
491
454
412
421
435
437
426
424
437
467
474
460
430
440
482
505
470
437
422
478
514
475
421
409
426
421
409
390
373
385
408
402
398
440
500
517
464
448
442
479
478
430
382
397
418
406
385
361
340
366
401
428
420
420
442
464
459
423
418
418
473
476
435
386
389
407
410
393
370
370
412
429
419
411
468
550
589
538
519
537
605
656
651
651
648
686
754
814
848
882
930
990
989
989
989
987
986
986
986
986
986
985
984
985
987
988
988
989
898
795
721
667
565
425
290
242
245
232
185
180
201
282
313
275
237
246
269
275
268
264
267
286
319
309
289
332
398
391
323
292
288
331
349
349
302
267
303
338
346
338
329
337
365
374
360
336
365
416
412
340
302
300
358
370
331
315
336
357
372
376
372
367
390
390
409
389
355
377
420
420
385
373
372
437
461
392
346
371
408
411
388
369
370
393
412
401
389
428
469
464
406
393
392
439
447
408
390
424
447
448
422
414
429
437
418
414
425
492
548
529
462
434
432
474
476
419
390
400
423
438
432
435
445
445
450
452
420
399
440
479
466
430
424
440
497
528
501
476
486
515
520
495
474
487
522
514
475
460
516
577
564
513
496
496
508
554
566
516
491
513
542
549
544
534
533
543
524
469
436
493
562
562
512
500
513
560
555
509
481
495
522
517
488
469
473
495
490
451
435
501
559
545
495
478
489
550
559
483
442
451
473
464
448
439
429
433
436
409
393
442
492
479
433
433
410
428
491
490
447
414
431
431
414
379
374
394
430
437
430
417
456
505
477
423
397
400
445
451
409
388
414
439
432
432
411
400
406
430
430
396
387
439
481
448
398
382
399
455
450
408
394
422
432
426
406
386
399
419
422
400
383
419
460
437
400
387
418
478
473
424
419
456
485
483
447
407
410
436
437
381
380
453
506
482
435
414
435
483
493
456
437
459
472
472
456
436
439
461
479
482
446
442
488
512
480
432
432
478
524
512
454
432
454
479
493
464
447
488
529
534
503
510
554
554
566
492
436
409
432
477
487
460
461
485
496
493
476
467
480
506
503
476
486
540
582
559
526
505
522
564
540
481
460
478
491
499
488
482
508
521
512
478
482
530
560
541
508
490
515
552
524
460
439
468
489
506
480
461
457
453
437
401
414
414
476
501
460
437
432
456
501
505
455
435
449
458
454
445
423
424
423
417
403
429
486
514
483
442
416
441
481
465
405
405
396
429
455
446
409
402
429
457
464
440
441
491
513
463
416
402
436
487
503
455
428
465
482
455
417
400
411
423
426
406
412
464
487
449
414
411
464
505
481
434
433
456
455
440
421
427
452
459
446
424
456
527
567
539
520
526
591
650
655
655
622
644
700
741
758
780
825
902
977
990
989
988
988
987
987
986
986
985
984
984
985
986
987
988
989
980
908
864
803
803
708
580
464
406
346
235
178
177
254
317
319
277
262
280
297
293
293
315
352
377
374
346
343
395
412
367
313
297
351
427
414
354
336
336
341
346
346
365
412
439
419
375
395
447
463
423
399
380
403
430
394
342
373
408
422
419
392
384
408
408
425
410
388
412
484
506
467
445
444
493
523
511
468
449
432
414
397
387
367
389
434
425
398
414
481
523
476
449
433
433
451
482
477
455
461
488
494
479
463
461
492
506
470
429
444
504
515
473
458
442
478
507
484
445
449
474
493
494
476
462
474
493
487
460
481
551
572
524
499
503
564
606
582
534
537
564
572
557
533
515
544
564
554
520
538
595
607
563
552
552
548
600
635
606
570
573
584
580
573
544
520
536
551
544
520
540
592
605
567
546
547
593
603
563
515
515
525
527
510
510
485
464
474
474
483
498
556
612
599
529
500
491
526
550
534
514
532
559
566
538
504
483
495
490
464
437
462
513
529
491
465
444
485
484
444
418
441
474
477
456
434
428
455
494
470
420
451
496
488
447
462
447
470
474
444
402
409
426
432
432
434
420
406
420
428
424
409
438
492
490
444
430
432
476
494
465
436
441
451
457
443
426
431
467
467
429
391
416
456
456
448
403
411
430
494
516
467
427
430
447
449
420
407
416
445
443
425
420
464
510
503
456
440
440
479
500
468
440
435
463
474
460
449
462
490
486
453
435
463
507
509
456
437
425
490
520
499
482
501
513
509
487
468
476
499
507
494
492
527
527
576
575
521
490
473
520
544
519
493
508
526
520
495
477
473
487
492
472
449
487
539
542
499
480
484
543
567
541
518
518
524
540
543
527
502
492
510
510
482
455
496
555
546
498
471
470
516
527
480
439
453
476
481
458
448
456
475
480
451
424
457
507
502
456
429
424
473
484
444
414
430
449
439
420
405
415
445
459
443
438
474
509
501
461
444
447
477
468
430
430
424
469
484
496
481
455
454
475
477
453
440
476
521
510
462
428
425
486
508
482
458
476
496
492
477
456
451
454
449
449
427
433
493
550
541
495
469
480
521
524
476
444
452
460
461
453
448
455
466
461
436
428
488
552
561
536
541
586
668
701
690
700
763
830
863
882
904
935
986
989
989
989
987
986
986
986
986
986
987
987
989
985
942
896
821
739
664
598
534
534
420
297
223
233
276
287
262
257
283
345
363
323
298
309
321
325
318
321
338
357
362
344
341
387
429
414
387
388
423
423
486
493
452
430
447
461
450
417
399
395
395
364
322
327
393
440
425
385
365
375
417
422
390
385
413
427
424
400
399
417
433
433
427
442
497
536
499
445
418
433
464
454
409
395
428
461
465
451
437
449
469
460
435
434
486
523
503
472
467
467
488
532
533
481
453
478
489
483
476
484
509
513
499
468
461
503
535
521
489
476
505
552
551
506
491
511
522
514
501
501
500
514
535
557
527
518
565
592
564
532
519
537
582
589
542
536
559
563
534
514
507
529
557
558
536
537
594
636
603
572
564
611
666
662
614
580
584
586
567
522
502
516
535
526
495
515
571
607
586
557
537
561
590
573
530
532
562
569
552
552
533
525
541
553
542
523
534
579
612
574
537
524
555
588
577
526
514
529
532
513
484
475
487
492
485
457
470
526
556
556
536
506
474
477
495
488
450
450
480
499
505
501
503
521
525
496
454
466
531
555
502
443
407
419
459
452
408
391
406
414
407
415
429
441
433
405
387
397
447
487
457
439
442
484
508
483
438
432
451
448
439
422
410
432
447
437
407
406
463
463
505
480
475
480
515
541
512
444
422
432
431
404
392
394
415
437
439
419
438
498
511
470
448
445
482
507
496
458
451
451
465
466
455
441
438
469
489
485
461
477
524
537
513
515
499
532
551
526
474
466
489
503
508
503
504
525
535
530
523
549
592
591
534
497
489
528
560
543
504
507
532
549
544
527
507
523
534
539
526
542
576
577
515
481
459
492
522
502
467
467
475
495
514
520
523
524
542
545
524
493
508
562
565
494
447
433
490
518
481
431
428
451
452
418
394
393
421
441
428
428
409
440
504
521
480
458
452
486
509
493
457
460
484
485
467
449
431
444
455
445
432
459
518
537
487
453
445
492
516
488
443
446
466
470
457
444
442
469
479
462
436
464
529
554
508
485
480
526
543
509
468
470
484
482
457
438
430
452
473
473
468
455
488
544
550
506
485
470
513
536
527
509
508
530
554
554
548
549
586
612
620
623
667
742
784
774
791
830
919
919
979
986
979
990
989
988
988
988
987
987
987
989
990
964
973
935
834
761
701
678
618
494
353
286
257
236
225
226
237
279
300
294
285
322
379
387
345
337
343
403
432
413
381
392
408
407
389
377
386
425
445
435
421
444
489
497
438
418
413
413
449
459
404
345
350
378
391
380
373
381
412
438
432
423
464
524
531
480
458
454
493
505
473
432
439
455
468
453
421
421
394
403
412
395
382
418
475
476
429
414
426
493
516
485
461
478
505
504
483
455
442
457
464
443
426
464
512
505
463
453
462
523
540
505
473
483
508
511
501
484
487
511
518
500
489
526
565
556
501
484
497
559
573
525
487
504
530
528
515
515
514
530
565
583
566
552
589
640
626
582
570
571
620
639
594
545
544
550
539
524
499
496
525
540
528
522
570
622
612
612
558
544
556
600
603
565
543
560
576
566
532
515
526
549
555
536
531
581
639
625
576
554
557
594
599
552
519
523
539
536
513
495
492
505
498
469
455
503
546
537
482
461
475
534
546
504
469
488
508
505
480
461
465
492
494
464
448
491
534
534
511
460
440
442
489
496
449
424
444
461
460
445
440
446
464
460
426
403
444
493
485
442
428
441
485
489
435
407
423
423
453
457
448
435
443
461
453
412
401
450
503
490
462
451
471
524
530
480
444
442
432
393
370
376
405
431
436
409
390
428
473
460
428
429
455
488
486
445
433
467
490
473
442
432
440
460
463
439
429
478
521
502
459
447
472
530
537
482
448
448
459
480
473
459
458
486
511
513
494
495
547
585
558
517
501
521
571
566
511
488
505
519
518
519
514
518
535
541
520
520
513
555
574
534
479
456
480
535
541
507
502
530
550
540
508
483
484
500
517
501
500
546
580
554
517
488
497
539
533
491
482
509
516
501
476
456
467
484
479
452
456
499
514
467
424
417
450
491
487
452
444
466
485
481
460
441
451
467
463
463
443
453
494
519
487
449
440
469
491
473
420
407
434
442
433
411
402
421
433
437
427
446
513
547
514
463
436
453
491
491
491
454
442
466
484
481
455
441
455
463
464
438
447
498
523
493
457
450
482
514
503
461
451
465
460
447
436
443
474
508
520
503
517
588
633
614
597
600
657
722
742
732
767
833
882
911
919
926
968
989
989
989
988
987
986
986
987
987
987
987
988
989
990
916
868
798
712
616
520
450
361
280
202
188
253
297
280
266
266
325
376
375
347
351
386
405
403
381
370
370
389
411
390
342
345
403
422
391
365
362
400
431
420
382
385
417
425
423
412
409
426
428
413
395
410
471
489
445
406
394
428
461
450
407
405
432
444
438
423
421
456
479
469
444
448
498
512
460
426
412
444
479
464
424
423
437
446
442
434
434
434
449
450
437
406
412
454
477
448
427
418
460
491
475
443
458
492
499
476
454
451
471
481
470
452
482
532
546
503
503
481
475
517
550
533
486
484
504
516
508
499
500
524
533
516
496
527
585
598
549
522
521
562
587
565
532
540
570
577
561
542
534
552
572
574
561
569
606
603
553
525
526
588
625
611
579
591
610
614
603
573
550
545
522
485
451
471
532
555
555
521
509
509
555
588
564
519
506
518
519
500
483
479
498
505
488
469
492
545
555
506
486
475
519
543
515
477
482
501
501
516
500
478
471
500
507
489
466
480
530
531
482
457
452
501
524
499
471
475
492
492
479
462
454
482
511
506
474
481
522
526
466
433
421
457
467
433
390
394
418
429
418
407
412
445
459
449
436
464
516
519
475
458
459
502
510
463
411
407
407
414
417
400
389
391
421
431
414
404
442
495
497
440
410
403
458
478
446
420
439
462
469
460
453
456
482
504
504
489
489
528
583
582
508
463
454
496
503
445
400
416
445
461
456
442
435
456
460
438
429
467
526
532
489
471
475
518
528
489
458
474
506
512
497
483
492
518
527
508
491
531
568
570
520
507
511
552
566
523
483
485
504
499
467
450
461
496
511
503
503
503
552
623
619
562
530
515
540
530
495
467
477
496
492
468
451
447
474
494
488
480
521
572
574
527
492
470
494
495
495
451
424
445
473
475
460
444
431
439
437
415
403
454
511
507
455
438
444
495
514
479
451
470
497
498
476
460
462
471
449
405
376
410
465
475
444
430
438
484
500
464
437
450
466
474
466
453
456
475
472
441
422
459
514
496
448
440
452
499
499
506
474
454
464
480
467
451
448
458
476
472
448
429
470
522
519
475
467
500
552
559
519
507
550
592
607
607
613
646
646
692
729
758
803
897
989
990
990
989
989
987
987
987
987
986
986
985
986
987
988
989
990
902
819
776
742
646
517
399
317
305
266
213
212
258
294
310
308
315
330
355
369
343
335
389
428
409
362
346
363
413
422
376
351
370
393
393
383
379
379
398
424
424
397
376
404
437
418
369
338
356
413
423
384
367
386
399
394
385
389
403
422
421
395
392
445
489
469
422
422
398
416
471
471
429
411
434
454
455
433
420
437
455
449
419
408
453
498
484
445
428
435
478
479
430
410
423
445
447
430
420
429
462
485
487
497
541
572
534
481
457
470
503
485
435
416
433
451
460
451
445
461
480
482
462
465
520
566
543
543
507
487
508
554
548
507
486
503
520
524
504
488
504
531
536
527
535
589
613
576
527
508
536
584
582
539
527
549
564
564
564
552
547
563
582
579
548
547
592
624
596
566
558
585
618
600
542
514
525
532
519
495
473
483
488
478
464
475
528
566
542
508
490
509
556
557
512
496
508
512
501
474
468
489
505
502
473
472
518
538
495
461
441
454
480
465
416
409
434
434
449
445
433
433
456
471
460
430
427
475
508
481
449
437
462
492
472
426
417
437
445
431
410
403
423
442
446
430
448
448
502
535
513
488
476
503
548
548
501
484
489
471
441
397
363
368
391
404
388
399
467
493
452
417
400
430
469
473
440
439
463
481
481
456
446
463
474
465
442
444
487
503
458
425
417
456
492
482
444
441
465
475
469
450
442
458
469
468
449
449
472
529
551
516
483
473
509
548
535
489
476
492
501
496
477
470
499
525
521
501
509
578
613
570
531
514
541
575
560
560
515
509
509
494
466
451
452
475
493
498
481
495
547
555
508
483
482
528
564
550
504
501
521
531
520
496
491
515
525
507
482
496
555
579
539
512
505
550
580
558
512
513
535
530
506
476
450
455
452
431
401
419
475
478
433
409
415
461
497
497
479
440
437
460
470
464
452
452
465
474
466
439
456
513
523
474
447
439
484
513
498
459
456
466
461
439
421
418
432
432
442
430
410
441
492
505
463
437
435
481
510
491
459
457
469
468
451
432
432
458
465
450
430
450
505
515
480
464
466
519
549
514
459
442
452
454
433
419
426
454
465
453
440
487
561
611
600
605
625
693
742
742
740
792
872
935
960
981
989
989
989
988
988
987
986
986
986
986
986
987
987
987
989
969
885
822
745
653
554
451
365
297
233
186
218
295
334
307
300
300
307
361
392
375
353
372
410
423
406
387
374
385
377
344
310
338
399
417
368
349
342
397
421
384
347
361
382
386
367
353
346
372
385
374
359
393
453
458
416
403
403
459
480
440
393
394
407
413
405
408
417
440
446
431
408
444
497
494
432
432
397
400
456
487
454
416
423
445
461
452
447
460
490
493
465
430
441
483
474
416
394
391
449
484
473
455
469
490
493
493
476
461
454
475
488
462
437
467
521
516
465
446
449
501
512
477
455
475
506
520
516
509
503
513
513
499
483
527
586
591
552
540
539
592
605
560
517
507
521
520
498
484
488
510
513
502
502
560
628
629
579
555
562
619
638
600
571
581
593
593
585
552
532
520
523
511
477
455
497
548
545
503
497
507
556
571
535
504
509
523
522
501
482
483
511
525
508
487
517
517
555
546
492
478
486
541
554
514
472
470
478
468
452
440
438
458
461
437
424
471
527
530
488
469
474
517
529
489
463
473
486
486
475
458
458
461
459
423
410
466
523
506
450
434
437
476
476
428
400
417
438
441
434
427
431
446
443
415
403
403
445
498
481
437
428
441
491
502
456
431
452
472
463
429
407
410
428
423
391
377
428
477
458
416
405
423
473
495
460
460
435
448
464
456
435
429
435
452
455
438
434
478
521
506
471
461
468
516
525
482
465
489
502
492
466
451
454
478
490
477
470
515
559
543
491
465
474
521
520
476
452
473
501
498
483
476
483
497
500
480
480
530
569
544
507
503
530
580
581
581
528
496
506
527
526
502
484
488
509
514
489
482
523
561
537
499
488
503
555
552
505
486
505
522
516
492
475
479
488
488
475
446
444
503
543
519
483
464
475
511
504
453
432
446
466
479
467
463
493
514
502
450
421
462
508
495
458
443
463
505
494
441
427
446
465
461
446
431
441
451
445
417
416
463
500
482
459
458
487
534
525
472
460
486
504
501
482
468
478
478
491
466
416
401
438
469
444
405
385
404
443
451
419
415
444
456
444
419
406
426
453
452
435
433
475
500
474
439
423
423
447
478
474
446
457
502
534
544
538
547
579
619
653
664
690
775
844
851
853
878
944
989
989
989
988
987
987
986
986
986
986
987
987
988
989
989
990
882
779
704
652
589
467
344
273
256
245
245
249
250
263
269
266
253
278
359
397
375
354
354
350
383
422
410
357
343
368
391
392
376
369
383
389
383
365
387
446
465
430
395
382
416
451
426
374
367
389
405
408
408
400
400
418
440
440
410
398
438
458
420
388
379
415
456
439
390
376
398
406
403
396
399
436
462
460
438
452
505
522
485
443
420
451
488
469
425
427
456
464
454
441
432
444
450
428
395
424
498
529
502
490
490
524
553
537
493
489
509
528
528
515
484
463
473
485
476
450
467
519
535
492
460
461
514
548
533
492
496
523
527
507
485
484
512
527
521
505
516
567
567
579
539
516
511
561
600
580
536
533
546
542
529
516
505
515
526
519
513
546
613
634
597
572
566
604
634
612
554
535
536
531
506
490
488
518
538
526
493
499
556
587
553
533
525
560
592
569
517
496
503
508
498
487
483
513
529
511
484
497
497
552
562
511
471
454
495
523
503
464
465
489
491
470
442
428
443
453
447
429
451
503
511
469
449
441
476
502
489
447
447
444
452
449
432
414
410
439
458
449
429
461
507
512
465
450
450
491
512
484
449
454
465
453
427
403
389
409
422
412
395
430
492
502
455
433
430
477
499
465
426
430
455
471
464
454
444
457
459
432
408
436
486
490
448
430
424
477
506
478
478
443
442
455
452
427
410
416
449
458
445
430
465
523
535
488
470
467
508
523
493
461
460
474
470
456
449
457
492
518
518
508
481
505
547
555
516
503
499
548
562
527
492
504
533
544
527
506
491
507
507
485
470
508
578
589
541
520
518
568
583
550
520
523
540
538
522
518
526
560
567
545
533
560
597
568
489
457
450
505
525
495
466
466
477
464
431
405
404
427
427
439
422
411
448
501
498
446
425
427
482
499
463
436
450
475
479
462
445
446
473
474
444
422
455
511
521
478
452
446
446
488
490
455
427
440
457
465
442
421
426
454
471
453
436
480
534
527
477
463
472
527
541
491
451
463
489
493
471
453
448
460
443
409
389
431
486
475
432
430
440
476
467
421
393
412
436
444
434
423
440
471
483
476
473
526
607
627
606
622
622
668
740
777
777
800
856
907
943
961
982
989
988
988
987
987
986
986
986
987
987
988
988
989
946
842
778
723
645
534
534
414
320
273
230
188
194
266
342
351
317
300
308
368
390
346
325
352
379
373
353
336
336
354
361
346
343
399
459
458
423
411
419
468
480
440
410
406
392
368
336
320
336
370
387
374
359
412
463
457
421
411
429
486
499
455
428
448
471
472
472
450
428
415
425
428
399
379
427
473
459
415
395
408
459
467
428
411
431
451
441
414
401
417
439
448
443
450
499
536
536
519
483
467
469
509
513
475
451
469
484
476
454
448
458
470
467
445
447
504
547
526
488
479
498
553
566
528
506
526
548
535
507
497
506
522
512
491
496
558
610
597
558
542
552
599
611
566
539
549
562
563
552
538
543
549
550
526
527
581
581
619
586
532
508
527
574
587
547
530
554
574
557
529
518
530
546
551
527
518
571
611
599
568
558
578
613
603
549
529
529
539
540
522
494
476
478
488
487
471
479
528
570
542
496
481
515
564
563
516
502
513
520
512
488
460
462
466
460
431
433
490
535
506
469
448
470
510
502
457
437
450
455
444
438
447
470
489
488
459
460
509
536
495
450
432
454
487
481
439
439
432
456
476
460
431
414
434
456
462
433
429
477
503
473
445
435
471
524
525
481
474
490
493
468
434
416
427
441
438
438
418
420
480
518
492
464
453
493
536
524
471
467
499
524
516
497
481
491
488
466
427
433
487
509
470
433
413
440
489
493
461
453
479
494
491
480
483
507
510
495
469
480
537
564
529
497
488
530
574
569
525
519
541
544
529
508
506
530
550
550
549
530
524
559
573
535
502
492
530
558
550
510
518
532
536
524
518
520
545
565
565
545
555
615
638
603
570
555
596
596
629
599
533
515
530
530
502
461
449
482
500
487
462
480
535
550
503
476
470
511
542
521
467
452
473
485
477
459
451
476
491
471
437
449
508
524
482
456
450
492
527
507
464
465
488
501
481
454
443
462
480
477
459
474
534
558
522
504
495
495
535
557
525
484
485
495
500
492
478
474
503
518
499
469
485
542
553
502
474
467
513
542
515
469
467
485
488
471
446
446
436
456
464
459
447
472
537
558
524
516
521
574
615
608
585
604
639
667
662
655
670
714
755
802
843
918
989
989
989
989
988
987
986
985
985
985
985
985
986
987
988
988
989
962
836
760
731
638
465
330
266
276
291
277
262
289
320
330
314
314
298
306
349
377
383
380
418
472
481
427
400
396
449
476
450
410
410
430
435
418
404
405
436
450
440
425
455
516
527
527
481
460
459
514
548
513
462
444
451
440
409
384
381
417
438
430
414
452
513
530
487
468
469
525
559
531
499
511
521
518
499
476
461
465
467
447
430
463
530
533
469
457
469
531
556
520
471
474
506
519
497
481
475
505
522
504
479
518
574
574
572
517
498
502
561
584
549
516
523
542
548
534
522
518
546
558
543
524
563
621
632
586
563
553
603
623
594
578
589
589
606
600
574
562
567
592
598
572
551
587
640
655
621
606
607
662
680
640
599
613
635
636
619
613
627
654
652
620
583
604
640
631
579
560
564
616
634
600
574
590
613
614
591
572
564
582
584
558
546
592
644
638
590
571
562
599
607
565
543
543
561
587
588
560
538
542
573
576
548
521
549
599
588
534
519
527
577
589
538
504
516
533
525
514
509
512
536
547
528
528
507
549
597
581
532
516
511
549
559
518
488
506
526
529
517
509
512
527
532
512
501
543
598
581
523
499
509
556
574
540
507
507
512
509
486
465
471
487
490
461
442
480
529
528
482
472
487
532
546
515
494
517
540
538
523
510
515
537
546
546
522
501
533
569
548
502
484
507
574
590
557
533
540
544
534
518
511
520
535
532
508
496
540
592
579
533
521
540
598
598
613
573
558
575
578
564
541
527
537
564
572
553
550
600
642
624
581
563
572
607
605
566
542
556
574
574
560
552
563
584
582
556
544
581
622
617
590
585
602
649
649
604
580
588
592
585
560
543
560
576
573
543
534
586
634
615
584
574
591
591
628
619
573
559
577
594
588
561
537
543
560
566
540
531
585
612
584
527
491
499
551
559
519
501
519
534
521
502
496
496
512
538
539
519
516
555
594
573
538
521
544
582
570
522
493
500
504
499
482
475
485
507
513
501
507
560
600
575
527
498
515
553
547
495
480
498
514
508
493
482
496
508
514
498
506
555
587
556
519
504
529
567
566
523
507
523
536
526
513
513
509
535
559
566
547
553
600
640
629
608
612
661
727
753
731
734
783
839
880
918
960
989
988
988
988
987
985
984
985
985
985
985
985
985
985
987
988
989
989
937
831
748
673
582
460
346
281
302
334
320
309
316
366
407
384
330
322
357
388
401
395
389
408
429
428
408
424
486
514
473
436
423
465
507
492
441
429
450
462
451
423
414
440
458
452
433
454
512
527
527
476
435
429
474
519
518
489
502
535
547
532
494
472
482
492
474
445
460
507
524
480
447
446
493
531
521
479
471
489
489
487
476
462
463
490
513
508
488
506
576
602
563
524
508
552
586
572
533
530
539
535
520
507
505
522
533
517
484
505
577
594
548
519
514
549
581
563
524
525
549
565
563
545
542
569
583
585
573
586
639
658
617
594
585
627
663
645
597
587
587
604
606
585
563
557
583
604
601
579
603
675
698
662
630
611
635
649
613
571
575
599
609
602
587
573
585
592
582
564
564
586
649
669
626
604
600
638
662
644
612
613
620
615
590
565
543
558
563
549
525
554
594
599
554
540
538
583
612
586
542
549
578
587
573
550
534
556
571
552
517
529
592
606
553
527
519
555
572
533
476
469
487
494
479
470
469
490
500
498
498
483
513
566
569
513
483
467
513
538
516
479
482
506
507
493
478
465
484
497
482
464
486
535
543
494
472
467
520
547
547
520
481
486
507
516
501
490
487
504
524
517
492
520
576
585
542
521
513
555
555
505
460
460
473
469
438
414
420
457
477
469
459
508
573
586
544
515
502
545
564
527
489
491
503
506
484
473
477
505
523
514
505
561
621
613
542
513
511
559
559
566
532
502
513
538
543
526
516
515
534
542
520
505
551
618
620
560
536
532
584
610
575
538
543
563
565
545
529
532
532
557
559
544
539
583
644
649
602
582
586
637
649
603
559
554
559
544
511
492
494
511
511
494
481
529
592
592
538
521
524
576
591
551
523
528
537
523
495
468
456
483
504
496
482
518
558
548
500
480
476
520
532
502
478
491
508
507
492
488
488
500
522
524
504
493
547
595
585
532
507
499
537
529
466
416
440
472
482
474
464
463
481
486
461
440
489
556
547
499
499
482
489
547
560
515
474
476
501
496
472
451
449
469
481
465
462
517
568
555
507
490
499
542
546
502
488
520
553
565
554
547
568
596
611
604
611
696
784
798
790
821
877
958
990
990
990
989
989
988
988
988
987
987
987
987
987
987
987
988
988
990
921
869
858
808
701
604
524
433
344
268
224
235
272
294
293
293
343
389
383
347
344
364
425
435
405
396
418
441
441
442
423
409
415
431
434
409
390
433
483
468
433
423
440
492
493
447
417
433
457
451
425
409
415
431
430
402
397
448
496
472
430
424
440
490
494
456
435
454
482
478
461
452
463
482
479
446
433
486
537
515
477
455
468
525
537
510
497
510
510
522
521
503
482
485
502
491
459
454
509
551
539
501
483
501
539
530
482
470
499
518
509
486
474
488
508
508
487
495
495
553
584
557
524
518
547
591
593
550
529
542
557
550
532
525
543
556
546
527
531
587
630
599
558
541
573
625
622
571
561
586
599
590
568
560
577
600
608
592
593
635
655
613
570
552
579
624
626
588
569
587
600
589
567
562
574
566
563
537
537
534
575
605
572
538
523
549
590
575
522
514
558
577
573
554
543
551
562
558
533
532
577
598
560
517
497
529
578
573
573
530
518
524
531
523
510
498
505
513
497
457
457
507
534
502
472
467
502
542
527
477
460
483
490
469
444
429
447
456
457
443
454
520
542
499
457
438
474
518
504
443
431
445
450
431
398
382
389
405
414
394
409
460
490
458
432
421
451
481
481
469
431
432
461
465
450
431
435
461
474
472
446
462
515
542
498
456
443
474
513
505
457
442
463
474
465
442
437
463
463
483
483
464
475
527
544
508
472
461
491
524
511
469
470
496
505
495
481
475
499
515
500
466
482
545
567
534
514
504
545
575
557
508
496
517
517
496
472
461
485
513
507
476
490
543
566
518
486
477
531
580
572
535
535
558
553
517
476
450
450
467
485
482
467
500
553
572
534
506
500
541
580
565
522
517
538
551
541
520
511
526
529
500
459
461
502
515
463
439
439
442
490
528
510
466
452
469
478
450
424
421
452
463
453
429
454
506
525
483
453
435
483
523
507
469
472
493
485
455
438
436
462
469
455
436
457
500
513
472
448
439
482
505
490
457
463
479
489
470
451
437
450
452
449
442
473
530
539
490
490
461
452
498
527
501
460
465
480
477
463
452
443
463
467
442
417
455
514
529
493
482
495
559
593
577
559
580
625
661
661
669
680
717
788
845
871
893
968
989
989
989
988
988
987
987
987
988
988
988
988
989
953
894
853
799
729
652
608
570
470
338
260
220
267
316
309
283
293
325
329
307
297
305
339
361
354
340
378
442
454
411
391
391
439
453
428
402
417
447
447
444
423
400
392
422
434
421
414
445
487
474
416
393
380
427
447
428
407
418
432
423
400
392
396
423
436
429
416
458
458
517
501
427
393
382
433
455
430
404
421
449
455
439
426
425
445
446
423
408
452
512
528
481
464
461
501
514
480
451
469
494
487
468
453
460
493
498
481
472
518
567
565
512
485
475
528
534
499
470
483
508
505
491
488
502
536
544
522
510
510
556
609
605
552
531
535
589
593
543
511
513
532
539
528
511
508
529
539
535
531
570
609
607
559
537
548
600
610
568
568
537
551
563
560
540
517
515
540
555
545
537
586
633
615
564
531
526
572
585
553
539
556
578
572
549
531
532
557
562
533
519
560
597
581
534
510
514
557
562
521
500
523
542
539
529
510
511
520
503
468
450
515
573
561
511
490
497
548
549
549
495
458
453
457
446
428
425
433
454
452
431
419
469
512
490
444
428
444
493
496
447
421
435
457
460
444
429
424
434
434
437
416
408
455
500
484
437
414
428
473
473
432
410
433
456
459
439
427
431
453
458
441
433
478
519
491
447
431
439
481
485
436
406
415
425
424
409
403
419
440
447
424
425
479
524
507
465
443
455
501
506
465
458
481
497
493
476
463
480
480
503
504
475
475
531
571
545
509
489
498
532
529
488
470
487
496
489
474
463
474
486
487
470
475
533
573
534
480
455
455
475
516
512
471
464
492
509
502
480
475
492
511
506
480
481
543
586
562
524
505
527
569
571
526
509
527
531
514
489
475
489
511
516
492
483
520
554
531
492
476
499
540
533
489
472
479
483
480
453
439
455
465
459
436
445
501
536
507
477
477
473
511
548
541
494
475
489
491
470
437
423
431
439
431
401
396
441
475
450
427
424
462
496
489
444
435
455
457
446
446
434
435
461
479
471
448
458
511
531
488
439
413
444
476
463
418
415
440
446
434
415
410
431
450
449
424
435
488
509
474
449
443
472
501
474
411
400
430
449
458
455
463
498
531
541
533
562
651
712
695
694
719
798
876
903
903
932
984
989
989
989
989
988
988
987
987
987
986
986
987
988
989
976
935
903
809
696
613
544
459
353
261
203
205
224
241
246
283
352
352
390
364
343
339
381
410
380
331
321
339
355
343
327
327
354
365
355
334
357
413
433
395
372
378
423
451
432
378
375
398
399
375
352
341
357
378
384
367
385
443
462
423
402
402
450
478
443
397
401
421
428
412
395
390
416
438
423
402
431
431
492
511
466
434
422
464
496
483
439
440
459
468
456
442
438
459
473
462
434
448
499
508
464
449
453
496
513
481
443
443
446
469
473
451
424
418
449
471
463
448
481
537
544
496
481
485
542
574
540
497
509
530
541
526
510
506
525
537
528
515
534
579
582
519
486
478
530
556
527
485
491
513
509
488
484
493
524
536
525
511
541
592
599
549
524
521
569
587
558
558
523
536
562
562
531
509
512
544
553
539
507
524
572
579
536
521
517
560
583
553
516
517
530
534
516
499
499
525
528
528
501
466
492
545
547
485
451
444
491
512
478
443
464
488
490
474
457
453
473
485
473
459
493
540
531
477
452
452
517
541
504
460
454
460
453
438
428
424
444
446
420
399
432
486
484
430
415
410
454
471
439
414
425
435
421
399
385
390
422
422
443
428
405
437
480
480
429
405
408
464
481
439
400
409
429
433
419
407
414
447
454
433
415
455
507
503
452
430
430
430
477
490
448
424
442
461
459
440
432
440
467
477
457
436
473
516
511
469
455
461
506
510
477
452
470
493
498
480
474
485
513
523
511
493
522
571
561
493
458
459
507
518
478
450
474
504
505
488
478
490
528
530
495
464
504
547
529
480
467
467
473
516
516
466
445
469
498
497
478
470
481
505
509
488
471
519
566
555
506
484
493
545
547
496
467
487
506
504
482
482
467
472
493
505
479
467
512
554
531
486
471
484
527
525
469
434
445
456
447
431
416
423
446
450
428
417
466
507
495
451
429
440
494
507
467
446
464
475
475
461
449
463
484
483
453
438
472
507
485
435
418
437
495
510
467
439
451
453
433
433
412
411
431
459
461
427
407
441
476
457
417
410
438
491
498
447
417
428
445
440
427
419
432
441
430
402
404
457
496
496
473
435
426
448
491
496
458
440
469
512
536
548
559
588
627
659
668
704
798
889
919
924
950
990
988
988
988
987
987
986
986
986
986
985
986
987
988
989
990
953
855
735
637
578
523
410
287
221
210
219
228
229
231
263
290
290
276
285
343
343
385
362
332
320
341
383
377
327
311
330
339
336
323
320
341
361
364
341
342
401
442
414
377
353
373
419
415
374
368
368
396
412
411
384
368
380
398
398
382
392
449
488
469
434
413
430
451
426
377
362
375
377
373
366
366
384
396
398
379
387
439
468
441
413
403
437
481
474
430
420
443
460
459
437
431
453
470
473
459
477
540
574
538
491
457
467
491
475
436
436
427
452
467
452
432
426
443
453
448
422
433
502
546
517
479
460
492
543
543
505
494
510
524
511
480
461
463
467
470
470
458
473
528
554
523
503
495
532
564
554
507
505
531
538
531
512
508
535
556
547
517
521
577
592
548
511
499
534
571
559
515
508
524
537
530
505
493
511
525
520
499
511
558
578
542
516
505
542
576
560
518
520
543
555
535
503
475
479
467
467
448
424
442
498
521
485
456
445
486
514
488
436
435
459
475
470
452
435
445
453
441
425
444
495
510
467
443
442
479
479
502
467
409
398
422
432
420
396
385
408
425
423
406
427
472
486
440
412
403
452
487
467
430
427
442
449
441
428
427
449
450
432
408
432
490
509
465
442
434
471
490
464
416
411
430
445
437
433
437
449
445
426
403
428
484
498
445
413
400
400
448
478
458
423
432
451
455
443
424
414
436
451
451
440
472
532
540
489
459
448
496
520
485
438
438
464
469
450
426
426
421
452
475
468
454
488
540
545
487
466
468
514
532
496
452
452
475
484
471
457
451
478
492
480
461
483
535
540
492
475
475
523
540
502
470
483
511
514
497
482
483
507
520
507
501
541
596
608
554
516
502
548
564
532
504
516
530
529
509
509
494
496
527
538
520
505
527
566
555
498
478
477
515
519
464
409
407
432
429
404
392
395
423
443
429
405
442
490
491
491
447
427
428
482
503
471
438
453
476
476
453
432
432
464
484
472
459
493
530
526
473
439
418
459
473
439
405
416
446
449
431
413
412
440
452
439
427
469
511
504
447
426
427
477
498
471
443
447
462
464
450
438
442
461
455
419
390
429
480
480
482
436
414
413
457
466
429
414
440
483
506
504
507
519
553
563
553
559
617
690
715
697
721
771
872
942
949
962
990
990
989
988
988
987
986
986
986
986
986
985
986
987
988
990
922
899
829
716
598
511
426
329
243
188
188
232
265
265
271
323
370
367
328
322
335
381
387
335
306
320
338
333
312
306
321
349
352
338
336
390
437
419
369
352
364
421
446
409
384
384
398
410
398
373
354
359
381
383
361
350
393
439
424
384
376
407
467
479
437
408
407
416
405
381
365
371
396
399
376
376
369
425
471
446
395
381
391
442
449
414
399
421
444
443
425
420
430
447
455
426
409
460
509
488
447
424
430
480
491
448
428
449
463
452
439
441
457
470
464
442
448
505
556
528
482
469
497
551
554
504
477
485
488
483
466
452
462
490
503
503
483
478
529
580
568
534
520
535
576
569
524
503
518
527
519
498
490
500
508
507
481
483
533
569
545
511
502
526
568
568
571
531
511
518
527
514
495
485
499
524
527
504
503
551
581
552
516
508
537
576
564
513
494
512
517
507
493
491
507
517
500
472
469
527
565
534
488
466
481
510
500
449
431
450
459
448
425
407
419
436
440
422
430
482
520
491
455
443
469
469
508
503
452
438
460
464
452
428
416
430
444
439
425
432
469
494
453
414
398
435
467
456
409
403
423
435
428
408
404
404
431
448
449
425
430
491
516
472
433
421
462
504
508
459
446
461
454
429
402
391
402
405
399
383
399
467
509
480
453
451
492
532
510
450
424
436
437
423
406
401
420
436
437
423
442
500
520
473
440
431
463
484
463
418
414
439
455
451
435
435
427
447
459
455
435
444
502
527
486
451
435
467
505
496
465
463
485
498
495
478
465
473
478
475
455
486
540
569
521
521
491
482
521
555
540
494
485
501
511
506
490
482
502
529
539
524
534
578
585
534
491
451
476
497
470
431
441
480
497
492
475
465
489
511
505
486
500
555
575
528
494
482
523
551
521
474
474
489
492
471
454
449
470
483
469
435
445
493
516
516
468
436
425
467
494
462
415
411
429
440
428
406
400
433
454
445
427
444
494
513
471
445
443
490
517
489
444
450
482
482
500
483
460
449
468
491
490
465
479
522
524
459
406
384
433
465
440
408
422
449
459
438
415
407
421
424
408
381
401
467
478
429
410
409
447
460
431
395
404
435
453
444
428
417
429
423
396
375
416
479
496
456
446
464
538
583
566
544
566
566
599
619
618
619
645
708
770
807
827
907
989
989
989
989
988
987
986
986
986
986
985
985
985
986
987
987
988
990
884
884
823
796
694
507
360
261
253
245
212
192
231
268
288
281
265
267
300
318
303
280
325
392
400
351
339
337
391
420
382
348
357
361
343
314
297
298
326
338
324
312
352
400
397
348
331
339
392
414
378
353
375
401
404
384
362
361
386
393
379
379
364
397
449
455
406
386
391
454
485
455
425
440
453
442
421
406
407
422
422
406
399
439
481
466
404
385
395
449
457
457
422
400
413
431
444
434
420
421
450
470
457
437
471
531
538
479
447
441
479
481
440
414
428
452
454
443
438
441
470
478
469
460
508
555
544
496
480
483
533
543
502
479
503
524
526
511
504
507
518
518
499
486
538
597
594
549
534
542
584
584
586
544
516
526
548
542
519
488
479
495
498
483
483
541
599
592
538
517
522
574
584
547
515
529
542
531
500
480
483
483
497
499
475
456
498
535
519
474
456
471
524
528
480
446
458
478
480
465
452
462
482
488
456
434
484
537
533
486
467
471
511
504
450
425
444
463
445
422
420
432
446
456
434
425
476
520
492
443
431
446
482
480
433
412
429
444
441
435
431
431
442
466
474
445
442
486
525
491
432
407
423
469
469
414
388
405
432
436
429
424
434
451
446
419
420
465
499
471
425
425
413
425
460
446
392
371
386
401
402
396
396
410
439
444
421
421
470
507
485
451
447
474
517
505
448
418
431
439
425
395
387
411
434
444
426
435
489
531
500
462
450
493
549
546
489
464
460
448
434
420
410
424
450
464
450
459
517
555
526
526
491
471
495
526
513
461
454
490
509
496
470
456
469
479
480
449
450
512
546
516
473
454
469
497
487
439
424
445
462
462
463
449
452
486
507
502
473
471
523
565
540
504
495
530
576
562
513
507
532
543
530
504
489
508
532
544
523
526
581
608
576
527
490
498
522
504
448
433
456
478
472
453
448
470
494
502
484
503
544
557
516
478
470
502
526
493
430
409
419
419
426
423
413
407
426
440
442
431
455
513
536
498
464
442
470
501
483
435
424
441
445
438
408
391
407
434
438
423
445
445
506
527
480
441
421
453
485
465
417
412
436
450
441
419
417
447
468
461
440
449
504
510
459
434
429
465
498
473
423
415
437
449
435
412
402
425
436
423
390
401
462
488
454
433
432
489
530
524
502
521
570
604
613
632
664
723
779
802
813
813
873
968
989
989
989
989
988
987
986
986
986
985
985
985
985
986
986
987
988
989
941
913
847
711
570
436
370
324
254
254
193
211
259
290
277
245
229
257
279
279
265
311
377
394
340
311
309
358
385
357
319
330
363
374
356
342
335
351
361
348
326
337
390
399
363
341
332
383
413
392
353
352
367
378
363
349
345
367
377
367
350
384
443
453
403
383
381
445
484
484
460
421
427
449
458
442
422
412
431
448
446
420
434
482
485
425
404
397
439
465
444
414
427
457
472
449
428
420
444
444
450
430
407
437
507
520
473
461
453
496
512
484
446
448
477
489
466
442
429
456
470
452
423
455
517
515
455
437
443
504
535
508
479
485
510
522
516
507
504
533
540
526
506
543
588
581
527
498
481
527
547
516
489
507
532
534
512
499
504
504
535
538
516
498
535
582
578
520
499
501
553
576
544
510
519
537
541
522
509
507
528
537
522
504
548
605
605
554
539
539
536
580
589
543
496
500
511
494
452
418
402
420
431
433
440
487
547
548
504
492
504
554
567
517
471
468
482
482
454
416
394
408
420
411
397
428
475
481
440
426
432
478
488
452
429
447
464
455
423
407
415
434
437
412
390
428
479
479
430
430
409
417
462
472
431
403
409
425
429
413
400
410
433
437
416
407
444
485
472
428
413
425
481
491
446
420
446
462
452
452
430
416
419
441
447
426
418
463
513
513
464
440
438
473
486
451
435
459
486
479
456
436
436
454
453
427
415
466
525
505
455
444
463
520
536
499
475
487
494
472
447
431
427
428
435
432
438
494
540
514
456
439
451
504
506
462
431
447
468
468
476
465
464
482
498
501
466
447
485
531
514
469
459
482
520
513
463
439
455
471
475
468
461
470
496
507
506
512
560
560
610
585
525
491
500
536
532
489
469
488
508
515
494
477
486
496
493
470
473
525
562
542
508
494
515
565
569
525
504
518
531
525
508
497
513
529
521
481
460
489
509
478
437
420
448
495
490
440
419
436
445
442
427
420
427
438
436
411
410
410
467
506
482
444
437
469
500
501
460
439
457
468
463
441
432
441
447
426
391
388
443
484
469
431
415
448
501
502
460
460
447
465
481
471
450
433
438
451
443
402
399
459
506
472
445
435
461
491
488
438
420
442
449
433
406
397
414
434
430
399
402
458
488
459
436
434
470
524
529
498
504
549
579
589
593
613
661
711
739
733
768
865
929
931
930
952
989
988
988
988
988
987
986
986
986
986
986
986
988
988
989
983
953
893
769
659
563
487
399
307
225
200
214
232
235
232
244
280
312
312
308
278
288
352
388
360
354
362
401
429
415
363
349
363
369
361
337
333
355
370
363
342
348
404
424
391
369
357
393
420
400
361
366
392
406
394
368
360
385
404
399
380
388
453
475
438
401
383
414
445
424
378
374
396
406
393
381
384
412
412
432
425
408
428
488
509
484
459
446
483
509
480
427
418
433
441
436
430
426
447
465
451
431
456
521
535
495
477
471
471
514
538
512
466
463
485
492
489
475
470
497
504
486
458
479
537
547
499
481
483
530
558
535
479
476
497
505
489
471
470
500
513
501
483
515
571
595
566
537
519
561
593
563
522
518
534
534
522
508
505
532
544
533
518
547
616
625
573
542
542
522
567
602
580
544
546
564
568
546
532
526
540
547
521
488
507
566
576
527
499
486
528
553
533
496
501
520
530
508
508
480
460
482
501
494
473
492
548
557
494
458
454
500
521
489
456
464
479
484
477
464
450
465
476
459
440
468
514
515
465
441
433
475
489
455
414
411
433
441
426
412
413
440
448
432
410
427
468
481
447
438
443
490
496
449
401
396
403
396
396
374
368
374
406
418
400
381
415
472
482
430
410
410
456
476
441
402
419
451
461
443
426
416
434
438
426
407
448
507
507
513
457
429
415
456
463
433
409
433
461
466
453
434
425
451
461
437
412
448
506
513
464
443
449
497
524
505
476
483
504
499
464
436
426
443
449
426
411
464
525
530
479
463
461
503
521
488
461
478
500
502
480
459
459
482
495
490
479
517
517
554
543
491
469
472
521
526
482
450
459
475
477
462
446
453
480
493
478
476
524
572
564
502
478
481
530
548
510
482
482
501
525
520
495
477
485
506
516
503
488
524
570
558
497
473
483
532
539
504
478
491
506
496
458
435
441
459
463
449
438
483
525
512
461
447
447
500
517
483
467
487
512
509
475
443
442
444
422
384
355
390
443
442
403
387
397
450
469
430
430
408
430
451
456
442
432
437
449
450
427
413
456
515
504
462
441
446
492
497
452
422
439
459
457
436
421
424
448
466
466
448
441
482
526
507
468
457
472
519
534
487
461
468
475
459
424
396
392
414
431
419
426
481
543
548
537
551
596
669
702
689
694
733
777
811
836
868
921
970
990
990
989
988
987
987
987
987
987
987
987
989
986
947
912
844
754
681
641
597
597
524
383
287
274
282
260
241
248
284
341
351
310
291
317
330
320
311
311
331
353
359
346
344
387
433
416
377
364
385
385
424
413
374
356
372
390
393
375
359
367
390
398
381
385
438
475
448
413
407
432
470
453
404
393
415
427
430
405
387
402
416
417
400
402
455
489
456
421
408
445
495
495
451
442
462
467
453
435
411
423
441
434
412
418
475
512
480
442
430
430
464
510
508
467
468
499
515
508
490
477
484
485
471
443
447
503
534
505
468
454
485
533
525
485
489
522
540
531
506
506
475
471
477
473
450
457
522
559
523
490
487
521
556
548
501
491
512
521
522
516
512
528
543
550
535
549
610
626
599
577
571
608
648
640
596
583
591
584
561
532
507
517
531
538
519
533
588
614
570
531
511
543
568
549
503
497
520
528
525
525
514
504
519
526
511
486
502
554
572
532
501
483
514
551
530
475
461
481
495
485
467
454
464
474
467
451
471
532
542
542
496
466
455
490
517
509
468
467
488
503
505
490
473
488
485
455
416
432
479
508
468
431
407
436
462
447
408
414
435
443
440
437
433
439
432
407
378
399
465
489
443
400
380
404
423
407
372
379
400
405
394
385
388
419
440
434
411
431
494
494
507
448
414
409
457
487
459
411
407
427
438
432
418
415
439
454
441
417
432
482
500
458
427
413
457
485
459
420
432
432
457
456
442
428
428
455
472
463
438
458
523
535
482
456
444
484
516
501
470
475
503
519
508
493
486
513
519
500
481
506
558
554
505
482
470
504
532
504
463
465
485
492
470
453
458
492
510
502
471
497
541
541
492
473
463
503
527
496
453
453
464
494
507
489
472
472
504
513
494
479
514
572
577
524
505
501
543
569
533
489
488
499
496
478
465
471
495
501
488
488
472
491
536
535
480
452
449
499
522
486
450
458
471
461
434
412
401
432
444
430
417
451
504
511
466
451
455
504
524
491
456
462
475
471
445
423
424
448
458
437
415
443
487
480
424
400
391
445
464
429
395
415
445
456
442
435
437
457
467
467
451
434
470
527
522
466
442
439
487
503
466
436
451
476
478
457
440
444
461
466
443
417
439
483
475
425
419
439
494
494
520
501
498
539
589
614
620
630
658
713
752
773
799
871
955
990
975
980
990
989
988
988
988
988
987
987
987
988
989
989
990
903
824
813
805
735
600
492
387
347
301
229
202
230
281
294
279
272
283
310
326
311
301
349
421
424
386
380
399
399
455
464
413
374
379
383
372
346
334
336
357
362
341
328
372
425
413
372
362
375
427
433
393
375
399
418
408
387
378
378
384
408
419
403
391
433
475
454
410
401
416
467
475
427
403
416
436
428
411
401
417
444
441
413
385
428
481
470
428
418
441
507
523
488
469
489
500
488
458
441
456
490
506
490
470
494
521
493
440
423
435
491
505
468
439
452
472
479
468
468
466
471
485
479
457
458
515
563
545
503
484
496
544
545
499
482
504
519
509
489
474
484
508
521
506
506
560
598
575
575
528
507
527
575
583
540
521
538
551
547
527
511
512
531
540
520
524
572
612
581
543
529
555
603
602
552
527
543
540
519
483
456
464
485
500
487
492
545
577
547
504
483
509
563
570
522
492
497
502
484
459
450
464
480
477
453
455
504
535
535
506
472
457
482
526
516
470
457
478
494
481
457
440
457
478
476
446
449
492
511
465
431
421
459
503
497
440
422
431
431
442
447
438
425
431
439
430
402
419
477
508
473
441
423
447
481
468
419
407
431
441
429
399
384
396
413
414
394
409
456
485
455
431
423
459
490
468
413
404
428
444
440
417
405
426
440
440
427
448
508
529
488
461
451
481
512
495
437
420
420
440
448
438
417
405
420
426
426
411
421
480
514
483
454
443
481
522
511
469
467
494
505
498
478
465
482
496
488
465
465
478
535
558
508
472
460
501
530
512
467
460
489
498
488
471
465
493
520
521
502
520
569
574
525
506
508
552
587
563
520
508
515
515
499
468
448
454
462
462
453
483
543
553
510
481
464
505
540
532
505
513
539
542
517
481
460
479
492
481
481
464
485
535
543
495
461
447
487
507
478
428
428
454
466
457
435
428
443
452
432
405
429
496
515
475
451
448
492
520
520
498
451
443
465
475
463
441
434
456
463
444
424
454
505
513
472
446
432
479
510
485
436
423
453
457
443
424
416
434
441
416
384
414
475
497
460
447
445
485
507
480
449
457
476
470
447
421
405
423
424
397
373
397
456
468
428
408
403
452
452
485
470
447
464
499
528
536
541
562
617
654
659
661
713
807
860
852
872
911
990
989
989
989
988
987
986
986
986
986
986
986
985
986
987
987
988
989
920
805
723
701
650
540
400
318
267
229
204
202
219
267
299
298
295
344
403
408
365
347
344
393
401
352
303
298
317
320
309
308
311
340
351
350
347
392
439
434
382
359
361
419
437
395
348
353
375
371
348
336
336
340
368
382
370
355
394
443
442
393
378
382
436
458
420
387
396
418
419
400
397
407
430
432
412
394
426
481
477
435
435
424
423
464
477
442
413
432
462
470
454
439
433
448
447
423
411
452
513
514
470
457
453
491
493
448
423
443
469
481
474
463
466
479
486
471
459
497
548
542
494
473
477
521
527
495
475
499
531
543
520
493
489
503
496
464
459
506
550
545
545
500
486
495
548
558
514
479
497
521
525
518
514
524
543
548
522
519
572
617
602
553
533
544
602
612
571
541
544
553
553
538
512
489
489
502
509
489
481
531
582
571
528
512
521
565
570
513
479
493
507
500
478
462
471
494
502
490
487
532
568
535
469
433
434
474
467
417
395
413
436
440
427
426
445
462
459
433
423
467
514
490
442
413
425
476
491
457
439
448
448
456
442
414
403
416
437
439
412
400
450
506
494
455
442
452
497
500
453
423
431
447
444
432
423
433
445
443
420
411
411
452
499
478
435
413
434
482
475
416
395
418
438
429
403
387
399
426
440
435
444
496
528
492
446
418
434
466
465
420
411
440
460
448
424
414
432
454
458
434
430
474
510
483
448
439
460
499
490
435
419
446
465
465
453
450
467
485
484
463
463
460
508
553
526
490
481
506
542
534
488
479
498
505
482
448
435
453
475
482
466
471
526
558
521
487
481
508
544
530
530
483
479
507
523
517
496
485
502
516
514
493
499
552
578
547
507
492
523
560
540
484
488
525
538
530
507
492
495
497
485
456
466
515
537
504
476
464
495
538
528
479
467
483
492
480
454
442
455
472
463
430
433
497
528
491
457
438
470
508
508
499
455
438
448
452
444
429
425
452
472
474
462
480
535
548
510
469
434
440
458
436
392
391
414
422
415
400
399
424
424
444
441
417
421
476
500
464
433
425
470
505
491
456
454
477
477
469
453
448
470
485
459
411
408
461
489
452
437
429
463
476
440
388
386
415
426
414
398
395
416
426
424
413
454
538
577
555
551
562
629
681
682
662
685
731
762
779
798
835
835
888
928
942
952
989
988
987
987
986
987
986
985
985
986
986
987
988
989
976
890
839
772
686
575
484
431
362
264
210
210
207
279
329
321
289
294
317
334
332
322
322
349
365
351
319
326
380
400
349
323
321
376
415
397
370
382
400
403
379
353
339
347
352
336
315
351
427
438
388
375
376
427
452
425
386
395
415
418
401
377
364
385
398
381
360
383
430
429
382
382
363
362
414
446
422
383
393
412
413
395
382
380
410
428
422
407
442
494
499
446
425
426
486
515
485
446
447
465
464
464
440
421
418
441
450
431
414
450
513
523
471
451
451
503
522
490
454
465
494
506
483
472
477
509
519
503
489
535
604
624
581
566
556
594
592
533
480
480
484
474
447
428
432
462
470
458
459
515
581
590
539
519
516
567
583
541
508
523
539
539
539
525
508
504
526
533
510
490
531
575
575
531
514
520
578
588
542
506
518
535
532
516
502
499
515
514
489
469
501
501
540
539
498
485
487
540
558
525
492
502
513
502
478
457
448
458
465
444
428
471
517
512
459
441
446
488
495
455
437
454
484
497
486
475
479
498
501
470
431
458
502
493
432
404
411
457
470
432
404
424
446
446
432
425
428
443
442
417
398
398
432
473
462
426
415
419
454
458
413
390
406
428
427
408
391
392
411
420
406
398
448
496
487
443
426
434
478
477
431
431
412
436
461
464
448
436
443
461
463
434
416
461
504
489
442
419
436
489
495
447
422
446
469
463
442
426
432
457
471
457
450
493
530
508
460
442
455
497
499
454
437
466
485
485
464
453
464
482
483
455
438
495
545
528
482
472
493
536
532
532
489
467
482
488
476
455
443
451
472
480
470
469
517
559
538
498
488
503
538
528
484
469
488
501
492
483
479
488
500
500
498
471
469
520
565
533
498
496
527
578
582
543
537
557
564
554
527
507
510
517
497
456
446
485
512
485
451
445
481
528
525
473
452
480
492
481
456
436
435
443
437
407
400
452
494
460
418
412
442
488
478
431
413
433
442
440
421
415
432
432
453
453
434
439
489
524
494
451
439
459
496
492
442
426
446
459
457
448
444
466
489
492
463
458
495
516
485
449
433
433
467
509
485
418
397
423
436
426
397
377
384
396
395
379
395
458
496
462
436
429
462
500
482
430
413
430
434
423
405
407
438
463
469
471
509
589
637
631
620
629
692
769
796
785
820
876
917
945
967
990
989
988
988
987
987
986
985
985
986
986
986
986
986
987
989
990
933
856
770
670
563
470
370
279
203
187
250
300
285
275
280
328
361
340
292
288
310
316
309
309
310
322
348
365
350
322
340
385
399
350
316
311
363
407
387
343
346
364
375
369
356
354
374
395
399
390
413
462
478
427
398
380
405
417
383
332
326
351
370
373
366
370
404
427
414
381
391
443
464
428
402
392
429
459
441
404
411
430
438
438
427
415
413
432
447
438
421
437
491
509
471
445
441
489
520
499
451
440
443
434
419
407
409
438
455
445
424
444
490
490
511
474
461
465
519
546
518
477
478
498
510
499
482
471
498
521
518
505
535
578
577
525
491
465
499
525
498
455
459
488
510
503
493
491
518
528
515
495
529
594
608
557
533
529
574
597
575
544
549
572
578
563
542
523
542
547
528
510
535
535
585
585
526
503
507
553
572
543
503
506
520
516
494
470
461
486
503
495
480
514
576
582
522
487
471
510
518
480
448
448
466
494
502
480
456
441
454
461
448
429
459
512
510
460
440
434
480
502
477
443
455
464
462
437
413
408
433
442
430
413
446
496
490
439
422
423
475
490
453
422
444
474
475
454
436
435
463
469
447
422
454
487
472
426
408
402
452
462
431
431
404
417
444
451
429
413
423
462
473
444
418
450
486
475
425
404
404
456
482
450
406
411
432
428
412
408
422
452
466
466
450
431
474
517
503
454
434
439
491
498
465
438
457
476
469
440
421
425
451
461
442
426
463
510
498
454
443
458
518
544
511
479
487
506
502
477
464
468
486
493
473
458
499
547
539
483
466
480
526
537
494
463
471
473
456
445
433
434
462
462
479
466
458
498
550
529
480
464
477
532
545
500
476
499
517
508
486
481
492
513
518
498
484
528
568
554
514
500
510
510
552
546
503
487
516
537
529
514
505
518
537
537
512
494
542
585
565
514
490
490
537
551
510
495
516
526
511
482
474
481
491
485
450
433
479
517
493
439
414
423
465
461
413
392
414
434
431
413
399
404
420
430
426
429
474
522
499
456
437
437
461
500
497
443
423
444
460
455
439
428
440
460
456
433
431
483
527
498
452
435
461
512
522
477
458
466
472
447
413
413
391
400
423
428
409
421
478
521
503
472
458
473
509
503
447
422
442
448
428
401
386
391
398
394
380
399
462
524
512
491
498
541
608
636
614
616
659
707
731
746
771
829
888
931
941
980
989
988
987
987
987
986
985
985
985
985
985
986
987
987
988
989
962
897
811
703
610
551
467
339
242
195
221
277
300
278
279
298
308
302
295
298
327
346
342
319
324
372
405
405
378
342
323
352
391
385
342
331
351
359
353
333
330
350
362
361
338
353
417
449
419
387
368
399
422
410
366
357
380
388
378
371
370
388
405
405
375
377
422
457
423
388
373
409
452
440
396
393
419
438
430
410
405
425
437
429
397
398
453
453
470
438
414
409
445
487
479
440
430
438
447
442
422
413
431
448
454
453
466
512
522
479
448
433
480
518
508
466
458
458
471
470
455
436
431
455
474
471
453
489
548
573
532
502
501
542
573
552
507
506
524
520
506
484
487
518
529
523
508
523
575
592
556
530
516
555
575
542
497
486
499
513
507
501
503
527
535
516
486
501
560
581
540
513
507
555
587
572
534
534
532
550
555
544
527
514
519
514
492
464
487
543
553
498
466
460
508
536
515
479
485
497
499
488
472
463
480
493
474
474
446
475
529
547
499
473
463
503
526
501
458
464
484
485
463
435
418
431
431
422
403
439
502
513
461
435
424
467
493
474
432
436
458
460
433
401
388
412
425
411
388
410
457
461
414
395
390
441
468
447
418
433
452
458
440
426
430
462
470
470
448
421
444
493
489
425
397
391
441
461
431
402
420
447
444
420
399
395
411
419
409
397
432
484
488
446
437
441
497
497
516
479
436
444
478
492
477
459
456
480
484
460
438
465
506
499
447
431
431
487
510
480
446
456
475
480
465
456
458
478
476
446
426
452
505
509
465
454
459
505
516
477
448
454
462
457
437
434
443
470
486
481
470
510
558
557
506
486
482
482
523
528
487
457
466
482
477
454
439
443
464
479
473
466
513
559
555
503
483
486
541
562
527
497
518
536
531
512
500
500
506
524
520
489
467
507
555
543
495
479
486
538
551
521
504
524
550
548
520
483
465
481
490
476
467
513
556
545
491
473
474
515
513
464
428
428
440
434
415
407
409
441
460
445
425
466
523
514
462
438
437
488
507
455
416
430
448
443
422
422
410
415
440
452
441
432
476
522
516
472
450
451
493
491
444
409
427
443
436
418
408
413
428
425
403
393
438
485
474
474
429
414
428
475
492
449
426
442
456
453
438
429
451
479
490
469
460
507
550
518
452
414
393
419
411
365
354
395
422
428
431
442
466
502
529
527
548
620
698
714
710
732
790
868
915
906
921
981
989
989
989
988
987
987
986
986
986
985
985
985
985
986
987
988
988
989
884
772
706
627
501
355
267
216
188
177
159
167
241
294
279
249
250
297
356
374
344
337
364
364
382
371
344
336
348
368
368
338
320
357
387
357
320
301
318
365
375
340
337
363
381
372
351
345
350
363
362
343
345
395
432
403
369
362
398
443
438
389
373
399
413
404
386
377
399
424
425
400
405
462
501
461
407
373
391
424
416
376
373
373
393
408
410
404
408
430
438
437
418
429
479
507
471
439
424
458
492
485
440
433
448
458
450
443
447
474
498
491
459
459
453
498
506
462
427
417
460
509
504
458
453
476
498
502
486
479
504
529
525
499
499
551
561
521
483
473
503
536
527
484
478
503
515
505
484
477
500
518
517
501
514
583
606
565
529
514
551
585
569
520
504
527
538
525
506
505
531
545
535
535
513
527
594
607
555
511
495
528
555
532
477
467
486
495
480
454
442
468
490
493
473
482
538
569
533
501
488
524
556
556
534
478
456
463
460
446
425
408
427
442
436
429
461
520
545
502
475
473
513
535
498
447
445
454
444
410
376
361
387
413
409
391
416
471
487
450
433
427
467
491
464
410
401
418
432
419
398
385
403
423
419
396
409
453
464
415
385
376
423
423
457
438
405
408
431
442
423
406
406
433
439
426
411
454
508
521
459
423
410
443
464
443
405
400
411
415
398
385
385
385
422
444
433
425
460
517
534
481
451
435
477
502
477
444
449
465
463
450
433
431
460
483
471
450
479
527
529
478
450
438
476
486
454
427
443
458
455
433
423
430
464
484
468
442
469
519
519
466
441
432
478
500
468
436
460
496
506
484
466
466
463
487
493
477
457
487
533
540
498
477
461
499
521
495
463
474
490
487
469
460
470
503
515
496
473
505
559
562
509
509
488
479
520
535
501
475
500
527
529
509
492
487
508
512
492
472
513
566
562
503
480
481
543
564
525
481
474
485
483
466
453
446
453
452
432
415
451
496
482
417
394
404
455
458
416
390
414
449
457
438
424
427
454
457
430
410
452
513
516
516
465
440
437
487
495
456
421
443
472
476
459
446
440
444
438
413
392
434
494
498
454
435
433
481
491
453
424
434
447
447
448
443
450
481
508
508
476
443
471
506
489
426
391
398
451
458
415
386
403
429
433
420
407
415
432
432
407
396
447
504
495
458
462
502
569
598
574
566
607
645
663
670
680
703
760
816
847
889
982
989
989
989
988
988
987
986
986
986
986
986
986
987
988
989
989
970
899
798
711
687
654
529
361
264
227
247
251
223
216
249
288
304
294
285
298
325
335
332
343
343
408
455
434
376
347
354
387
375
313
284
302
330
345
336
331
344
373
391
371
361
407
451
430
385
374
396
452
460
405
373
378
379
376
363
353
370
398
405
387
393
447
488
456
418
409
431
473
479
444
432
445
460
446
415
399
394
406
408
388
388
377
429
470
444
410
394
425
475
475
432
421
447
467
465
439
424
436
457
473
456
456
507
545
518
483
469
489
528
521
521
473
459
482
489
479
464
454
465
485
485
458
459
511
545
516
488
476
506
561
569
527
511
533
549
547
534
535
559
571
557
510
490
526
550
528
507
513
546
588
583
540
523
538
546
538
523
522
545
554
545
530
540
591
626
589
553
538
557
592
592
568
508
483
501
511
506
497
497
518
541
541
512
506
550
564
522
489
477
520
563
550
501
493
519
528
509
484
474
487
487
496
475
439
444
489
512
484
461
446
476
513
494
446
430
452
470
464
449
447
478
504
507
482
488
529
537
486
435
411
451
496
488
440
428
451
449
416
385
374
399
413
411
394
419
470
492
454
421
403
431
448
422
376
372
400
413
409
393
385
385
412
436
432
409
425
478
508
469
442
429
470
493
463
404
387
401
410
391
370
373
404
422
414
394
413
479
497
454
433
433
439
494
524
501
449
432
442
448
438
416
410
433
448
439
415
434
493
520
481
464
457
504
534
517
477
475
494
503
487
466
454
463
463
447
424
441
491
507
469
448
439
492
528
503
459
462
477
480
475
467
465
493
503
487
464
484
538
549
505
505
481
468
513
540
513
476
484
508
511
491
476
467
480
485
470
439
458
519
529
487
474
478
522
544
521
483
487
516
529
529
521
499
492
513
527
515
500
533
583
593
533
496
483
532
550
517
478
474
486
483
456
440
437
465
469
443
427
463
519
523
468
448
449
500
525
502
476
485
501
503
484
462
447
456
456
432
410
438
480
481
429
407
407
462
494
461
423
428
439
439
442
436
424
420
444
453
435
422
464
511
511
462
445
448
497
506
467
435
446
457
457
446
431
418
435
448
437
424
467
467
524
529
471
441
434
480
482
438
412
423
439
446
439
428
422
443
442
409
389
436
485
481
441
439
458
522
548
521
496
520
557
576
584
603
633
692
735
747
760
837
920
942
912
929
968
989
989
989
988
988
987
987
987
987
987
988
989
990
904
904
875
877
822
725
646
572
533
437
317
236
229
253
265
257
254
280
318
332
318
302
339
379
374
334
321
327
382
402
368
368
344
364
388
389
368
349
358
370
369
345
330
375
431
430
390
376
382
426
435
393
360
372
391
389
371
365
376
401
415
400
395
443
497
486
440
421
434
482
488
443
414
423
434
422
404
398
407
426
427
406
398
448
495
481
437
424
443
501
507
507
464
444
463
475
460
445
440
450
471
481
464
459
514
563
545
495
471
474
528
531
480
458
484
505
506
490
476
475
483
483
479
448
433
493
541
522
482
468
484
539
548
518
506
524
531
519
498
488
499
525
532
517
520
573
613
586
544
521
523
556
561
519
496
515
532
541
529
527
539
549
553
539
543
594
635
617
574
556
580
625
619
567
548
567
579
569
557
555
570
570
586
577
535
521
554
576
535
489
471
494
553
566
524
502
523
543
543
524
506
504
510
502
471
456
495
530
498
459
452
452
478
519
515
464
448
473
484
472
443
425
432
446
445
423
431
483
511
483
444
426
450
491
484
444
430
448
452
440
413
401
416
439
444
434
437
497
537
504
461
435
449
480
467
410
379
389
396
390
378
375
398
417
416
404
413
468
501
464
433
433
424
455
484
463
413
400
421
434
433
423
421
433
443
436
416
422
462
487
466
436
418
443
484
476
432
422
439
435
412
412
391
387
414
439
451
433
447
506
528
485
447
439
478
529
526
490
485
508
520
508
471
442
449
460
447
419
431
478
502
482
461
447
486
526
514
469
458
473
483
474
457
449
468
486
488
480
499
557
574
528
494
484
516
548
531
484
482
504
516
516
506
483
467
479
487
472
449
468
529
556
519
493
479
517
551
543
509
509
524
522
509
495
497
526
544
537
510
529
588
588
606
565
532
520
564
598
581
534
512
517
499
465
436
422
436
445
432
405
426
477
489
443
417
405
454
488
476
448
450
462
467
451
424
418
446
468
460
443
457
506
512
461
433
425
473
507
492
459
459
469
464
437
411
413
444
456
445
422
445
445
505
527
485
459
444
486
505
478
440
444
468
479
475
467
466
489
495
481
461
478
522
534
472
440
432
474
494
459
407
407
400
417
425
412
397
397
423
439
431
412
438
494
508
454
437
438
495
528
511
489
525
576
600
600
597
610
660
707
726
743
818
922
964
951
953
974
989
988
988
987
987
986
986
986
986
986
987
988
989
990
955
941
883
772
681
594
529
442
328
328
228
204
222
241
238
240
254
288
295
275
263
305
374
391
355
342
335
374
396
369
330
346
368
367
357
357
364
395
407
407
388
367
401
447
446
394
374
365
411
424
390
361
365
387
393
381
368
363
386
398
385
372
405
458
455
408
401
414
466
486
450
411
419
439
441
429
416
415
438
446
424
401
432
478
475
432
424
435
492
507
462
419
432
460
458
432
406
408
433
433
438
424
407
458
508
506
454
436
439
485
506
477
456
475
499
499
480
457
461
491
498
478
465
517
566
551
503
488
496
496
542
553
513
489
503
521
514
505
499
505
524
526
502
483
527
574
576
538
525
528
581
592
557
534
552
575
571
546
533
533
550
551
530
525
560
591
578
528
509
526
578
582
539
515
529
543
543
525
510
512
529
528
504
489
533
576
559
510
494
494
509
557
559
507
468
478
496
491
475
463
463
478
484
465
463
515
568
540
480
449
457
493
494
451
427
448
480
487
470
470
459
467
486
494
470
459
512
552
528
479
455
456
475
458
406
391
420
443
442
425
415
424
444
445
417
405
450
487
469
431
416
436
484
481
438
411
424
430
413
393
392
413
436
434
405
403
441
466
435
388
377
409
460
467
426
405
429
445
433
433
406
392
411
442
451
431
426
479
520
498
458
443
464
502
494
453
441
465
474
464
439
431
459
481
472
431
418
460
491
491
476
454
442
472
518
512
465
456
470
479
471
456
450
472
499
493
467
466
505
535
506
474
467
495
533
521
470
454
472
478
470
458
449
459
467
460
443
458
515
551
529
505
495
518
553
539
493
477
493
496
492
481
470
481
500
498
477
483
536
536
563
539
513
515
561
596
574
506
484
503
515
502
475
466
484
504
510
494
508
555
586
546
501
483
517
552
543
493
480
480
498
512
503
472
459
475
491
478
449
449
495
506
468
432
423
464
506
495
448
441
466
476
460
426
409
425
445
449
428
438
487
504
463
424
410
452
501
482
434
423
455
479
478
453
443
461
463
448
428
440
486
494
454
429
420
458
491
479
441
441
438
455
451
437
417
412
437
461
458
435
459
522
542
503
475
458
479
495
473
433
433
460
468
454
435
434
462
477
462
462
438
451
509
528
492
465
464
521
570
575
557
582
630
660
675
692
722
785
837
866
885
955
989
988
988
988
988
986
986
986
986
985
986
986
987
988
989
990
920
842
750
701
684
613
458
329
251
249
269
253
237
261
294
309
291
271
272
304
327
327
335
330
357
416
434
398
380
371
414
440
421
384
378
385
379
344
322
314
334
346
345
335
368
423
430
377
356
352
405
405
433
408
383
401
426
430
407
381
372
399
422
421
410
445
500
508
448
417
393
430
446
419
377
385
408
418
406
391
381
397
401
387
368
394
468
490
447
433
430
475
500
473
433
432
454
452
434
415
412
445
465
462
456
492
536
530
474
453
452
452
508
526
493
467
482
500
500
475
448
437
459
460
443
434
491
559
564
507
490
492
543
562
524
489
498
525
533
510
499
499
502
526
531
515
496
528
577
579
530
517
532
598
628
600
565
572
586
581
558
539
525
529
530
509
494
546
600
589
525
495
496
536
538
505
488
509
530
534
520
509
509
531
533
503
490
537
604
594
529
491
477
514
523
487
453
472
504
508
482
482
458
448
475
488
467
446
477
520
507
458
438
437
476
486
448
417
436
451
448
430
423
428
451
453
429
411
453
499
490
490
441
427
430
475
482
441
418
433
454
451
428
420
432
464
472
448
427
475
520
505
462
457
469
513
513
462
426
434
442
417
388
373
390
422
427
398
381
428
485
475
439
426
440
483
492
456
433
451
470
467
438
414
417
438
439
408
397
453
506
506
502
460
441
443
498
499
443
403
421
449
450
429
419
428
451
456
434
423
464
510
496
461
454
470
517
518
474
452
467
467
480
480
462
456
467
490
492
477
474
520
566
551
513
499
514
551
544
479
449
471
502
498
471
462
483
505
505
478
465
516
556
543
510
493
513
565
562
513
498
518
531
524
508
491
486
496
489
461
458
517
560
540
501
484
509
554
554
509
490
490
506
523
514
496
476
477
494
503
488
491
539
577
550
501
480
493
519
504
442
414
430
440
434
423
423
439
461
466
454
454
459
501
525
491
452
446
478
511
481
425
409
438
459
460
442
426
443
469
475
453
452
506
548
520
476
446
464
492
479
430
418
440
452
439
411
402
419
436
429
404
407
466
509
486
448
430
461
506
511
464
438
447
465
474
464
467
493
516
513
513
479
466
508
523
480
438
411
435
470
458
412
402
420
424
418
415
431
473
520
548
549
581
660
710
697
681
696
768
841
841
875
879
918
983
989
989
989
988
988
987
986
986
986
985
985
986
988
989
989
990
910
790
720
676
601
483
353
263
226
225
222
219
257
333
371
341
310
302
346
386
375
340
333
357
368
360
341
339
361
377
377
357
367
423
448
413
390
383
425
425
454
420
368
360
378
373
352
333
323
346
365
366
347
356
412
436
397
374
365
412
451
437
401
403
422
432
420
397
385
385
412
435
445
430
443
488
497
450
417
406
444
476
450
404
403
432
448
444
426
423
453
480
477
458
472
514
522
469
440
426
464
499
477
433
440
466
465
433
407
386
405
427
425
411
441
509
539
505
478
466
505
533
514
478
480
503
517
506
487
487
483
511
527
523
509
533
585
595
538
508
496
536
565
533
484
482
507
522
517
509
514
549
562
549
529
558
613
631
580
580
552
544
597
618
592
561
569
585
585
569
538
521
544
552
528
498
516
556
552
494
474
466
516
553
538
505
507
516
515
501
480
467
483
495
483
456
480
535
539
485
462
459
511
521
489
456
456
469
470
451
426
411
428
445
443
435
473
525
518
518
462
436
431
479
508
486
448
450
467
468
448
431
424
441
446
428
406
435
497
506
459
441
434
480
496
460
427
434
452
452
458
429
410
410
441
445
421
403
433
484
485
436
429
423
463
475
441
410
423
454
454
428
405
401
424
432
409
391
437
496
495
441
416
408
451
467
441
430
448
452
448
432
427
434
460
479
458
435
471
526
528
481
459
460
505
518
480
446
447
447
465
474
466
453
459
486
497
473
440
471
529
530
481
467
471
528
536
498
469
470
482
473
458
449
462
496
502
480
466
466
514
568
561
506
488
496
543
544
496
461
474
503
512
490
476
485
515
520
490
457
500
554
552
508
489
493
547
560
515
490
500
520
530
521
515
504
523
537
523
499
534
567
555
509
494
503
548
557
501
455
463
480
486
472
462
458
475
477
460
460
449
480
513
490
439
429
444
495
511
462
431
441
452
431
413
407
429
446
445
416
402
454
508
500
462
449
451
483
488
488
448
433
449
461
451
430
430
448
468
469
439
422
473
523
510
467
450
470
533
542
498
475
492
508
501
468
431
415
426
423
405
412
467
513
494
460
451
479
534
540
485
441
437
446
435
407
389
406
428
440
424
430
491
551
545
524
531
574
637
637
659
644
674
737
796
826
848
876
922
965
990
989
989
988
987
987
987
987
987
986
987
988
989
989
959
877
787
722
680
680
642
565
449
337
300
290
256
233
239
279
338
349
308
302
344
373
384
378
372
382
397
390
365
366
405
429
398
367
366
397
431
415
363
342
358
374
375
366
358
372
391
391
370
372
428
460
427
394
390
420
462
448
396
384
413
429
427
411
402
402
417
420
405
380
386
437
471
446
419
405
430
469
469
432
424
449
459
442
420
415
435
455
446
413
411
456
490
464
435
435
425
458
505
501
451
433
456
467
462
449
443
466
485
481
453
457
510
531
490
452
441
483
531
522
476
463
478
490
481
464
461
482
501
503
484
490
550
574
528
493
486
525
559
546
499
493
514
525
519
502
496
510
520
516
498
517
575
601
569
569
549
544
572
600
576
519
510
530
531
522
504
498
521
538
530
506
519
581
609
573
547
538
592
634
607
548
529
538
550
550
544
515
504
521
525
509
484
496
548
568
517
476
464
507
544
530
480
478
500
505
493
476
471
492
503
479
441
449
503
505
453
423
419
467
510
491
453
451
462
462
441
418
408
432
444
431
409
421
477
501
465
439
426
458
480
458
416
425
456
456
464
447
423
415
437
451
442
421
451
507
514
464
437
432
478
501
471
415
405
423
429
420
400
387
415
434
426
407
435
435
497
518
481
462
455
498
525
497
444
440
465
467
448
437
439
470
490
475
439
452
498
508
460
439
428
469
493
466
425
422
436
442
442
427
423
455
474
465
443
470
521
526
478
460
462
516
544
512
474
485
500
493
473
469
475
511
537
527
502
502
518
563
561
509
484
475
516
540
514
472
474
491
499
491
487
500
531
546
525
508
547
602
604
555
529
528
567
584
544
544
492
477
480
489
481
464
459
486
499
486
470
505
559
557
508
494
498
543
557
518
481
483
499
493
464
441
430
449
456
438
424
461
508
510
465
448
451
495
499
456
420
435
459
469
457
442
437
466
476
459
443
477
527
528
475
452
456
511
531
531
493
457
457
457
446
424
410
412
442
453
439
424
468
524
525
476
465
473
525
538
498
457
466
480
472
448
436
428
442
442
452
447
439
491
543
539
481
461
468
509
515
471
430
428
432
423
407
400
409
441
467
468
465
525
582
579
541
543
560
624
663
654
662
719
786
834
855
888
926
980
989
989
988
987
986
986
986
986
986
985
985
986
988
989
989
931
819
726
660
660
589
483
348
253
244
270
256
229
239
268
328
348
312
304
341
375
374
354
340
340
358
362
337
321
373
430
414
368
357
357
381
433
440
393
359
371
394
396
379
369
376
394
400
388
379
426
466
452
412
404
415
462
466
418
394
414
433
427
402
387
397
419
423
401
397
452
492
476
435
419
431
481
492
459
453
482
507
505
482
460
449
444
432
407
399
444
485
473
435
435
428
454
501
498
455
441
468
487
482
467
462
473
492
497
470
456
506
546
527
486
469
494
545
547
508
499
527
549
541
541
515
496
499
514
520
499
493
542
589
567
532
522
550
604
613
579
565
581
596
583
554
526
518
524
516
475
465
521
571
556
528
526
554
601
602
555
538
562
586
585
559
534
536
542
539
512
510
570
606
574
537
523
550
591
585
533
515
536
550
550
552
532
525
540
552
553
540
550
599
615
569
517
499
516
545
535
486
480
508
525
512
483
459
464
476
472
446
454
520
520
562
541
514
506
533
564
541
485
469
482
484
476
461
462
483
495
483
443
425
458
483
445
416
413
453
489
475
431
418
439
449
435
414
396
412
433
439
424
429
487
507
465
433
423
449
479
465
422
415
444
455
448
431
420
440
460
459
440
449
449
496
517
480
446
435
478
515
503
461
454
477
486
481
469
468
493
507
496
471
490
556
582
538
503
483
510
534
510
461
461
436
446
441
428
413
416
450
476
475
458
484
544
577
548
522
509
550
588
571
519
508
522
529
513
491
487
506
512
511
496
513
574
582
536
507
504
546
575
546
485
468
490
505
499
484
482
508
525
518
496
511
570
584
542
516
506
548
585
574
574
539
543
572
586
571
547
529
543
553
538
512
520
573
596
549
521
499
522
536
497
438
433
454
464
454
443
441
467
479
479
461
433
454
515
530
480
450
443
494
531
521
483
476
494
493
462
423
408
435
453
449
436
461
518
531
484
457
450
496
518
488
446
448
474
481
468
456
451
472
491
485
470
494
549
562
513
481
457
484
495
463
430
437
459
466
452
438
433
463
463
481
466
445
468
515
529
478
458
457
503
525
493
445
432
430
430
415
410
432
480
507
510
514
562
636
667
636
641
671
671
762
828
848
860
911
981
990
989
989
989
988
987
987
986
986
985
985
986
987
988
988
988
990
872
792
728
652
535
410
309
266
231
207
205
266
340
360
322
309
312
364
398
380
353
365
394
399
382
367
373
412
436
432
424
459
499
484
429
393
393
363
394
407
367
332
343
366
374
366
367
377
403
417
403
390
430
484
478
418
392
388
433
452
416
391
407
428
431
419
419
410
415
446
453
433
417
463
513
514
467
456
461
504
510
462
420
425
449
454
436
425
431
458
464
445
432
471
521
517
467
448
458
515
536
498
469
488
505
510
494
479
482
506
517
505
494
540
600
600
555
533
537
586
595
548
505
502
516
512
512
490
475
474
502
513
496
489
547
609
602
567
555
562
602
604
561
538
549
553
539
514
499
504
530
542
523
511
563
614
614
592
552
543
549
599
607
560
534
554
572
571
558
554
564
580
584
564
546
577
609
585
525
493
505
558
578
540
511
529
550
542
520
510
519
541
546
519
503
553
601
577
523
495
506
553
567
528
491
495
503
493
474
466
484
514
522
503
500
551
551
591
561
505
480
476
512
513
476
454
478
495
483
452
423
426
439
434
416
404
461
514
492
449
430
440
479
479
439
421
421
445
463
461
442
433
450
475
477
444
436
486
527
505
460
444
459
505
508
463
441
460
473
459
435
428
430
445
453
434
426
470
511
483
444
434
458
503
505
465
449
474
489
483
460
440
440
448
454
441
446
498
540
517
480
466
489
534
537
500
500
484
501
512
506
484
468
481
506
504
471
471
521
558
532
498
494
529
581
587
540
515
515
509
489
464
452
467
492
496
496
468
479
530
576
557
527
513
536
579
572
529
512
527
538
535
521
514
536
565
571
538
520
558
581
538
498
486
522
571
568
516
494
521
540
531
514
510
522
536
533
501
498
549
576
538
493
475
511
548
533
474
459
469
470
463
443
435
452
467
467
468
445
450
510
543
502
459
429
451
489
484
445
442
470
487
478
467
468
483
503
503
474
483
533
545
495
457
454
491
491
515
488
432
422
439
449
445
430
427
444
462
459
429
434
492
519
496
480
472
510
543
524
477
467
490
506
496
462
432
436
437
430
407
422
482
508
471
446
438
472
494
467
415
407
430
440
440
435
444
480
511
522
521
560
651
690
669
665
685
685
757
835
858
852
892
968
990
989
989
988
987
987
986
986
986
985
984
985
986
986
987
988
989
927
832
766
671
527
377
377
279
241
217
205
209
260
345
376
335
304
300
344
372
351
313
327
366
378
354
321
311
331
348
347
341
368
430
450
407
378
367
409
434
411
374
381
398
395
380
365
361
382
395
385
372
399
459
468
417
391
386
436
472
463
427
431
459
461
445
445
421
396
399
397
378
363
400
454
467
414
396
388
435
464
448
423
428
452
462
452
434
429
464
480
473
460
486
534
548
548
489
452
438
486
510
475
436
437
457
475
472
456
445
472
484
465
448
492
557
576
526
497
491
537
561
526
486
494
525
541
534
517
509
528
530
510
493
525
583
580
529
507
500
552
578
548
500
506
534
542
534
519
512
528
538
524
508
546
604
604
609
546
523
522
577
598
573
545
556
577
575
546
520
507
528
535
517
499
534
586
588
534
513
516
563
581
546
509
516
516
535
539
521
500
501
523
527
508
479
509
556
550
501
491
497
558
579
540
500
503
521
522
505
484
483
498
488
458
436
475
526
523
471
448
455
505
514
473
445
462
487
483
457
434
434
456
463
451
430
461
515
515
465
435
428
468
484
448
411
411
421
439
435
414
397
396
416
422
410
401
443
487
475
422
404
412
463
478
437
400
408
426
432
419
403
410
447
466
452
452
438
470
512
500
446
429
439
492
505
465
444
461
479
478
462
454
458
478
480
454
436
479
528
519
471
451
460
520
541
504
471
476
493
486
462
446
455
484
497
476
469
513
558
542
491
467
467
501
501
452
432
459
485
483
465
454
458
479
483
483
465
462
518
569
565
526
510
522
580
589
546
525
546
555
531
489
462
456
475
486
475
474
541
605
594
558
542
549
590
590
587
527
486
485
491
480
453
446
464
487
493
474
471
516
563
537
497
480
497
536
541
491
453
462
483
484
462
442
440
459
465
445
440
481
514
490
450
442
462
514
514
473
454
469
479
467
442
423
429
450
451
434
434
490
535
501
449
426
440
440
479
490
453
438
464
485
484
470
465
478
497
495
456
436
475
504
469
419
398
422
468
475
432
416
434
457
451
433
431
431
449
466
465
433
424
475
519
503
481
475
486
514
503
443
406
417
423
413
402
409
438
470
479
465
476
546
596
589
571
574
633
719
754
742
772
840
892
934
962
990
989
989
988
988
987
986
985
985
986
986
986
987
988
989
923
863
801
728
634
634
536
439
342
260
187
175
239
299
298
285
289
332
381
382
337
324
349
373
374
355
334
337
351
346
327
344
405
441
404
404
357
332
378
428
417
367
355
379
393
385
366
359
378
390
391
371
369
421
456
436
412
406
437
470
463
416
403
427
438
437
413
386
389
396
389
367
376
443
481
446
412
400
437
482
469
420
421
443
457
460
455
452
476
487
473
441
446
490
499
499
455
434
433
473
504
490
444
433
452
467
464
452
454
473
479
466
432
441
500
529
493
465
461
498
541
527
485
476
495
495
500
484
468
464
493
513
515
498
509
566
594
556
527
518
562
611
604
562
551
571
574
551
519
515
542
564
560
528
531
586
601
557
529
516
547
565
547
501
496
527
552
550
539
536
555
571
567
546
561
609
619
565
537
530
571
609
577
521
511
511
529
528
506
486
479
497
501
483
464
486
534
547
496
471
469
516
543
531
493
489
506
511
491
469
468
488
498
479
451
451
469
530
546
498
478
473
505
522
489
443
439
451
447
419
403
402
427
438
425
408
431
486
497
450
430
424
470
497
470
434
432
445
444
428
415
409
432
435
410
399
434
493
514
469
441
425
464
489
464
423
422
447
463
448
437
432
446
455
447
447
426
445
494
500
448
419
413
461
486
462
435
447
468
467
438
407
396
418
431
422
406
435
492
499
448
435
428
473
498
498
471
440
450
471
475
461
447
446
466
475
464
449
480
535
541
482
457
454
497
508
486
454
462
480
491
490
473
467
491
500
482
457
485
543
547
498
481
482
534
550
522
492
505
526
531
516
506
507
524
524
501
481
514
577
576
520
497
493
544
544
559
524
496
506
518
515
496
481
474
488
485
460
445
485
541
549
509
498
497
540
560
519
472
470
484
473
446
429
424
424
443
447
415
397
445
509
517
476
449
443
487
497
457
421
430
451
448
425
410
415
432
434
426
418
454
501
497
447
424
427
482
505
467
438
455
473
468
443
433
425
440
445
425
408
450
514
509
452
440
449
507
518
479
444
443
450
448
431
417
417
423
449
456
434
426
478
537
529
478
449
443
487
506
464
439
461
479
462
437
423
430
457
468
443
426
474
537
558
542
542
559
596
670
712
699
698
760
827
872
901
931
972
989
989
989
988
987
987
986
987
987
987
987
988
989
940
902
852
780
709
642
580
494
391
292
223
233
280
275
235
233
268
323
332
300
275
297
325
338
332
336
355
387
397
387
373
417
462
438
438
390
367
365
399
400
351
326
340
355
358
342
338
353
384
391
367
355
401
451
442
400
389
407
461
470
423
395
405
422
422
423
408
395
408
430
439
421
408
454
501
480
434
414
433
478
479
435
423
455
475
469
458
449
459
482
483
455
447
489
513
486
446
429
436
484
488
449
427
445
464
469
461
453
470
492
500
479
477
524
559
538
489
456
459
498
494
447
430
457
457
480
480
460
455
478
504
515
487
478
530
579
563
538
537
567
602
577
521
494
509
520
519
506
500
515
536
536
511
513
513
573
617
595
555
532
553
600
605
563
547
567
581
581
565
549
553
570
580
556
545
593
626
598
553
539
574
620
598
530
496
505
503
484
461
459
485
517
526
500
497
549
579
542
501
482
506
559
558
503
479
485
486
469
448
438
460
485
488
459
459
469
516
537
494
452
430
463
510
497
445
429
451
462
451
432
417
423
432
416
393
409
466
499
475
442
420
441
475
471
471
423
414
434
445
434
424
420
433
442
441
418
430
484
516
491
466
459
484
503
485
434
420
429
425
396
377
373
389
396
389
367
381
443
483
466
444
435
465
498
475
423
412
435
441
427
410
401
417
425
409
390
411
469
492
454
428
417
457
502
502
492
445
444
474
483
472
454
447
473
491
485
463
465
507
515
474
450
445
496
531
511
464
459
483
490
480
468
470
498
498
510
503
484
498
562
584
536
498
478
509
535
511
469
473
495
497
476
455
445
466
483
491
476
484
545
562
517
486
480
522
559
541
497
496
517
517
505
493
489
510
523
507
478
489
536
547
499
460
445
485
522
515
476
476
492
486
462
441
430
430
447
458
457
449
470
518
529
474
434
425
468
492
466
420
411
426
425
410
395
390
422
440
433
416
436
488
496
454
436
436
430
475
507
482
439
442
462
469
447
424
425
454
466
454
434
456
507
510
463
446
440
487
520
490
439
432
448
446
424
408
403
428
438
426
413
441
491
497
456
438
436
488
520
500
460
468
495
503
485
472
482
520
532
520
497
507
558
581
551
551
556
590
677
730
735
744
792
858
910
930
955
978
989
989
989
988
988
986
986
986
987
988
988
989
970
866
809
766
701
701
603
506
401
336
277
213
181
230
301
319
285
284
296
358
381
361
339
357
382
381
366
351
348
368
367
346
321
346
401
411
363
348
347
401
423
391
358
372
401
414
404
379
370
394
405
396
381
417
473
483
440
425
430
473
484
447
412
410
416
416
409
381
364
369
405
417
401
387
422
475
487
440
414
408
457
481
453
447
460
444
444
435
434
441
462
476
462
443
474
474
524
517
466
443
445
496
511
477
447
460
485
481
460
442
439
468
484
473
463
498
548
547
501
486
488
540
550
505
470
489
522
527
507
492
491
509
512
497
489
544
602
593
539
512
507
548
569
533
498
504
526
525
508
488
486
507
515
497
485
485
533
581
573
530
519
530
577
591
552
529
547
566
559
534
523
526
539
537
514
499
541
598
590
540
523
528
570
580
538
538
509
526
548
545
521
501
493
507
503
476
464
510
556
548
509
500
513
554
560
515
491
513
535
527
503
488
482
488
487
466
448
484
532
520
469
446
452
493
484
425
388
406
433
440
418
406
418
437
447
427
411
458
504
496
451
430
435
477
481
481
442
423
441
458
450
426
410
414
426
419
391
373
421
472
468
430
407
410
465
473
429
405
428
451
446
415
395
400
427
427
436
420
418
474
523
508
467
449
463
517
526
494
475
479
478
460
431
405
398
405
409
392
397
457
497
470
434
429
460
514
518
468
444
466
485
480
460
444
446
454
455
445
450
504
541
512
468
453
476
524
530
485
461
474
487
478
459
440
449
449
475
488
481
484
533
576
554
510
479
487
530
529
486
476
501
520
514
490
472
485
500
500
482
484
532
577
562
536
523
523
551
592
583
530
497
507
518
500
468
460
473
498
502
474
472
525
552
521
480
462
482
527
526
480
457
472
478
468
447
433
433
429
417
400
417
473
511
475
432
408
432
475
472
429
415
434
445
439
422
407
420
436
438
418
426
477
508
477
440
440
424
449
496
488
441
432
456
468
458
440
432
449
463
454
427
432
478
509
482
451
447
484
523
518
482
470
491
496
480
480
452
436
435
441
438
416
417
469
483
439
400
389
434
476
466
420
419
448
476
485
478
492
535
569
584
576
596
664
717
714
709
730
799
880
911
916
949
990
989
989
988
988
987
986
986
986
986
985
985
987
988
989
972
936
841
720
633
561
450
450
311
214
161
161
187
217
226
275
349
381
351
330
331
376
415
405
356
340
351
357
346
328
334
353
360
347
320
332
401
401
425
389
367
356
395
421
406
365
361
386
397
388
366
362
392
404
392
370
382
443
466
426
396
382
420
453
439
398
396
421
435
422
396
383
418
441
430
407
423
476
497
460
433
416
445
465
439
392
392
415
417
409
404
408
432
444
438
424
449
449
508
518
469
445
441
484
508
480
431
434
458
466
453
436
428
442
454
447
428
457
531
555
515
492
481
522
542
515
476
476
480
502
506
488
470
470
497
508
491
463
487
552
573
525
503
497
550
591
572
535
544
567
571
548
526
515
537
560
560
554
577
621
617
546
507
494
536
557
533
490
495
530
543
521
499
490
511
521
514
499
521
566
575
525
504
498
536
553
521
521
481
490
511
506
482
461
452
475
489
478
454
477
531
537
480
454
448
489
505
478
444
446
464
469
453
434
425
451
461
461
445
426
458
520
527
472
438
425
469
493
463
427
442
465
468
446
425
417
438
456
450
438
468
517
520
459
431
432
484
515
483
443
451
473
480
455
415
407
421
413
386
363
401
458
469
428
416
419
461
480
452
420
420
433
428
406
389
392
414
414
419
409
394
436
496
502
451
427
416
461
477
447
416
431
461
466
447
430
422
451
458
448
434
467
511
508
456
438
436
436
487
502
468
434
449
470
470
451
438
440
464
473
454
440
480
547
554
500
482
486
531
550
519
488
509
540
542
525
513
510
526
533
511
487
519
567
541
474
450
446
484
497
474
453
466
484
480
462
455
466
493
504
491
476
511
568
563
510
490
490
493
531
538
500
480
498
516
503
475
465
473
501
510
491
474
505
549
537
486
468
471
516
528
485
453
470
493
488
466
466
443
439
464
466
441
420
464
510
505
459
441
445
490
504
456
416
425
441
438
420
405
410
435
446
433
423
472
517
503
457
449
457
504
512
466
438
460
478
467
441
425
427
453
462
435
419
467
516
508
464
450
448
491
499
458
432
456
478
479
479
465
453
459
471
467
448
440
488
529
503
444
414
413
448
447
400
374
393
416
415
401
396
407
429
443
444
452
510
583
583
594
576
584
603
663
686
673
682
737
800
837
860
890
943
989
988
988
988
987
986
985
986
986
985
985
985
986
988
988
989
945
847
748
671
606
508
376
278
277
293
273
253
265
295
352
370
342
321
342
363
362
343
327
335
352
349
319
304
348
348
392
375
335
321
344
402
416
369
337
352
374
369
339
319
335
365
369
343
339
391
434
413
380
368
390
437
442
394
372
372
392
414
409
388
369
376
389
386
359
351
407
449
429
393
384
411
462
473
432
408
422
431
421
404
392
411
433
441
419
411
455
489
462
421
412
446
495
497
457
444
474
480
458
427
407
415
427
430
418
429
488
526
495
464
456
487
531
524
477
477
464
475
484
465
442
442
466
494
498
479
490
557
608
577
534
505
505
525
511
477
473
489
505
508
495
482
494
517
521
521
498
500
555
574
535
499
488
521
573
568
523
517
539
553
544
522
512
524
531
524
501
501
550
568
536
498
480
508
548
541
490
475
497
504
489
468
459
474
490
492
466
467
524
548
512
479
463
492
531
516
468
455
477
486
479
456
443
460
475
475
474
445
450
519
551
508
465
448
479
523
512
470
467
482
474
450
429
419
432
441
437
422
444
502
525
490
457
437
475
475
516
506
451
428
437
426
401
380
371
387
401
398
374
378
430
455
420
392
382
422
460
451
406
399
426
442
436
416
411
431
451
446
427
448
511
524
475
440
426
457
490
477
435
435
463
467
455
442
447
472
490
483
461
467
505
517
476
445
443
443
485
519
500
453
446
463
462
440
411
405
432
451
448
430
447
508
536
503
482
474
511
546
526
483
479
504
514
501
476
476
458
475
480
466
452
473
527
533
484
459
456
502
541
529
493
485
502
493
471
449
447
475
491
483
466
486
557
572
524
495
485
527
563
543
501
498
517
523
509
494
483
501
511
496
468
484
543
566
529
502
490
530
566
536
485
476
496
508
498
498
484
477
497
519
512
484
487
533
546
501
471
459
496
514
480
429
428
451
457
441
435
435
455
465
452
428
453
515
537
537
495
479
472
510
530
492
440
442
456
459
439
422
417
440
451
439
419
443
500
515
453
417
408
453
483
462
420
416
436
445
426
402
394
425
442
436
421
463
522
529
469
435
425
467
490
462
425
433
458
460
444
424
413
433
443
428
408
435
489
489
503
447
422
419
472
501
487
459
475
499
511
506
506
520
559
600
627
643
704
794
851
851
872
909
990
989
989
989
988
988
987
986
986
986
985
985
985
985
986
987
987
988
990
896
791
754
690
540
372
275
225
198
187
201
226
263
280
264
250
288
355
369
328
321
335
392
409
371
333
343
365
381
367
359
363
385
394
372
348
380
440
451
397
372
368
406
410
366
327
327
336
359
358
341
331
336
363
367
351
334
365
413
415
369
360
367
429
453
421
387
393
422
429
423
414
407
420
426
404
404
379
419
476
483
430
399
390
439
449
413
397
419
443
444
428
416
421
452
467
455
442
486
543
541
487
468
458
489
485
437
404
411
440
448
438
432
438
465
471
461
459
505
556
556
505
483
489
547
569
533
499
506
509
503
484
474
475
497
507
507
489
473
516
563
561
515
496
499
551
571
537
504
512
529
515
497
487
495
523
518
487
465
505
549
542
502
489
488
535
535
543
498
464
471
509
534
533
534
537
561
571
550
532
586
637
619
558
540
544
580
574
530
499
509
529
517
484
474
465
480
488
469
460
501
545
520
462
443
448
497
507
474
453
468
492
498
480
465
466
479
472
437
410
444
493
483
436
422
439
439
492
505
465
436
449
461
455
433
415
418
436
438
414
402
446
501
496
450
427
428
467
467
416
377
388
406
407
400
397
397
407
431
436
425
433
486
536
522
479
465
470
505
492
433
400
416
424
412
385
372
384
414
424
403
391
432
487
473
440
438
455
514
522
478
452
473
492
492
478
467
470
486
484
449
431
468
499
483
445
428
434
481
491
456
437
451
460
447
422
422
417
431
454
473
460
451
495
540
519
483
470
485
531
525
470
441
464
492
503
494
483
480
489
492
466
459
516
554
524
524
481
472
490
542
549
497
471
491
505
499
475
461
468
487
496
477
476
524
563
535
491
476
503
554
562
522
513
537
555
551
531
523
545
577
585
564
555
580
601
565
511
475
480
523
526
474
449
460
477
469
447
430
439
463
471
457
461
518
544
544
498
453
432
445
489
494
459
448
470
486
472
449
434
455
468
471
451
451
501
531
498
457
440
460
496
494
439
417
444
444
456
439
406
388
403
430
440
421
424
483
514
485
447
443
473
508
486
439
424
440
454
445
420
406
426
447
451
432
440
501
537
507
468
444
457
490
491
453
447
464
473
453
421
400
412
429
426
402
416
463
487
454
420
405
425
471
465
440
460
460
500
511
513
514
533
577
619
638
637
678
773
848
865
882
920
990
989
989
989
988
988
987
986
986
986
985
985
985
985
985
986
987
987
989
942
838
771
706
582
410
294
245
230
222
225
241
283
320
331
317
321
372
394
362
331
323
356
396
382
328
312
332
346
336
326
322
339
359
359
343
352
403
417
370
337
326
372
411
396
347
339
363
372
358
333
320
343
367
369
369
352
360
414
442
409
383
374
412
446
431
386
374
398
413
416
410
411
437
449
437
412
432
482
509
467
425
401
430
454
454
434
384
376
403
421
418
398
389
411
423
421
401
422
487
514
484
465
463
509
547
530
478
465
477
467
442
417
413
438
463
463
433
441
507
524
478
450
447
495
531
516
472
469
490
502
500
493
493
517
526
513
490
505
570
590
551
530
519
548
548
567
544
504
501
524
534
523
502
489
509
523
513
490
512
579
600
552
518
506
548
580
562
521
514
530
530
515
506
504
504
534
546
533
507
518
564
570
522
493
479
517
541
531
490
485
499
499
480
454
446
473
483
474
455
467
509
521
481
461
452
498
524
500
454
452
475
479
457
441
435
459
475
466
447
476
530
542
490
462
458
508
537
510
458
456
465
456
418
377
377
358
370
378
374
365
393
459
472
422
397
395
442
469
448
414
417
432
440
429
414
411
445
464
450
424
451
504
514
459
459
429
424
467
497
471
421
409
413
401
377
372
375
412
428
411
389
424
488
507
462
438
439
493
518
490
449
451
468
469
454
432
423
448
458
443
422
450
508
513
461
446
441
479
498
472
440
455
484
488
465
440
430
455
466
449
438
480
541
555
555
505
485
474
500
491
445
406
425
457
469
453
442
446
472
484
467
451
486
541
544
489
470
465
511
535
510
479
492
519
519
516
487
455
446
468
473
452
441
489
548
561
513
495
497
544
555
518
484
498
521
521
503
493
492
512
518
498
476
505
548
545
488
462
460
519
553
520
477
485
509
511
490
478
475
502
510
490
471
507
570
568
520
504
503
548
564
520
470
462
462
478
476
453
428
416
435
444
420
393
418
483
486
435
420
431
478
497
462
426
436
457
463
444
426
430
457
471
456
439
439
472
529
524
467
439
427
459
464
421
380
391
419
429
413
391
385
411
431
417
401
435
488
496
459
448
453
509
517
473
425
424
439
446
437
419
420
441
454
441
434
471
528
519
458
427
412
447
444
398
371
398
427
436
430
428
445
493
528
532
532
539
606
683
707
689
699
730
817
874
879
891
949
989
989
988
988
987
986
986
986
985
985
984
984
985
986
988
988
989
989
914
789
717
645
527
378
267
209
198
193
185
197
263
331
327
282
268
274
336
363
339
328
348
357
342
324
318
331
354
361
341
330
376
421
398
348
337
345
393
408
367
331
344
364
358
345
341
346
366
373
352
342
395
445
440
385
357
368
429
429
440
395
375
402
419
407
383
376
391
417
420
398
378
420
468
460
415
400
411
460
468
430
407
430
454
448
426
398
390
390
411
420
393
380
433
496
491
459
453
475
520
520
468
433
446
462
460
447
436
440
454
457
432
416
460
512
509
472
452
463
507
517
478
466
495
516
502
488
474
479
494
499
485
472
520
567
560
527
516
524
565
566
518
489
507
530
535
522
513
513
531
550
555
536
535
580
613
579
522
499
516
566
572
524
497
513
529
528
507
480
481
502
508
493
491
548
590
570
533
533
518
533
573
569
515
493
515
527
514
478
456
460
472
476
455
449
501
546
522
477
467
490
538
538
487
459
464
465
451
433
428
446
471
471
445
436
479
511
480
437
418
446
506
515
473
455
473
469
443
413
411
425
441
437
405
398
443
476
446
446
405
390
413
462
471
427
407
428
442
437
420
413
433
450
449
428
429
476
512
474
424
403
434
490
493
450
437
454
465
465
452
418
389
391
408
415
397
391
442
472
443
411
398
424
475
481
433
411
431
440
427
402
383
399
419
428
421
436
495
530
501
463
448
471
505
498
451
441
469
480
467
453
454
468
481
478
448
434
475
498
467
430
421
452
505
512
472
459
472
472
484
481
460
456
485
507
505
462
461
524
564
547
521
511
535
562
530
459
431
445
458
464
463
460
478
494
491
470
481
481
537
560
519
485
470
502
535
522
475
462
489
509
499
478
466
482
502
500
482
493
545
577
544
509
497
537
582
572
520
511
541
546
529
500
490
508
513
499
467
469
524
555
523
485
465
483
512
496
458
453
478
481
468
447
437
460
483
478
454
454
457
502
517
475
441
434
475
510
501
455
450
472
478
461
434
413
437
464
464
444
455
518
551
507
472
456
485
514
493
493
441
438
460
467
458
439
430
438
451
451
426
431
486
510
469
441
432
465
502
490
455
454
480
488
473
448
437
455
473
467
436
435
483
492
451
427
422
462
499
475
426
425
454
459
446
432
438
475
505
508
498
531
610
643
617
605
622
692
762
762
776
761
799
869
924
952
968
979
989
989
988
988
988
986
986
986
986
987
987
987
988
988
925
886
820
734
647
565
497
497
405
315
234
224
280
313
285
276
290
345
389
373
326
326
354
369
357
342
341
371
377
361
340
368
424
442
404
383
379
423
449
427
392
393
420
421
402
383
383
418
441
430
400
411
465
473
413
379
368
410
430
406
366
368
403
420
419
408
404
404
436
456
446
419
440
490
504
465
443
435
478
497
474
439
448
475
484
471
449
447
474
488
474
449
481
526
539
489
457
457
450
497
519
487
450
463
488
494
471
455
456
484
498
486
470
501
563
570
519
493
484
538
573
558
534
542
562
570
558
549
534
551
564
559
544
567
606
594
537
521
523
571
596
577
536
538
562
571
553
531
515
538
550
537
518
548
602
605
557
557
540
533
576
611
596
564
570
589
590
570
561
565
590
601
591
575
607
659
662
609
580
573
621
645
610
564
558
572
566
566
543
519
514
536
540
525
510
544
603
604
552
534
543
587
600
555
515
520
535
527
506
479
461
472
480
464
445
485
557
567
516
486
476
515
533
503
481
500
522
519
493
472
467
473
473
450
418
438
499
507
463
445
443
504
527
492
448
446
461
461
459
440
425
417
440
451
438
428
466
520
514
460
439
434
489
507
473
440
449
468
470
454
445
453
486
496
479
471
514
514
563
557
502
485
489
540
558
510
472
474
491
493
481
465
454
471
479
460
438
472
510
496
448
439
447
509
531
493
463
475
495
496
478
467
472
494
500
481
463
499
555
549
499
479
479
527
546
519
497
519
539
543
525
503
505
529
533
514
496
496
530
578
574
534
524
537
591
610
575
534
542
558
550
526
507
511
537
546
527
514
552
597
585
537
515
520
564
568
523
523
491
507
542
551
533
525
535
564
578
552
529
578
629
619
567
552
562
610
603
554
524
549
569
563
536
513
511
536
543
515
491
522
570
548
496
482
490
544
565
524
492
508
528
525
507
494
503
520
523
501
481
518
563
554
509
488
497
545
547
547
494
464
482
492
489
468
450
454
481
490
472
466
505
554
540
500
495
515
557
569
530
503
517
537
527
497
478
474
486
486
494
483
473
518
560
558
517
505
519
565
572
531
501
499
514
519
505
498
511
521
517
490
480
531
576
545
492
468
479
531
547
516
498
524
554
564
564
582
620
669
697
698
706
770
856
889
893
919
975
989
988
988
988
988
987
986
986
986
986
986
986
987
987
989
989
989
951
842
764
723
691
608
447
335
296
283
274
265
264
294
347
372
353
346
395
436
420
389
392
392
420
471
486
445
426
447
461
451
425
418
429
447
442
422
420
468
511
487
449
439
463
514
517
475
453
467
471
465
442
426
444
466
470
446
446
499
541
526
489
472
488
534
536
489
462
478
489
481
470
475
501
522
516
488
479
525
567
536
491
491
478
504
551
553
510
497
519
542
536
520
507
524
533
531
513
503
537
568
542
509
503
533
585
585
537
522
539
550
542
542
528
524
537
547
541
513
522
584
627
606
558
532
555
595
583
540
534
573
592
582
566
563
585
600
597
575
579
636
664
631
599
594
628
667
651
600
593
619
634
624
598
574
584
605
602
578
579
640
673
647
615
600
630
666
667
620
607
628
635
635
617
588
578
595
600
586
559
565
628
660
631
608
593
619
646
624
555
525
540
551
545
536
536
554
564
556
534
537
582
582
604
566
538
531
560
593
576
520
505
523
525
513
499
493
516
527
516
484
490
543
583
557
529
522
563
610
595
544
523
525
518
499
477
466
481
505
510
492
507
558
574
527
482
463
499
532
512
456
440
461
483
474
448
432
444
464
469
460
478
478
545
575
541
510
495
535
571
546
474
452
463
473
466
444
435
455
465
458
439
451
514
545
514
489
483
519
551
535
492
492
487
512
523
510
487
475
495
504
496
474
496
563
586
546
513
502
542
578
560
512
502
526
533
530
521
516
537
551
544
524
540
594
606
566
543
535
580
620
605
558
551
568
573
556
531
519
539
546
529
506
518
574
598
567
545
539
579
609
597
597
547
544
576
592
572
540
526
540
551
534
510
524
583
602
561
533
532
586
626
605
564
553
565
566
561
548
542
567
576
576
570
554
568
625
640
595
567
556
594
613
586
540
538
564
567
547
521
507
522
524
503
471
483
546
566
528
495
477
512
538
519
479
477
490
499
485
474
471
497
517
511
493
520
566
574
526
503
491
531
559
530
482
480
488
480
456
451
457
485
485
495
491
478
502
553
566
518
493
485
537
568
540
497
500
516
512
492
482
478
508
531
525
494
512
561
571
517
482
473
473
517
542
519
470
471
491
496
482
474
479
518
546
551
552
597
677
709
678
667
674
736
782
772
745
770
821
858
877
906
945
990
989
989
988
987
986
985
986
986
986
985
985
986
988
989
989
948
858
764
679
618
536
417
308
286
312
324
299
300
300
306
376
417
393
357
369
399
415
406
395
385
396
399
380
362
404
467
477
430
406
408
454
478
452
415
417
437
442
428
428
417
418
446
452
434
405
432
484
478
428
414
421
482
503
471
434
435
458
451
428
409
403
423
425
412
401
442
502
518
476
462
454
502
526
498
464
471
486
490
473
459
450
472
492
480
459
479
522
525
480
465
458
500
516
486
459
475
497
498
498
486
478
477
504
513
502
490
523
574
576
527
508
509
565
581
537
503
518
547
558
545
521
506
523
528
514
502
547
609
609
619
576
558
558
607
626
586
549
554
580
581
569
561
555
572
578
553
529
557
604
609
569
560
559
601
623
593
564
578
596
589
565
545
539
562
569
547
529
573
630
620
563
537
538
585
594
551
516
524
542
542
524
515
520
545
553
534
510
545
545
588
578
525
504
507
555
568
536
508
523
538
526
500
480
480
507
515
495
479
523
567
556
507
492
491
527
530
498
475
475
486
506
512
499
488
494
519
521
496
479
515
562
550
499
482
489
532
538
483
438
437
441
433
412
403
411
431
439
421
412
463
519
517
472
450
453
503
519
486
458
464
469
466
452
435
430
444
456
432
417
467
527
524
478
461
470
520
524
479
479
451
468
484
476
448
437
448
473
478
466
454
494
541
525
484
471
486
538
545
497
472
495
523
520
501
486
488
506
506
506
482
474
524
571
556
523
512
522
563
564
517
488
505
520
504
474
459
482
515
525
505
484
511
553
538
494
480
505
550
550
505
483
504
526
523
503
487
491
507
515
506
503
557
610
589
544
526
534
572
570
522
500
515
524
524
506
496
509
531
531
536
517
514
566
607
591
549
536
548
594
595
550
532
549
567
558
534
518
527
553
554
531
521
569
607
581
534
507
501
501
535
528
474
443
456
466
458
440
433
444
461
458
427
425
485
539
527
482
460
473
510
519
477
449
458
475
471
455
449
461
477
474
445
437
482
527
502
466
459
480
522
519
475
453
468
484
481
461
452
468
489
490
468
465
509
548
530
495
475
475
485
524
530
494
475
494
512
509
500
497
506
507
482
438
427
461
495
464
420
403
422
469
471
436
443
487
519
535
539
539
547
577
606
603
578
593
668
754
776
789
822
891
974
989
990
989
988
988
987
987
986
985
985
985
985
985
985
985
986
988
989
972
930
830
688
568
468
365
285
216
185
215
264
291
289
302
357
391
371
348
341
367
414
417
373
360
377
389
377
377
363
353
367
384
387
368
380
433
458
423
383
369
397
437
422
365
342
357
370
375
371
369
385
397
401
380
381
427
457
457
432
398
375
402
442
435
387
370
395
415
412
392
378
392
408
412
402
415
480
504
462
422
415
455
498
488
441
428
449
461
449
430
419
436
453
449
427
437
491
517
470
441
438
482
526
518
473
460
481
495
492
476
463
476
484
478
457
466
516
516
543
508
475
461
496
541
537
489
485
518
537
529
511
506
518
528
526
507
517
579
614
585
555
539
568
599
584
538
527
527
547
563
562
544
525
532
535
520
490
501
558
576
542
519
511
554
591
576
528
524
550
567
555
529
522
539
544
528
496
501
552
578
545
516
505
542
575
557
513
502
512
507
489
466
457
481
495
482
455
469
529
548
508
478
467
496
528
519
476
476
472
498
501
480
457
451
474
490
468
435
446
509
527
482
456
449
483
515
493
444
443
460
464
457
446
445
466
479
459
459
430
446
505
530
485
449
425
439
452
433
395
398
428
432
423
409
404
426
444
433
414
436
495
521
478
449
440
479
512
492
447
431
449
439
418
400
403
434
456
454
434
441
490
507
465
432
413
452
483
457
415
419
445
455
445
435
428
452
468
468
457
438
467
528
546
499
477
471
514
535
508
465
467
491
497
480
461
453
469
487
491
476
503
553
569
514
475
452
496
496
524
507
479
489
511
519
501
483
476
492
512
510
490
510
556
559
501
474
467
507
524
498
457
458
483
503
505
489
478
499
500
478
456
480
538
552
511
483
479
533
562
538
497
500
523
538
533
524
519
539
550
538
516
544
588
587
535
511
497
497
538
558
525
481
487
511
519
499
484
480
508
524
506
473
492
547
556
501
470
459
499
524
500
465
467
490
496
470
449
449
451
494
504
488
463
479
523
519
459
432
427
460
474
439
401
414
449
467
455
444
440
461
463
449
435
470
528
533
474
441
432
484
504
473
437
440
457
457
449
444
440
460
458
441
421
443
500
512
469
450
445
487
500
467
435
447
462
458
435
435
421
420
440
450
434
410
442
492
502
458
433
429
479
500
478
468
498
535
574
589
592
608
651
684
692
700
763
848
881
881
871
893
933
990
989
989
989
988
987
986
986
986
986
985
985
985
986
987
987
988
968
858
762
716
631
482
336
264
230
210
200
208
227
268
294
288
279
322
384
399
371
364
366
417
419
365
323
321
328
335
329
322
321
347
359
349
341
378
438
438
436
377
350
346
399
423
392
366
391
412
409
388
375
377
410
426
411
387
423
470
460
403
380
376
418
430
393
362
373
373
389
392
378
366
370
402
415
398
383
421
480
486
443
423
421
474
487
443
402
406
419
412
391
378
386
419
441
429
415
462
514
503
451
433
444
496
509
471
444
458
484
486
470
454
456
478
495
480
468
515
559
542
480
461
468
519
529
492
471
471
489
510
518
513
503
507
529
534
503
480
515
570
568
522
503
520
584
604
568
536
544
563
567
550
535
531
545
544
525
525
500
550
597
572
516
496
504
555
572
528
498
514
527
519
500
482
484
503
512
488
474
520
573
565
518
502
506
549
554
501
469
484
512
512
495
476
478
495
496
462
449
500
554
549
506
492
499
544
544
494
457
454
448
436
410
393
391
409
422
422
409
406
467
518
494
442
421
427
473
483
439
416
440
463
459
437
422
427
443
452
438
438
495
534
510
451
424
435
491
491
501
458
431
441
452
439
408
386
389
403
408
394
382
434
489
481
434
417
434
484
488
440
404
416
431
425
407
399
414
440
443
415
410
469
522
503
456
433
449
501
507
464
447
465
476
461
431
404
405
428
430
406
398
448
495
468
426
412
441
441
492
498
456
439
457
468
455
434
428
448
482
484
469
471
516
559
541
495
472
482
516
515
477
458
472
483
478
462
461
461
487
518
525
497
479
517
554
524
479
461
479
524
523
485
472
492
504
488
456
442
454
479
490
475
479
527
567
538
507
498
517
552
546
502
481
492
507
496
479
479
493
509
506
481
475
510
547
522
485
478
502
546
547
502
491
515
527
519
503
503
488
493
500
497
474
462
508
555
526
478
452
471
501
484
435
425
448
466
461
438
420
436
458
468
457
466
524
551
516
516
475
460
470
490
468
416
409
437
443
440
420
401
404
417
420
402
409
460
500
469
437
434
468
500
479
432
413
421
431
428
417
414
434
457
461
447
460
522
549
506
463
443
469
502
484
437
430
450
454
446
431
423
443
465
457
419
404
448
475
475
436
397
376
403
437
432
406
417
459
486
491
488
507
551
591
614
618
654
742
807
806
816
847
920
989
989
989
989
988
988
988
987
987
986
986
985
985
