387
389
392
396
400
411
419
425
426
426
429
431
434
438
435
431
430
432
434
438
436
431
429
422
419
423
427
431
433
432
435
440
435
425
429
435
444
448
446
453
461
471
477
464
456
460
464
464
459
453
449
450
458
464
462
462
459
453
453
453
453
450
451
458
461
455
450
452
465
471
465
464
469
480
480
474
470
469
470
473
471
468
466
459
460
463
464
456
452
454
460
461
465
473
477
480
483
488
492
485
482
484
481
473
475
479
476
475
478
477
471
466
466
468
474
477
471
466
467
470
472
473
476
479
489
492
486
486
483
481
484
495
502
498
493
488
492
501
504
499
500
501
494
498
505
506
501
495
491
485
481
481
488
496
500
506
517
529
532
537
537
540
545
555
555
540
537
538
534
519
510
508
509
509
512
516
524
532
533
535
523
525
526
527
526
520
512
504
499
500
501
499
500
511
519
515
513
509
506
505
502
499
500
493
484
473
463
458
458
457
464
468
466
457
455
458
460
463
465
462
460
458
457
458
467
474
474
472
470
471
474
472
468
469
464
460
461
465
468
467
468
466
461
459
456
455
459
465
474
479
475
469
462
463
469
468
467
465
458
453
457
458
458
458
463
470
474
474
475
472
465
462
460
468
475
473
462
458
455
461
465
460
451
448
448
442
438
440
452
464
483
516
549
584
619
653
689
728
772
806
826
851
876
910
940
963
980
990
990
989
989
989
989
989
953
873
777
696
626
563
491
417
333
252
160
71
17
17
17
17
17
17
17
17
17
17
48
90
128
158
179
195
208
217
221
232
246
267
286
302
320
339
357
379
394
405
411
424
441
464
479
488
493
499
507
516
521
526
536
537
542
549
553
551
553
554
558
557
554
552
549
550
545
538
540
542
549
541
526
526
541
549
558
570
582
585
581
581
578
570
569
563
559
564
570
576
578
581
585
586
580
577
573
567
569
575
576
579
582
580
577
581
581
581
582
585
589
594
589
580
575
580
581
580
577
575
575
581
584
588
587
586
589
586
585
586
588
587
590
599
614
620
622
619
611
609
608
611
614
620
626
628
633
638
644
641
634
628
625
627
627
637
650
657
658
657
659
666
664
663
660
661
657
659
665
672
680
683
682
675
667
667
673
681
680
672
667
669
668
669
671
678
678
676
675
673
673
676
685
692
690
675
666
659
652
642
639
643
649
648
641
638
634
629
629
627
621
620
611
603
596
591
586
579
572
570
563
550
543
543
539
527
512
503
500
497
485
476
472
475
475
476
474
464
460
455
446
436
432
424
415
412
414
411
409
408
403
392
387
383
384
381
380
377
371
375
375
380
383
375
370
370
370
370
371
374
373
374
376
376
379
372
362
364
361
366
369
372
375
379
383
384
386
387
388
387
385
381
378
380
381
383
389
394
391
387
388
390
397
408
412
412
413
414
417
421
420
414
408
414
424
423
419
414
419
423
432
435
433
432
422
415
417
429
435
436
442
449
445
442
446
440
436
428
419
427
429
430
438
447
450
446
448
455
456
447
441
441
448
454
451
440
434
440
453
457
457
453
458
464
463
464
464
464
460
451
454
460
458
459
464
464
460
460
467
471
472
472
471
472
474
467
461
454
454
464
474
476
474
472
462
457
461
467
472
465
461
465
462
465
466
467
465
462
462
467
468
470
470
467
466
466
468
473
482
490
488
485
483
486
488
483
473
467
471
472
477
481
487
491
482
481
476
472
468
466
465
465
464
456
453
457
468
477
476
479
484
478
476
479
486
491
481
469
474
482
481
484
492
496
496
492
489
491
494
493
492
494
493
490
487
485
480
480
483
490
498
499
506
509
513
516
520
528
530
533
536
532
526
527
536
536
530
522
519
518
526
536
530
514
511
515
518
527
533
529
517
511
512
514
511
508
506
500
498
499
503
497
496
496
503
507
503
500
497
492
491
492
492
489
491
483
462
451
443
448
458
464
464
470
476
478
476
475
473
460
451
460
462
471
469
456
443
435
437
444
450
455
455
457
454
443
443
445
443
450
455
455
458
466
475
471
465
460
456
458
462
459
455
451
455
458
459
456
461
467
473
469
463
461
467
471
474
472
471
473
476
475
471
465
462
459
461
460
454
443
444
450
454
459
464
475
498
517
538
564
595
633
670
703
731
770
812
848
877
900
924
949
960
972
989
989
989
989
989
989
990
928
836
729
644
579
506
424
347
278
206
121
42
17
17
17
17
17
17
17
17
17
33
63
91
119
147
162
170
187
206
224
243
261
285
302
311
321
338
357
373
390
408
426
442
450
460
471
476
486
496
512
512
518
526
527
533
531
525
531
540
544
549
554
554
545
539
539
543
547
551
551
551
552
559
566
567
560
561
566
564
566
561
557
555
560
564
563
557
550
546
557
565
565
564
563
555
549
552
552
554
556
563
572
580
582
583
587
595
602
599
595
591
582
573
569
570
576
578
574
575
582
588
589
589
596
590
584
579
573
572
575
584
588
589
582
584
586
586
594
602
608
612
612
610
602
605
616
623
627
619
612
609
611
620
627
633
632
632
634
638
631
632
639
647
653
662
660
662
669
669
670
673
676
684
692
689
685
680
682
676
668
667
672
674
671
667
663
657
651
648
641
640
651
663
666
665
667
676
681
679
675
663
656
650
638
628
628
624
622
622
624
621
615
608
595
595
594
591
586
581
571
564
560
554
545
542
538
536
532
527
524
514
502
493
481
474
457
443
441
438
429
423
415
417
420
419
414
416
416
412
413
412
407
396
375
362
356
366
368
367
368
370
371
371
367
371
372
371
372
373
375
379
374
367
369
370
367
371
367
368
370
379
391
379
374
380
384
388
390
390
384
374
382
396
397
398
396
387
393
391
380
376
381
386
395
395
394
401
400
395
392
398
399
397
392
393
404
416
421
430
430
425
422
417
414
413
421
427
424
418
423
426
430
434
438
441
442
438
434
435
433
440
446
446
450
449
445
438
425
425
434
441
447
445
441
435
434
441
448
452
451
451
450
450
438
436
440
447
450
452
453
454
453
449
458
468
469
459
453
459
470
467
455
457
463
466
469
463
455
452
450
450
452
457
455
447
450
454
456
460
463
461
455
452
459
464
470
477
473
468
461
457
460
461
464
467
472
471
466
465
460
462
471
478
475
473
480
480
477
478
476
481
478
476
476
477
477
469
469
463
454
448
448
450
454
459
465
463
465
470
472
477
481
487
488
487
486
486
489
480
469
474
477
479
479
472
471
481
484
486
486
481
487
489
489
489
497
503
508
514
516
519
524
525
519
513
509
502
502
511
520
525
518
515
517
518
517
513
507
511
514
516
512
509
511
516
505
500
497
490
492
494
493
501
508
507
504
497
492
495
497
496
496
495
493
497
492
475
470
470
462
460
461
456
451
446
448
452
448
447
449
452
459
462
460
458
456
451
446
443
453
466
472
473
471
473
467
455
449
454
460
456
449
444
447
448
447
452
456
450
445
442
442
452
456
463
467
468
464
460
460
468
469
463
458
454
451
447
447
448
451
454
459
466
466
465
458
446
444
444
445
446
446
447
447
445
439
433
437
446
457
477
501
522
554
593
630
661
692
734
770
803
834
859
879
900
918
940
961
984
989
990
986
974
931
857
768
692
624
564
501
444
379
314
243
174
117
64
26
17
17
17
17
17
17
17
30
68
95
116
143
170
193
210
227
242
255
271
283
280
285
304
323
334
348
366
383
394
409
419
435
458
470
474
479
489
499
504
512
513
520
528
531
530
535
537
543
547
552
559
565
566
555
546
540
540
546
555
563
570
573
569
571
559
547
541
547
550
552
550
552
553
552
559
563
552
543
548
556
558
559
563
558
554
552
551
554
558
558
558
565
577
583
583
576
580
575
568
565
564
567
574
577
579
577
582
584
585
583
581
580
581
587
593
587
578
577
579
576
575
580
579
580
587
597
602
607
607
606
609
610
607
605
607
612
613
617
627
628
628
629
630
634
639
646
651
650
647
637
632
636
641
647
654
660
665
661
657
660
663
657
649
645
645
649
649
657
662
662
664
666
667
673
676
681
682
676
670
662
656
650
655
653
641
637
630
625
618
622
626
628
637
645
648
641
632
632
619
613
604
590
580
568
562
554
552
548
545
539
533
522
509
504
500
498
498
492
488
482
473
468
469
459
445
436
431
421
419
412
405
401
404
405
403
400
400
400
392
380
373
373
374
375
373
371
374
371
359
348
356
366
357
351
346
349
357
364
372
366
364
367
372
371
370
371
372
369
366
368
372
368
362
366
370
371
372
376
382
388
384
385
390
386
387
385
382
387
397
396
395
393
397
403
405
407
399
385
377
375
383
390
393
391
395
399
407
413
419
423
427
431
426
431
430
425
426
428
429
426
424
422
417
422
425
426
428
427
426
427
428
433
437
442
446
443
440
448
451
446
437
429
430
435
443
451
452
443
440
446
451
452
453
448
440
440
443
447
446
443
445
450
458
465
464
459
449
442
447
451
459
460
457
453
452
449
453
460
462
462
461
460
463
466
468
466
455
448
449
451
451
453
455
456
457
450
450
452
458
466
468
464
460
452
459
472
478
473
468
456
450
445
443
450
455
455
459
464
472
478
476
474
470
467
474
484
484
479
474
476
478
475
474
471
476
488
489
485
480
472
466
462
460
464
470
469
469
473
473
473
478
483
489
492
496
500
503
502
505
510
515
513
514
512
513
506
503
504
501
490
479
472
473
472
461
452
452
452
444
445
450
455
456
445
433
431
433
443
454
462
469
472
480
490
503
519
536
545
541
537
530
532
540
543
534
526
518
503
487
484
486
480
469
462
456
451
453
457
468
470
470
472
476
479
475
468
462
459
453
457
465
471
469
462
452
444
448
452
456
462
467
468
470
469
472
472
471
460
453
447
442
442
444
449
450
450
452
452
457
462
455
448
449
443
443
443
442
441
443
446
456
462
459
462
463
463
459
455
452
443
444
455
469
472
470
473
476
485
491
506
528
561
604
642
678
718
751
782
805
829
851
871
887
894
903
920
933
942
959
965
956
927
869
786
697
627
561
497
426
356
289
221
136
53
17
17
17
17
17
17
17
17
17
45
86
114
139
160
176
194
215
234
252
256
267
283
298
311
334
345
352
368
396
412
418
426
444
463
478
488
495
504
509
511
511
513
517
525
531
536
538
537
538
535
539
542
545
544
540
537
541
548
555
558
551
540
536
541
550
553
547
549
559
558
549
538
535
540
543
547
550
551
551
552
554
555
556
560
561
560
555
554
559
565
565
566
569
568
565
561
565
574
575
569
568
571
570
573
569
561
558
558
560
559
562
563
567
574
575
576
577
576
576
579
579
578
582
588
593
595
597
600
602
603
600
604
600
596
593
592
595
598
597
598
603
605
608
607
607
619
634
644
647
640
633
630
628
629
638
650
651
648
649
646
644
652
661
661
659
658
657
660
664
664
663
661
662
662
661
651
634
624
621
630
638
644
648
654
653
640
637
635
630
627
623
624
620
620
619
617
614
614
608
602
595
591
588
591
592
583
569
561
557
559
547
537
528
528
518
507
502
496
487
481
469
461
458
455
454
447
431
426
430
427
426
419
405
401
403
403
401
403
403

638
641
642
642
643
649
649
649
653
654
656
658
661
662
656
656
658
665
674
673
664
655
662
672
678
676
667
657
655
657
652
651
655
656
656
652
647
648
652
652
657
654
654
656
648
638
635
631
633
633
626
619
611
606
608
603
594
587
583
580
583
583
577
567
559
549
542
540
542
537
525
517
510
505
498
487
477
473
466
459
453
448
441
436
432
427
425
422
417
415
410
405
401
400
400
397
389
376
367
368
370
364
367
376
383
380
375
367
362
362
367
372
373
369
366
366
366
365
368
371
375
379
378
376
374
373
376
377
374
370
371
372
373
372
370
368
372
385
390
397
399
395
390
389
387
391
399
401
398
391
387
392
398
401
399
395
395
395
394
402
409
412
414
414
409
405
404
407
411
415
421
427
430
432
433
429
426
419
416
414
411
411
416
422
426
427
426
425
426
432
441
445
448
449
446
434
423
433
445
446
443
446
450
452
450
448
447
448
450
452
452
454
458
460
459
454
452
446
448
456
461
461
461
458
457
464
463
454
448
446
452
457
458
457
452
449
448
452
460
466
464
467
471
471
472
477
474
465
456
452
456
465
466
460
462
459
458
459
456
454
457
464
464
459
458
458
460
463
465
465
467
468
469
463
464
467
471
475
474
476
479
481
480
481
481
481
477
475
481
483
477
474
474
477
481
485
486
485
484
479
474
477
481
488
492
495
498
506
514
520
525
527
524
518
512
509
512
517
522
527
525
523
522
513
508
507
503
503
501
503
506
512
502
500
501
499
498
501
504
502
495
488
484
489
494
493
491
488
488
486
486
483
479
480
480
479
479
476
460
446
442
441
443
448
454
456
457
456
454
452
449
448
449
448
446
443
443
446
452
449
440
440
449
449
443
446
445
449
456
459
457
458
460
466
467
461
456
451
446
444
442
446
458
460
453
453
453
451
453
459
459
457
455
455
455
459
464
467
468
471
465
456
450
449
452
448
440
436
437
443
446
448
449
449
445
450
452
461
479
500
524
545
573
609
640
673
704
734
766
793
816
837
858
872
885
902
920
930
946
960
956
932
881
807
722
646
578
518
459
390
323
256
187
110
43
17
17
17
17
17
17
17
17
23
63
91
114
149
180
195
211
223
236
253
266
280
298
316
331
350
365
374
385
401
414
428
441
452
464
477
491
499
504
501
503
505
513
521
523
529
535
543
548
548
549
547
541
541
543
550
563
563
556
552
554
549
546
546
550
556
568
570
568
562
555
552
553
552
553
553
553
551
548
546
547
554
562
563
565
566
568
573
573
569
574
574
569
562
560
564
561
557
557
564
571
578
576
573
571
571
571
573
572
571
570
571
575
576
581
585
587
585
579
572
578
588
592
594
599
600
601
599
602
604
609
613
608
601
599
603
604
608
613
621
623
626
627
626
628
634
637
637
635
636
638
640
639
638
634
635
644
649
652
655
655
653
653
654
661
664
662
658
665
673
673
668
666
660
652
645
643
648
649
644
638
640
642
640
635
630
630
627
620
616
615
615
616
612
607
602
595
596
592
588
584
581
574
568
567
566
558
551
550
548
542
531
522
515
502
490
483
479
474
469
468
468
467
459
450
441
436
433
429
422
418
409
397
385
382
388
391
391
393
396
397
394
388
381
379
379
377
377
380
381
373
369
368
373
373
370
366
363
361
361
359
358
363
370
374
375
376
377
378
377
374
376
378
382
382
382
384
387
385
382
382
392
398
397
397
390
389
394
401
402
404
404
400
400
406
410
406
402
399
406
407
408
417
423
425
425
430
432
434
427
423
417
414
411
410
410
416
420
424
430
427
427
431
435
437
436
439
442
448
446
445
445
443
437
436
435
438
432
438
442
444
449
448
448
447
446
448
452
457
456
453
454
457
460
458
446
441
438
443
449
450
451
449
458
462
460
462
460
454
456
455
459
465
466
468
470
470
470
461
455
452
457
468
464
463
461
464
468
475
479
473
472
472
469
468
467
464
459
456
458
465
470
475
464
463
465
469
474
476
473
474
474
472
464
458
463
465
468
472
473
478
486
486
484
485
489
492
489
481
474
479
484
485
481
478
473
469
473
472
479
489
495
497
496
496
503
513
516
514
524
531
534
532
529
523
517
515
510
501
496
494
498
499
507
517
519
521
519
517
514
515
518
521
520
517
506
493
494
496
494
492
491
494
498
500
493
491
491
491
491
491
490
485
479
469
456
444
436
436
442
440
443
450
456
453
446
447
447
450
452
453
453
447
445
448
450
448
451
454
456
454
448
448
445
440
442
443
447
450
450
451
451
450
443
442
443
451
452
453
460
465
470
470
458
449
442
448
454
460
459
457
456
456
457
462
467
461
459
458
466
464
461
461
463
464
465
459
455
446
437
429
425
424
430
442
446
455
472
495
530
568
599
635
674
710
745
782
809
829
847
867
887
915
937
956
971
977
990
989
989
989
969
895
793
694
623
561
493
416
335
259
185
104
28
17
17
17
17
17
17
17
17
18
45
72
99
125
149
172
190
209
226
241
259
273
288
307
325
336
340
347
362
385
405
420
437
457
476
480
482
490
507
521
517
500
505
515
516
518
525
531
533
537
540
539
544
548
546
552
558
557
552
553
553
555
562
560
551
547
549
548
543
543
545
549
549
554
551
554
555
560
560
557
558
557
556
559
565
559
558
561
558
556
559
565
572
577
577
579
577
569
564
562
562
567
575
583
587
583
582
581
578
583
588
581
576
575
575
578
568
566
567
567
569
565
576
588
592
590
593
598
605
604
602
601
606
614
614
612
610
615
618
624
632
632
633
636
642
642
637
637
641
646
645
644
640
642
646
654
656
658
664
665
657
657
658
651
653
660
667
670
672
670
671
671
665
666
670
673
676
670
664
660
656
646
640
640
643
643
642
642
645
643
626
618
617
618
619
616
608
599
594
588
582
579
576
573
568
564
559
554
549
547
538
532
521
515
510
501
494
489
481
477
471
467
464
459
453
451
444
427
418
412
407
405
402
400
395
394
391
387
381
387
393
394
390
382
371
366
368
362
366
369
371
369
368
369
370
378
380
380
382
386
379
371
365
363
361
365
374
377
374
372
374
373
373
373
380
386
387
389
389
390
387
391
391
385
383
383
381
386
394
403
405
403
399
396
398
404
404
400
401
401
404
404
398
395
390
396
412
419
422
422
417
415
418
422
427
429
435
433
424
421
417
420
425
432
435
431
429
431
432
429
427
429
432
436
436
437
440
442
443
441
436
436
440
443
447
449
448
445
448
454
462
466
465
466
463
457
456
456
454
451
450
455
461
458
452
449
455
463
466
468
470
461
456
455
456
455
457
452
444
445
445
450
454
458
460
466
471
471
468
462
458
454
456
456
462
462
461
466
469
474
476
475
473
476
477
467
458
454
456
458
462
465
462
462
464
465
469
459
456
458
459
455
454
455
456
460
468
472
469
468
468
470
472
473
472
470
468
471
478
478
473
471
476
481
488
496
499
492
485
483
485
485
482
475
478
480
475
476
476
478
474
470
477
486
493
499
495
487
491
500
503
501
496
500
507
509
514
523
528
536
546
543
539
531
524
516
513
517
519
521
518
515
516
514
522
526
527
531
531
530
527
524
517
510
507
505
502
499
497
496
494
494
498
501
504
505
507
500
491
484
481
478
477
476
474
472
467
463
461
458
464
466
471
469
465
463
463
458
456
452
451
444
443
453
458
458
456
448
442
440
438
438
437
438
438
436
435
436
439
441
447
450
452
454
455
453
448
451
462
465
464
459
454
455
461
469
467
459
458
458
455
452
447
447
455
462
465
466
464
458
452
452
453
450
448
451
452
447
441
446
448
447
443
432
430
437
459
480
508
540
580
625
667
704
739
766
790
820
851
880
903
928
937
956
978
990
989
989
989
989
990
949
866
764
674
608
553
483
407
326
244
154
72
19
17
17
17
17
17
17
17
17
32
67
92
116
147
170
183
192
209
226
242
260
281
299
314
323
333
346
366
384
403
420
435
451
464
471
472
477
488
497
506
516
518
517
519
521
525
522
530
539
546
553
550
543
545
541
539
541
546
551
558
566
569
562
550
539
536
535
535
537
540
543
546
550
554
556
558
562
570
565
564
567
574
581
583
577
570
568
570
564
562
554
549
553
558
562
566
568
571
574
574
570
561
559
562
568
571
579
570
568
575
581
585
588
583
581
583
592
592
586
579
576
577
582
575
583
606
624
632
634
630
625
618
618
617
613
615
619
614
612
613
623
628
629
632
637
647
649
652
653
658
659
653
651
651
651
648
653
658
663
664
668
667
670
671
667
662
658
653
660
672
676
676
677
676
672
672
667
660
657
655
653
651
656
659
651
644
633
628
622
625
628
631
629
627
628
622
614
618
614
609
609
606
602
592
583
580
576
570
560
554
552
550
536
521
508
496
488
485
491
489
487
473
466
459
450
451
450
439
440
438
437
439
435
425
416
404
404
403
405
401
390
380
378
382
375
367
372
378
375
369
371
372
367
374
381
384
387
386
387
379
373
373
369
366
366
365
369
384
389
383
377
379
383
386
393
394
395
394
389
384
377
367
374
380
384
390
393
397
406
407
399
399
399
398
397
403
411
413
412
410
407
404
407
409
411
416
428
432
425
427
430
434
434
436
436
434
431
430
429
427
428
428
428
421
428
438
447
452
455
454
451
445
442
444
447
444
445
444
441
444
449
447
448
449
453
469
475
473
470
472
474
472
467
457
448
446
455
456
457
461
465
454
453
448
443
449
450
455
457
461
463
468
474
475
476
478
480
483
477
468
465
453
451
461
464
465
466
472
475
479
477
471
467
466
467
470
475
477
477
478
481
472
463
466
468
468
472
475
475
467
461
460
462
464
467
477
486
483
490
489
485
476
475
477
479
478
474
479
484
490
492
494
484
480
474
479
491
489
489
494
493
486
488
489
491
494
491
488
484
481
487
494
494
490
497
505
507
510
506
508
524
539
546
548
546
544
542
542
539
535
525
522
521
519
518
513
507
505
506
511
517
520
519
509
502
506
511
512
512
512
513
511
507
510
504
499
495
498
502
506
508
503
503
499
501
492
474
464
460
452
447
451
453
453
460
472
473
468
463
455
453
452
453
453
457
459
459
460
461
460
460
458
454
457
460
457
457
457
459
459
459
457
463
469
466
466
463
463
465
469
473
475
471
472
473
475
472
468
461
459
463
470
475
475
468
467
469
465
457
456
462
466
467
471
474
472
463
453
446
443
441
442
445
450
456
455
451
451
457
459
461
477
501
531
559
591
634
680
709
740
778
807
836
859
878
903
923
937
950
964
976
987
985
975
938
877
797
723
655
596
536
479
418
348
273
190
120
73
42
21
17
17
17
17
17
21
50
75
92
117
150
191
219
246
265
268
268
275
283
289
307
329
339
348
359
369
391
415
432
444
459
464
470
483
491
497
504
505
503
506
514
526
538
546
544
540
541
541
543
556
558
548
546
553
560
565
569
565
561
568
565
560
559
560
562
560
564
573
578
580
574
582
580
576
573
569
570
569
561
551
554
561
562
563
565
566
568
573
575
572
569
561
563
567
571
572
574
579
575
579
580
581
588
591
589
588
585
584
579
581
582
582
587
583
580
582
588
592
597
604
609
608
599
590
591
602
606
604
605
610
615
614
617
620
625
629
629
631
636
639
644
648
647
642
644
648
655
657
657
654
656
661
662
664
669
676
683
690
689
687
685
681
676
672
652
639
640
644
652
653
653
657
666
672
672
662
658
655
650
651
653
648
643
642
645
648
649
645
641
635
628
617
612
612
615
614
605
594
585
572
571
572
566
557
546
539
534
529
526
521
517
514
507
498
494
486
482
478
471
467
458
456
450
437
424
416
411
403
399
397
395
394
398
404
403
402
401
399
396
395
393
390
383
377
370
375
372
366
367
373
371
368
368
370
372
374
380
380
377
374
370
368
371
380
382
383
382
392
401
397
388
371
375
386
391
388
392
396
401
398
392
393
398
407
406
399
399
400
406
408
402
403
405
403
401
402
405
407
411
417
424
429
433
432
427
424
428
425
421
418
424
428
433
427
420
423
431
436
435
429
430
435
447
451
449
442
432
427
432
435
427
422
430
441
445
448
454
454
450
452
456
452
447
450
453
456
458
452
448
450
453
450
456
464
466
463
460
459
456
455
459
460
457
459
462
466
469
466
462
461
466
462
462
463
461
457
458
462
461
460
460
464
466
466
469
470
464
455
456
459
460
458
461
466
469
473
477
482
486
481
482
478
475
473
473
475
481
485
488
488
485
480
477
477
480
480
483
496
502
492
486
484
480
477
482
488
492
496
500
501
507
513
518
521
527
530
533
533
531
530
526
523
524
522
517
515
519
515
507
498
497
496
497
498
496
502
506
504
502
503
495
491
487
484
482
482
483
486
486
488
489
489
495
493
487
483
482
475
471
470
464
454
445
439
437
440
445
449
449
448
448
451
454
460
464
459
454
451
447
443
446
450
452
457
453
448
441
444
450
451
444
440
444
450
458
463
468
471
458
442
435
432
432
436
441
443
447
449
451
458
459
458
454
451
445
442
441
443
447
456
468
474
474
471
469
465
450
442
441
444
441
433
438
446
452
447
447
445
443
444
445
443
455
476
496
515
545
577
606
637
664
693
729
759
783
807
833
855
875
895
907
914
921
936
942
930
890
833
765
694
629
567
503
442
381
322
257
178
104
43
17
17
17
17
17
17
17
17
37
74
104
128
159
187
205
212
226
239
252
260
269
282
299
318
336
353
369
379
386
395
407
432
452
468
477
488
498
508
515
519
521
523
524
527
530
529
533
541
547
549
547
556
559
555
555
552
549
547
546
553
562
567
565
562
554
552
553
556
559
560
561
561
562
564
567
563
569
567
562
558
562
566
570
575
574
571
570
576
577
572
567
571
570
567
565
566
571
577
575
572
575
580
576
570
570
576
578
574
570
575
578
575
570
564
567
575
585
590
595
599
601
600
600
598
601
596
591
592
598
605
610
612
611
607
609
614
622
626
625
627
629
626
626
629
635
642
646
639
637
642
646
650
652
649
645
647
648
653
653
658
665
663
663
661
660
658
661
665
666
666
665
667
667
667
662
662
658
648
649
650
650
643
642
639
637
636
639
641
639
628
619
617
614
608
603
602
595
588
583
576
575
566
562
560
559
553
540
539
540
532
515
510
509
504
501
495
484
466
462
462
458
448
438
428
420
416
413
410
408
410
411
406
393
387
385
383
377
378
381
383
383
377
376
371
369
368
368
366
363
368
365
365
360
356
360
367
373
380
380
372
360
359
369
380
379
373
371
375
375
376
375
378
382
383
382
382
385
384
384
389
391
391
388
388
390
392
396
401
405
405
402
393
391
391
394
397
400
402
402
404
405
412
418
422
423
422
422
422
423
418
414
411
412
416
425
427
429
429
427
425
426
428
434
437
435
434
433
432
432
438
436
428
428
431
432
432
440
443
444
445
449
449
450
452
446
442
439
443
450
452
447
447
451
457
454
451
453
456
462
463
459
451
446
447
456
456
456
455
459
462
461
456
452
453
456
458
457
459
461
467
469
468
467
460
452
450
454
459
465
470
467
461
457
459
465
466
462
464
464
461
461
463
472
477
476
480
476
475
472
482
492
483
471
468
471
474
472
472
473
472
481
485
485
481
483
482
483
479
476
482
487
491
496
493
484
480
492
505
513
513
515
518
518
514
516
517
515
512
512
512
510
508
510
516
519
521
521
523
517
512
515
514
510
502
501
500
496
497
498
496
498
498
493
489
480
480
482
488
498
497
486
480
474
474
478
478
473
467
467
454
444
444
447
448
443
441
444
449
453
454
450
450
448
446
444
443
442
439
438
436
435
443
450
456
460
462
455
443
440
443
448
452
454
451
452
453
458
458
453
455
459
463
459
452
445
443
444
446
451
454
452
449
454
461
460
451
442
442
445
448
449
451
451
449
449
457
463
461
459
459
455
436
435
440
448
455
459
457
456
465
477
505
542
582
622
660
694
728
766
796
822
847
874
898
915
929
938
961
983
990
990
990
989
983
921
836
735
649
584
524
448
366
290
215
121
33
17
17
17
17
17
17
17
17
17
36
78
109
134
150
168
188
204
219
232
243
256
274
295
307
321
334
350
370
390
403
420
435
447
457
471
481
491
499
501
504
503
510
511
521
529
536
531
531
528
533
537
539
544
548
544
541
534
528
528
539
547
548
553
554
547
544
542
540
542
546
552
555
552
547
545
544
544
543
541
541
541
546
549
550
555
553
553
554
556
568
565
563
563
561
562
560
558
555
554
559
559
567
571
567
565
573
572
567
564
568
566
568
575
578
582
584
578
571
572
578
576
574
579
591
596
605
607
604
606
607
607
605
599
597
610
620
624
618
612
610
616
625
634
643
642
637
638
639
633
629
637
653
660
657
653
649
648
643
644
648
650
657
653
648
648
656
657
656
661
665
666
663
658
651
649
646
647
647
649
645
642
646
648
645
638
633
628
626
626
630
634
636
627
620
615
607
606
600
589
581
581
584
582
568
566
567
554
540
532
526
520
515
510
509
498
490
488
483
479
475
465
450
438
435
437
433
429
417
412
411
408
401
394
389
382
382
384
380
376
370
368
373
381
377
371
372
375
374
370
361
353
351
359
365
364
362
365
363
367
367
354
351
351
348
355
363
366
371
378
386
390
387
387
387
380
376
372
366
365
372
378
376
379
384
391
391
390
397
411
411
404
398
393
390
393
395
395
396
398
396
391
390
395
407
408
410
409
412
414
414
412
415
413
403
405
413
415
417
415
414
416
419
422
428
430
426
420
424
428
430
433
437
437
444
448
452
455
456
450
440
430
424
426
426
430
438
439
447
450
447
447
449
447
449
459
463
464
457
451
448
443
438
440
446
452
452
447
447
451
455
457
462
465
466
463
458
451
453
452
442
444
459
470
475
471
471
469
464
454
451
452
454
450
446
455
459
456
447
449
451
446
446
448
453
457
460
464
463
466
467
465
467
466
466
470
479
476
470
465
465
472
470
469
470
467
460
457
463
466
464
464
468
471
471
474
476
478
475
477
479
480
485
485
483
484
486
484
482
483
482
480
478
477
477
483
494
493
487
489
494
500
507
506
505
512
519
526
531
529
526
527
527
526
518
517
523
527
526
522
518
512
518
519
515
510
504
499
502
510
519
521
517
508
502
493
491
499
498
498
498
504
506
491
490
489
486
490
498
496
484
472
467
464
462
453
442
439
443
438
433
432
441
445
440
440
442
443
441
437
436
437
443
438
435
438
445
453
459
458
455
456
455
448
441
441
441
445
448
445
441
445
453
453
446
442
445
447
449
458
461
460
457
454
452
452
449
443
442
442
441
447
450
449
448
447
455
461
462
453
444
442
444
442
444
442
441
438
434
431
432
441
452
453
454
466
475
493
503
529
554
579
624
699
758
798
831
856
880
902
919
933
933
943
956
970
989
989
989
989
989
959
848
740
648
581
512
430
347
264
184
92
18
17
17
17
18
18
17
17
17
17
26
56
87
120
145
165
183
200
216
227
239
253
266
282
300
315
335
354
375
391
405
422
431
441
450
458
470
483
492
504
512
513
523
527
520
518
524
529
533
538
536
529
527
530
534
537
538
534
535
533
532
533
532
535
543
546
547
548
550
550
551
555
562
563
561
557
549
547
552
561
562
556
561
556
555
562
567
567
561
557
559
561
563
566
567
564
564
564
570
577
580
576
572
572
566
556
555
562
565
566
566
569
576
582
586
587
588
587
586
595
602
597
594
594
591
592
589
584
579
583
590
599
604
609
612
615
614
613
616
619
620
621
621
621
623
627
632
636
641
641
640
644
646
653
654
652
652
658
665
665
661
661
658
656
661
662
666
667
667
670
671
666
664
662
655
655
658
659
660
660
670
675
677
672
663
653
637
621
621
624
629
629
625
628
630
634
634
629
614
592
586
586
580
572
563
560
562
559
551
541
530
521
517
516
506
495
495
497
494
489
492
492
479
457
445
445
448
440
429
417
405
398
394
390
388
390
395
387
378
377
382
383
379
374
371
369
365
367
363
358
355
362
366
365
362
358
357
357
359
362
363
361
364
370
368
363
359
360
362
375
385
393
393
389
388
380
371
374
382
382
376
371
373
378
382
377
370
371
379
378
376
381
385
387
392
396
394
397
399
401
400
404
407
409
412
415
412
411
406
408
414
418
414
415
414
418
419
425
432
434
427
418
414
419
423
422
428
434
433
432
432
434
440
442
435
431
427
434
443
439
436
439
441
443
447
446
443
441
447
456
456
442
438
444
453
456
454
448
449
452
447
436
431
433
446
459
465
467
472
471
466
462
457
453
451
451
447
447
448
451
455
459
465
466
469
470
468
465
458
461
460
459
461
459
452
454
460
468
471
472
473
473
475
480
478
466
457
450
449
454
468
471
470
471
472
471
470
472
473
474
477
475
465
463
467
482
500
509
493
476
470
466
464
472
472
470
471
478
479
479
476
472
471
476
486
492
490
487
492
501
508
515
518
529
530
528
529
530
529
532
535
532
525
524
519
514
515
520
516
509
505
505
508
510
507
514
517
508
500
495
486
487
491
497
502
495
488
492
492
493
496
499
497
490
484
474
469
468
463
456
453
451
449
448
455
453
455
461
461
452
443
444
438
439
439
438
440
440
438
442
449
456
456
450
444
441
439
443
443
443
444
438
435
436
450
457
455
451
447
446
451
451
449
448
450
451
456
452
443
440
440
444
444
448
453
454
459
459
455
452
459
457
451
452
449
447
442
438
448
455
451
448
445
449
452
453
445
439
445
450
450
448
451
455
471
500
532
565
596
633
667
704
749
790
820
843
870
897
930
955
977
990
989
989
989
989
989
973
909
826
728
639
578
520
447
371
297
228
143
73
19
17
17
17
17
17
17
17
17
17
46
79
108
137
170
190
201
208
221
234
249
262
277
290
310
331
350
365
382
401
416
432
442
449
459
464
470
484
501
505
511
521
525
521
525
528
531
537
542
542
544
546
549
546
545
543
541
542
544
547
548
549
550
545
539
534
532
543
546
545
547
551
551
558
564
563
566
566
559
543
540
548
559
557
556
557
555
547
545
554
560
557
556
557
555
558
558
568
573
573
573
574
570
572
571
569
568
570
573
576
577
580
583
578
577
579
592
604
605
593
587
594
596
595
590
591
595
605
601
595
593
604
605
610
613
617
617
614
612
616
625
627
627
627
629
640
646
646
647
642
639
642
636
634
640
644
651
660
665
673
683
676
669
667
663
659
661
661
656
662
668
670
664
659
658
663
665
663
659
658
652
649
656
652
642
636
635
638
633
632
622
619
624
627
618
612
607
613
612
604
603
597
591
583
570
553
548
546
544
542
539
532
530
523
509
495
486
481
466
454
450
450
443
440
443
440
436
436
439
439
434
429
427
422
401
384
378
366
372
381
378
378
381
379
374
369
360
361
363
370
378
380
378
375
370
367
366
367
368
374
372
374
368
364
364
364
366
375
381
385
388
388
387
382
377
379
380
381
382
381
380
384
392
403
402
401
405
408
410
405
400
400
400
400
400
403
406
406
402
400
404
408
414
417
423
419
410
409
410
408
412
419
425
430
435
441
443
440
427
421
422
423
429
435
432
432
437
446
445
439
436
435
433
439
437
438
442
446
446
452
452
450
452
452
450
448
456
458
457
460
462
462
460
455
460
463
458
452
451
451
454
469
472
468
468
464
464
465
467
470
466
462
464
462
464
463
459
457
463
466
472
477
477
475
468
457
460
471
476
479
485
485
486
491
494
486
475
476
479
475
468
465
461
460
464
466
469
476
483
490
492
479
464
464
463
468
480
488
494
492
491
491
500
503
491
481
482
483
484
486
487
489
497
500
498
502
508
512
513
514
515
520
529
533
534
533
529
529
530
529
530
531
531
527
525
524
530
535
529
518
512
514
514
512
506
504
506
512
516
512
507
501
496
491
490
487
487
490
495
500
503
504
503
503
499
497
496
497
493
485
479
477
471
466
462
466
459
456
459
460
452
449
447
448
446
442
435
428
435
447
448
439
443
456
460
464
471
467
459
461
459
464
467
466
457
453
454
458
459
462
467
467
460
452
451
455
459
462
465
463
463
461
459
460
461
460
457
452
449
453
457
464
466
465
468
471
463
458
449
446
453
457
453
451
449
447
445
448
443
441
443
446
451
460
481
501
525
542
574
615
643
669
693
733
771
798
823
845
869
889
911
931
949
961
967
973
976
962
920
854
776
707
646
587
520
456
386
314
245
175
115
67
41
18
17
17
17
17
17
21
48
77
102
125
150
179
202
221
239
250
267
283
297
304
315
334
344
347
358
370
379
394
405
413
424
439
459
473
482
491
502
507
514
521
526
530
546
559
558
547
540
544
541
541
543
545
551
555
558
563
555
547
543
539
542
548
554
556
557
564
569
572
569
569
567
564
561
556
549
550
560
566
570
567
560
557
558
559
557
558
563
564
563
562
567
568
566
570
569
561
557
561
570
579
590
592
588
582
579
574
571
573
572
575
573
577
574
572
574
577
578
575
578
586
595
596
593
595
602
613
620
626
629
627
623
613
609
606
609
614
617
621
627
628
631
634
634
640
645
646
642
644
647
650
655
656
660
665
667
668
666
658
652
653
660
670
675
675
672
671
672
675
671
670
663
659
657
663
665
661
653
645
641
644
646
646
644
647
643
636
629
623
619
621
618
610
604
603
599
590
585
581
582
582
574
567
561
559
552
543
529
525
521
516
509
495
486
480
475
469
465
455
448
443
445
446
444
445
443
429
414
410
405
402
395
394
395
393
386
380
380
380
384
385
382
381
380
380
373
370
365
355
353
356
366
369
367
367
368
364
361
363
365
364
366
370
379
384
379
379
382
385
379
389
386
379
385
393
395
396
402
397
388
382
381
382
387
390
392
392
395
401
406
405
398
396
397
398
394
397
398
403
412
413
413
418
422
420
415
408
405
409
414
425
428
425
428
428
425
421
423
425
429
433
435
437
437
439
443
443
443
439
435
437
445
455
456
451
444
436
438
445
444
441
443
450
454
445
443
452
458
458
460
457
457
460
461
461
458
451
457
463
468
463
458
452
448
456
461
468
473
471
472
475
481
478
466
460
458
459
457
449
454
469
482
482
471
461
455
448
449
459
467
473
476
476
483
482
481
484
486
488
478
472
467
466
472
479
483
490
496
497
493
491
489
488
489
487
471
465
477
486
481
476
486
507
517
523
521
519
521
525
531
534
531
522
515
517
524
530
525
515
510
508
505
502
501
504
508
511
513
511
504
503
509
511
505
499
504
511
508
500
495
492
485
482
478
479
478
480
482
489
491
488
488
487
491
494
492
480
473
470
463
465
460
453
444
442
448
453
457
458
450
438
436
446
461
466
465
463
461
460
454
450
452
452
456
449
442
444
443
443
441
446
461
467
466
465
466
465
459
457
461
457
454
446
444
457
467
464
464
461
456
457
459
462
460
456
454
454
456
465
472
467
465
464
456
451
449
449
449
450
453
458
463
464
458
455
461
466
469
480
493
512
532
561
597
629
656
687
726
759
780
803
829
859
887
897
905
915
927
931
941
944
937
913
862
782
694
618
556
507
457
397
335
270
194
119
59
19
17
17
17
17
17
17
24
60
89
106
129
157
183
199
212
228
246
260
274
289
304
316
335
355
369
383
396
412
427
437
454
464
473
477
473
478
495
508
514
521
523
527
532
536
542
546
549
553
556
559
560
561
560
558
561
571
572
563
557
549
542
545
543
545
548
550
551
550
555
554
552
551
551
548
548
553
556
563
573
581
580
571
558
549
547
550
552
567
572
572
571
573
574
575
581
584
582
576
569
565
565
566
568
573
577
577
578
584
593
596
595
587
577
580
581
582
580
577
580
585
586
584
587
590
591
605
614
616
614
613
614
617
622
619
609
608
605
614
620
625
626
630
634
632
630
637
646
655
660
659
658
656
657
648
645
652
657
658
654
656
655
653
653
659
664
666
667
667
662
659
658
651
650
652
655
654
649
646
644
646
649
651
650
646
636
626
623
628
633
634
630
618
610
611
612
600
592
584
579
576
572
577
573
571
574
572
556
534
519
506
502
504
505
496
484
482
481
474
468
467
462
454
439
426
413
410
414
416
419
420
420
413
413
409
396
389
381
381
384
385
383
385
384
384
386
384
380
374
373
379
384
390
396
390
382
373
369
367
369
375
377
379
386
384
384
382
386
397
401
400
398
390
390
390
392
394
393
386
386
391
396
401
401
404
408
408
402
401
408
408
408
410
417
415
408
409
408
407
414
417
415
408
404
406
410
416
415
415
417
421
427
422
429
437
439
442
441
438
440
442
447
446
444
441
444
439
434
437
445
453
452
447
446
443
435
434
438
441
446
450
454
459
462
456
454
457
464
466
468
463
461
464
465
462
461
458
460
471
468
468
463
461
468
468
469
468
470
470
461
448
447
454
459
463
464
470
479
483
482
478
472
474
473
471
473
484
488
492
494
492
493
493
491
488
479
476
481
490
486
476
481
482
488
495
500
501
495
492
499
498
504
515
530
533
530
528
529
536
543
536
516
498
491
492
492
500
508
510
507
508
513
514
520
518
516
511
505
495
482
480
489
499
502
495
485
483
487
490
496
501
504
503
505
507
506
504
499
485
475
467
458
451
447
445
439
438
442
445
443
450
460
462
462
456
446
449
452
450
447
449
453
460
460
464
459
455
457
462
465
460
457
453
453
454
455
454
445
442
444
444
440
440
445
456
463
470
473
473
472
468
471
473
466
450
444
445
449
454
458
456
456
460
457
454
458
462
463
463
464
464
464
461
465
466
467
463
458
460
466
472
472
470
480
501
523
545
585
627
664
689
716
746
773
798
828
854
876
893
905
920
924
927
930
936
926
901
843
768
682
608
551
501
445
383
313
243
175
101
39
17
17
17
17
17
17
17
17
51
88
119
150
183
203
215
225
230
238
250
264
282
304
318
328
345
365
382
400
411
425
441
457
468
478
486
492
498
502
506
516
517
520
525
527
532
542
555
565
566
563
562
556
548
547
545
548
552
559
558
561
560
552
543
539
540
547
552
561
565
562
560
561
564
562
561
560
558
558
560
562
561
558
555
555
562
567
568
562
559
557
554
556
556
562
568
578
582
577
576
579
575
570
570
574
577
568
568
571
574
575
577
580
581
578
583
585
579
577
578
584
586
583
580
584
587
592
598
609
618
616
606
605
607
609
614
617
621
618
623
617
613
617
622
630
638
644
647
645
650
648
640
639
644
646
644
642
645
652
658
663
663
660
657
650
647
646
647
655
658
658
658
656
655
657
657
652
648
644
648
649
645
641
641
642
639
631
624
626
619
617
621
624
622
619
619
617
610
596
588
585
579
567
568
566
562
558
552
544
533
524
515
504
495
487
482
481
475
473
470
468
464
457
449
439
429
430
429
421
413
406
404
406
408
404
397
390
391
393
394
388
385
385
375
371
369
367
363
365
367
368
369
372
378
385
385
378
373
371
376
384
383
374
370
370
374
376
380
381
382
384
383
379
389
395
395
393
391
393
396
398
402
400
398
399
397
394
395
401
399
396
398
402
403
403
401
408
411
411
410
411
412
417
417
415
418
422
423
422
425
430
440
440
441
438
426
414
408
413
419
421
426
438
449
448
440
432
425
420
420
424
429
434
435
435
437
442
443
437
438
446
449
452
455
456
456
458
461
459
450
443
444
446
451
461
461
463
463
469
472
469
460
450
447
448
453
458
461
468
471
469
467
471
471
473
471
470
468
466
471
477
484
486
482
480
479
484
488
488
485
483
482
478
475
480
487
489
494
504
506
511
515
515
512
512
519
521
521
525
531
535
536
528
512
502
494
495
505
508
505
503
507
515
517
517
515
512
510
504
493
487
482
478
476
476
477
482
481
478
483
494
499
502
491
493
487
479
476
478
477
474
472
466
459
447
445
443
441
441
447
451
452
453
453
449
446
442
440
449
457
454
445
445
448
446
448
445
440
441
440
433
429
432
436
441
445
447
444
443
440
446
456
465
474
477
472
472
464
440
424
422
426
439
447
448
446
445
450
447
451
462
472
468
460
458
460
462
459
455
455
447
440
430
426
427
428
436
439
438
441
441
442
439
445
453
475
508
539
567
602
635
668
702
733
766
794
820
843
866
888
903
916
935
953
964
981
986
972
929
846
743
656
593
540
476
399
322
252
190
112
31
17
17
17
18
18
18
17
17
17
25
59
94
132
156
167
184
207
219
231
248
273
293
309
321
337
348
364
378
397
414
431
462
480
477
478
483
492
499
506
511
519
529
540
542
543
537
540
547
559
556
549
543
543
544
547
548
560
558
556
554
558
555
551
549
548
549
550
547
545
556
562
562
568
570
573
573
570
563
564
563
559
554
553
547
549
554
559
566
573
576
569
570
566
566
568
572
569
568
565
559
558
561
563
565
568
569
570
575
580
585
582
579
575
582
589
591
592
591
595
606
613
603
587
582
579
579
589
601
605
613
614
615
615
611
610
615
617
622
624
626
626
623
623
625
625
627
639
651
660
661
651
643
640
642
637
636
644
653
661
667
666
665
667
672
676
676
675
671
658
654
649
642
635
634
641
649
649
649
657
658
659
659
654
638
632
635
637
636
633
630
633
632
624
612
599
591
594
589
581
578
576
578
577
566
557
552
548
543
538
528
524
518
514
513
514
505
494
481
468
459
447
432
423
424
427
426
422
420
418
411
407
405
397
392
392
395
391
383
379
376
372
370
376
374
372
376
378
374
369
372
374
373
375
379
377
368
363
368
380
386
386
382
371
364
364
361
367
372
372
368
365
370
373
379
391
392
381
383
380
384
386
389
393
397
400
398
393
394
391
394
396
395
402
409
406
397
398
400
402
393
390
393
394
398
411
418
413
414
421
426
423
423
429
421
418
420
428
432
434
429
425
420
416
416
419
423
428
430
426
426
428
430
432
437
439
444
446
439
438
444
441
437
439
435
438
445
446
445
446
440
435
426
430
439
446
447
449
450
447
445
446
444
451
451
451
455
451
447
446
447
444
447
443
442
441
447
458
464
468
469
463
459
453
454
465
474
480
478
466
462
464
468
469
474
476
475
475
471
465
467
470
480
485
487
487
494
498
501
504
507
510
521
527
526
517
512
513
513
517
519
512
504
501
494
485
489
500
514
518
521
527
534
537
527
514
505
494
486
485
480
481
478
471
462
457
467
477
482
487
490
495
494
489
480
477
478
476
468
453
445
442
436
433
427
422
426
432
438
440
441
439
442
444
442
436
429
427
427
428
433
439
436
432
434
439
446
450
445
442
441
443
446
443
440
444
446
449
448
440
421
415
422
434
437
440
444
442
438
437
440
441
443
447
452
454
450
445
444
441
436
440
450
449
432
427
429
429
431
428
430
431
424
421
418
424
433
439
433
430
431
430
434
447
468
498
524
552
581
613
658
706
753
790
811
835
859
884
901
915
928
940
943
960
981
986
970
916
834
737
652
575
510
437
361
291
222
144
51
17
17
18
17
17
17
17
17
17
17
17
32
65
98
128
154
178
189
208
220
229
247
271
288
298
314
332
352
371
387
399
412
430
440
450
459
470
485
499
504
510
517
519
518
524
531
532
526
521
518
530
538
535
533
537
541
542
544
543
540
538
541
541
545
553
561
562
558
550
542
544
547
545
547
544
540
538
544
549
553
554
554
550
549
556
565
569
566
560
555
552
555
559
558
556
562
563
548
546
552
559
562
567
572
571
564
566
571
576
571
567
562
561
556
559
570
580
590
591
586
586
587
583
576
569
568
572
580
589
588
583
583
588
596
597
598
595
598
609
617
612
611
615
617
615
618
631
640
638
637
639
644
647
647
643
642
643
639
638
635
639
646
649
653
654
652
653
654
650
647
645
643
649
654
655
656
657
651
641
643
651
660
653
645
634
629
624
620
617
611
607
610
613
614
611
610
610
607
606
598
590
583
574
568
556
537
530
526
520
511
507
501
497
495
495
492
484
476
466
457
450
442
435
428
424
424
423
418
409
396
388
390
391
390
392
393
396
388
373
366
367
376
377
366
355
348
351
350
348
354
357
355
352
346
338
335
339
346
355
359
357
358
353
353
352
354
359
360
374
380
384
380
375
373
372
368
366
363
365
370
376
378
379
371
377
380
381
384
379
380
379
377
384
380
370
369
376
381
382
381
381
389
395
396
394
394
396
396
404
412
417
416
418
413
411
409
407
412
417
420
421
420
419
418
417
415
415
416
421
425
421
419
425
432
430
429
429
431
431
430
432
436
441
443
440
442
446
443
438
431
429
434
439
436
435
433
436
442
450
459
453
447
442
438
430
429
435
437
442
445
443
436
443
445
451
455
438
425
421
425
431
434
433
439
450
459
465
465
459
459
460
455
449
447
446
452
453
454
455
458
453
451
451
459
462
467
466
465
468
465
462
460
463
470
474
475
478
476
476
478
473
472
472
477
480
485
491
490
495
504
513
522
534
539
533
518
502
497
503
502
491
490
496
503
508
495
494
495
497
502
501
494
486
473
474
481
484
479
477
485
482
487
488
486
485
486
490
488
482
478
481
482
479
470
465
462
457
451
445
438
424
426
427
428
427
425
426
432
429
431
440
446
448
455
458
455
445
432
421
417
419
422
426
429
437
440
442
440
437
437
436
434
439
431
422
425
433
442
443
440
437
432
425
430
431
427
434
443
446
446
439
437
436
430
433
438
437
438
440
447
443
444
454
455
447
444
448
445
443
436
428
426
427
425
426
432
435
432
429
436
436
443
460
487
515
556
596
634
661
684
723
758
784
811
838
864
888
900
921
940
956
967
975
974
965
939
881
792
697
621
552
486
425
358
287
215
141
86
38
17
17
17
17
17
17
17
17
17
33
75
109
128
151
176
191
213
224
226
234
250
268
289
315
341
356
364
368
371
385
401
414
426
438
456
470
478
485
495
495
500
508
513
516
519
518
518
522
530
532
534
540
539
539
544
540
537
538
542
545
548
551
553
551
551
546
540
542
547
547
548
550
550
543
543
544
548
555
566
571
570
567
562
552
553
546
533
533
539
545
547
547
554
558
557
561
560
561
556
556
556
556
560
563
562
571
580
582
574
572
573
575
577
574
569
569
576
576
577
583
585
585
581
574
581
592
598
598
590
585
583
586
587
593
605
612
613
615
615
615
616
624
628
626
628
624
615
614
617
622
626
626
631
641
651
655
651
649
654
650
647
647
648
646
649
647
640
639
643
642
641
645
647
646
645
643
640
634
631
624
619
618
619
620
619
616
612
616
621
621
614
608
604
607
608
606
600
597
595
594
592
587
579
570
556
541
523
516
514
512
507
500
498
494
482
486
481
474
459
455
444
440
441
439
438
443
442
428
408
401
399
398
403
404
394
381
372
366
363
368
370
373
377
376
379
378
374
375
375
379
383
376
366
367
359
354
358
366
370
372
372
370
366
365
367
365
364
364
376
391
389
384
382
387
388
388
390
388
385
386
387
387
387
384
387
392
391
393
401
406
410
409
409
406
403
406
409
412
415
414
415
420
424
413
398
392
396
402
412
419
426
427
427
433
434
430
430
432
437
441
445
449
453
452
447
429
424
428
435
437
431
429
434
441
441
439
437
442
448
443
442
439
437
437
435
435
441
446
451
455
460
459
455
455
458
458
459
461
460
458
456
459
460
463
464
459
451
449
451
450
453
457
460
462
462
456
454
455
458
461
466
466
467
463
464
467
462
458
452
454
457
465
470
479
486
487
487
479
473
471
485
482
471
473
471
470
474
480
480
483
484
483
483
485
484
489
492
497
505
509
512
513
505
499
508
518
528
526
520
519
516
511
512
506
503
503
505
506
503
500
501
507
514
514
508
499
493
493
498
500
498
495
494
491
486
481
479
487
493
493
491
484
474
474
476
479
482
475
470
466
461
454
450
446
442
441
440
445
448
447
447
450
451
447
450
453
448
444
442
436
430
429
432
441
444
448
452
450
447
442
441
443
446
450
450
446
444
445
444
447
453
458
458
457
454
450
449
451
450
451
452
453
455
455
447
440
439
445
452
457
458
456
453
451
449
446
443
445
448
449
443
440
443
442
438
436
437
443
445
441
443
438
437
435
436
445
470
501
535
573
611
646
678
707
735
754
775
798
826
852
873
889
905
917
923
927
924
917
896
846
774
700
634
576
515
450
392
328
260
185
122
68
33
17
17
17
17
17
17
17
17
46
78
100
122
154
186
212
226
234
245
253
269
289
304
320
334
355
372
385
400
415
422
425
428
437
443
458
469
480
488
497
513
518
519
523
527
533
542
547
547
547
558
566
560
548
545
547
557
559
562
567
572
571
568
569
565
563
562
559
557
559
560
558
556
558
559
554
549
552
557
561
563
564
564
561
562
565
562
563
561
562
562
564
568
570
572
574
578
574
572
569
572
575
576
578
577
578
580
584
589
587
581
580
582
584
588
590
592
593
592
593
592
588
588
593
600
604
607
599
596
599
598
608
615
622
621
612
611
620
627
632
638
639
640
640
642
643
642
644
650
650
647
649
646
647
657
657
651
649
648
650
656
658
660
660
661
665
660
659
654
650
654
659
663
660
656
656
660
656
654
652
648
646
653
649
634
627
630
631
631
631
627
620
617
621
620
610
600
588
583
580
578
578
572
569
560
553
546
545
536
530
521
513
504
499
493
499
499
488
475
465
453
442
437
434
431
427
423
421
421
422
418
413
413
407
395
389
384
381
381
385
386
384
378
369
368
373
373
376
371
364
365
370
375
379
378
377
375
375
373
374
376
373
369
369
376
383
385
390
394
397
396
394
385
378
380
384
387
389
389
388
390
391
394
393
389
390
393
395
393
393
392
397
398
395
400
402
402
404
408
408
415
418
419
417
421
430
429
420
418
420
421
426
430
432
428
425
426
428
433
436
438
439
440
441
442
441
439
439
436
437
441
439
435
433
431
437
442
444
443
442
446
451
455
459
461
460
452
454
460
473
478
473
462
453
455
461
460
460
461
461
462
458
458
459
460
461
460
459
457
458
462
465
465
460
459
460
457
454
452
453
462
471
480
480
469
464
464
467
469
468
466
469
471
472
474
477
480
482
482
480
482
477
469
470
472
479
485
486
489
492
482
472
468
469
478
484
480
474
476
479
482
487
485
487
502
512
512
513
512
512
519
526
529
530
529
528
534
540
539
527
509
491
485
493
498
505
507
509
515
521
523
518
512
513
516
519
505
500
498
491
488
490
492
491
487
485
491
495
495
496
497
496
488
480
475
471
470
475
474
467
463
457
448
442
443
441
445
452
454
449
449
454
457
460
462
455
450
442
444
442
442
447
450
452
451
454
453
451
451
452
452
450
449
452
460
465
466
467
471
475
471
468
468
468
470
462
456
454
443
437
434
436
447
454
461
464
461
463
465
456
455
460
461
458
459
463
460
458
458
462
460
459
457
459
460
462
462
461
464
472
488
512
535
555
581
621
658
702
741
767
788
812
833
856
875
886
894
908
927
940
957
972
963
944
895
828
743
658
586
531
468
398
326
257
191
108
31
17
17
17
17
17
17
17
17
18
54
87
114
144
172
199
218
224
228
240
255
272
294
313
331
345
360
373
390
411
427
441
457
472
484
492
502
506
515
517
517
522
524
522
529
541
553
558
555
554
548
546
547
545
545
546
549
548
543
541
543
544
547
552
560
566
566
564
568
569
565
560
557
556
557
563
566
571
573
566
565
569
571
565
560
560
567
569
570
566
563
563
564
565
563
564
564
569
576
580
577
575
570
569
572
573
579
585
587
594
598
597
604
605
592
581
579
581
586
589
593
592
593
596
600
604
609
615
618
614
605
607
612
617
616
612
613
611
610
617
619
616
617
624
629
635
642
648
656
658
649
644
639
637
641
641
648
656
656
657
655
660
669
670
667
658
654
654
658
664
666
665
659
657
654
653
651
649
648
650
652
650
649
648
646
643
645
644
644
645
641
631
633
633
622
607
599
596
594
592
590
587
586
584
577
575
569
556
548
545
537
526
521
516
510
507
499
495
487
480
476
465
461
459
451
446
448
442
437
432
430
422
414
409
403
400
393
387
386
388
391
393
396
393
389
384
375
369
367
368
371
375
380
381
377
374
375
382
381
377
376
382
384
384
383
384
382
387
388
394
401
403
396
397
396
395
387
385
388
389
387
383
381
389
398
403
405
403
405
411
416
412
409
413
415
415
416
419
420
425
423
421
424
424
420
418
422
424
423
419
413
414
421
429
441
442
439
425
420
423
426
426
428
430
439
443
444
445
449
448
444
441
445
445
446
449
449
450
451
445
439
434
442
447
453
454
448
452
457
461
459
456
455
459
453
454
457
454
458
461
463
464
466
465
460
460
458
463
470
472
469
467
468
464
464
465
470
466
461
459
459
458
460
460
460
463
464
457
457
461
466
465
463
466
471
472
466
466
467
470
473
473
473
472
471
472
468
463
462
467
472
473
465
456
452
457
461
462
461
463
469
474
480
484
482
477
478
478
478
469
461
459
469
478
480
475
464
464
475
481
482
487
491
496
503
503
505
503
498
497
492
487
482
484
486
485
485
490
495
500
503
507
511
511
512
515
516
521
530
537
539
535
530
525
519
515
512
511
515
523
524
519
518
521
522
521
517
519
520
521
522
521
521
527
525
511
502
496
496
503
512
511
501
494
492
491
487
489
492
493
494
490
480
475
474
464
450
448
448
449
448
449
443
445
454
457
459
459
460
450
450
452
451
453
452
445
441
444
451
458
458
460
464
463
462
461
458
462
464
458
456
455
455
452
453
457
457
458
457
457
456
466
468
469
465
455
452
459
458
456
458
462
465
465
469
468
466
466
462
458
449
449
452
450
449
453
455
452
449
443
439
444
454
459
460
464
479
503
529
555
578
615
655
690
724
750
783
812
847
872
889
911
933
950
963
973
985
989
989
990
978
921
832
736
658
593
531
457
380
304
230
146
54
17
17
17
17
17
17
17
17
17
28
62
85
119
147
166
180
194
208
224
240
259
278
294
301
306
325
351
371
394
410
418
431
444
455
462
475
487
501
503
507
515
522
527
529
532
539
548
552
552
554
559
558
561
559
561
553
547
543
547
556
562
561
558
551
549
550
549
552
558
561
565
568
566
564
565
560
558
562
563
557
559
559
559
559
562
562
561
564
568
569
570
565
564
573
581
586
582
585
589
593
584
581
580
577
576
576
571
565
566
562
565
572
573
571
575
584
589
594
600
608
612
607
598
590
588
591
592
595
599
600
612
614
611
611
617
623
626
623
621
624
627
629
633
635
641
644
640
638
644
654
661
667
672
675
675
675
673
666
655
653
650
653
653
648
652
654
652
647
651
661
665
664
661
656
651
651
652
651
653
651
654
652
652
654
650
644
647
648
641
637
629
626
628
624
619
619
612
607
606
604
601
597
580
568
569
570
566
556
546
538
536
535
531
519
509
499
491
492
491
488
481
480
478
473
465
458
450
443
436
433
427
416
412
416
411
407
402
397
395
396
394
389
382
384
388
385
373
366
367
372
374
379
381
384
384
384
377
371
366
365
359
363
366
371
380
388
391
386
375
365
371
375
378
380
380
381
386
390
391
397
403
406
408
403
392
386
392
395
397
401
394
392
394
399
408
414
408
409
409
409
416
416
417
416
410
404
405
406
408
409
421
430
426
424
422
423
433
449
452
450
442
432
432
438
439
434
429
434
433
433
439
443
445
448
444
444
446
446
450
459
458
456
452
441
438
440
444
444
446
450
462
469
471
464
458
451
451
456
453
449
441
440
440
439
447
452
458
462
461
464
465
468
466
465
463
461
463
463
461
454
452
462
474
469
469
468
455
454
457
455
457
458
465
470
469
472
469
461
457
456
462
469
472
469
464
463
465
466
471
475
476
473
470
471
476
483
485
484
468
461
452
455
456
456
459
459
461
458
465
466
467
467
465
463
465
464
464
471
477
479
475
470
471
474
476
476
465
458
455
456
460
458
459
463
471
476
475
473
471
475
480
484
486
489
495
499
494
488
484
479
482
489
496
496
498
505
501
487
479
484
490
495
497
499
504
512
518
519
518
520
526
527
528
529
531
529
526
529
533
531
524
520
520
512
502
502
511
522
524
528
525
529
534
531
521
512
511
510
511
513
509
501
494
489
489
493
494
492
489
487
492
491
492
497
498
499
501
493
483
479
468
460
447
432
428
425
432
435
437
440
446
445
445
449
454
458
459
447
443
451
451
451
453
451
450
451
455
459
456
452
457
463
462
462
464
462
454
454
451
452
457
452
441
438
443
450
455
455
458
463
466
461
459
464
464
453
451
451
447
447
445
444
445
444
449
450
444
434
432
433
438
440
442
446
454
461
463
468
470
477
500
532
558
594
631
668
706
737
768
798
823
851
871
895
917
944
972
990
990
990
990
990
983
947
881
779
681
605
547
482
398
310
239
166
88
19
17
17
17
17
17
17
17
17
17
24
56
87
118
152
175
192
203
213
229
247
265
280
295
311
324
333
350
376
396
409
426
442
449
459
476
487
494
503
511
518
520
529
536
538
534
537
540
542
540
541
543
542
544
549
558
566
567
566
566
558
561
562
558
557
549
546
553
564
560
554
560
565
557
554
558
559
556
553
546
539
539
549
558
563
561
559
565
565
565
563
567
575
574
570
570
573
577
578
581
582
586
593
585
577
574
574
565
564
569
575
577
576
576
578
586
584
585
595
604
602
600
601
603
605
606
605
605
599
600
603
607
607
613
619
621
613
615
623
631
640
644
646
649
640
634
633
631
631
628
635
640
643
648
655
661
668
664
661
662
661
667
671
678
680
677
663
654
655
660
661
651
647
655
655
649
651
656
650
641
641
654
659
651
644
642
640
640
636
633
635
637
628
620
606
605
605
608
608
607
605
598
588
586
584
579
572
557
547
546
546
542
534
526
517
513
507
506
506
501
491
480
468
461
464
462
447
431
432
432
430
425
420
413
411
410
414
412
407
396
387
377
374
376
376
377
380
379
377
379
375
368
366
366
372
376
380
384
382
376
372
368
363
367
371
365
365
371
377
377
379
379
382
384
382
383
380
376
377
380
379
378
377
378
387
388
384
386
391
396
404
411
414
407
403
404
409
418
410
401
398
405
415
421
420
412
412
416
417
417
414
415
408
409
413
416
415
420
429
438
439
434
429
427
429
428
432
436
441
446
447
446
443
435
425
428
434
440
448
453
451
449
451
453
458
453
452
455
460
453
452
452
446
443
438
443
452
457
461
462
462
462
458
458
459
457
450
435
434
453
462
459
458
463
464
460
463
460
454
454
450
450
453
455
457
463
462
466
467
468
466
466
465
461
456
451
451
457
460
460
463
469
467
464
464
464
459
461
465
466
464
462
468
470
462
462
466
469
470
469
467
465
464
469
472
462
458
460
465
468
473
469
465
464
465
468
472
480
480
474
474
472
471
473
474
483
483
473
472
477
486
493
492
492
491
495
493
485
479
477
475
481
486
486
493
500
491
473
470
480
490
494
497
489
490
502
502
505
509
516
521
526
521
516
515
516
513
507
504
509
517
518
507
499
509
519
517
520
521
520
516
513
513
510
503
503
501
500
500
502
501
499
489
490
490
493
493
492
499
506
501
495
490
482
477
470
459
456
458
455
452
450
450
459
461
465
463
453
448
451
452
462
464
458
451
451
450
445
445
452
456
453
450
444
441
439
442
455
462
461
458
454
448
447
451
450
453
456
460
465
466
466
469
469
457
448
445
446
456
463
467
460
456
451
453
447
450
453
456
451
449
453
457
456
453
454
455
456
458
462
457
453
447
442
440
443
445
451
471
500
531
564
598
632
665
693
729
767
803
833
857
886
904
915
931
951
961
958
958
961
954
919
861
782
701
632
572
509
446
385
322
243
155
96
51
21
17
17
17
17
17
17
17
32
56
86
113
137
162
191
205
217
234
256
264
271
279
294
319
342
358
364
374
387
405
419
431
447
459
475
488
498
507
507
506
512
516
526
536
540
540
542
543
539
538
540
541
540
542
550
554
551
548
547
552
559
566
573
576
574
564
557
550
539
536
542
541
544
554
558
568
569
567
572
569
571
572
572
564
560
555
558
560
559
559
562
571
573
576
585
581
571
561
557
558
562
570
576
579
575
565
572
580
588
591
592
587
585
590
595
595
592
584
578
581
585
583
587
594
596
596
599
604
607
611
612
610
608
605
610
612
616
619
625
627
628
629
630
632
637
637
642
647
646
646
652
652
652
656
658
657
656
650
649
654
664
672
668
661
658
657
657
661
667
668
665
664
661
655
649
652
647
643
636
626
624
623
626
637
644
653
650
647
645
637
631
627
627
631
631
628
618
606
590
575
562
557
552
554
557
552
545
542
537
530
524
520
513
507
504
498
488
482
477
469
461
458
452
447
443
442
439
431
427
426
422
416
408
401
396
392
386
384
387
386
383
381
380
380
381
378
382
386
383
378
372
368
371
369
368
371
376
382
380
372
374
380
379
366
365
364
366
365
365
376
387
390
392
390
384
379
372
370
377
387
390
386
386
392
394
391
388
387
387
388
385
387
393
397
402
404
406
405
409
413
413
411
410
413
415
412
410
411
412
417
417
415
416
419
422
424
425
427
426
420
419
419
417
427
439
447
449
446
440
441
444
439
429
429
436
441
446
452
455
461
462
458
457
457
453
442
438
444
450
448
442
440
441
447
457
458
455
453
454
448
446
448
452
458
459
461
460
458
457
459
461
457
458
457
460
466
468
465
459
463
461
459
463
469
474
474
475
473
468
458
447
443
446
454
459
465
469
466
464
463
460
461
458
463
468
468
472
471
467
469
468
467
465
464
464
463
463
463
464
466
473
478
478
476
476
477
470
463
453
450
451
458
464
467
468
465
462
464
473
474
468
465
466
470
474
476
476
475
472
477
482
485
482
482
479
480
483
487
487
483
477
473
474
482
496
505
509
513
519
529
533
523
518
521
525
521
518
513
509
503
500
498
497
504
507
509
512
516
517
511
512
518
523
516
513
509
504
506
509
510
507
497
485
481
480
483
487
489
494
502
503
498
497
492
483
481
480
476
465
456
447
447
454
462
463
460
460
459
449
443
445
446
449
460
462
465
461
447
438
434
442
442
442
447
455
458
456
453
453
455
452
449
448
451
456
459
462
462
459
461
459
455
456
456
455
454
450
451
451
454
454
451
453
458
462
466
466
466
466
469
470
470
468
459
455
453
445
441
433
432
437
445
449
460
464
457
452
446
446
445
456
471
496
524
550
576
608
642
674
713
751
780
800
818
844
871
890
896
912
921
927
939
950
952
936
888
812
716
634
568
505
445
385
324
262
184
112
53
18
17
17
17
17
17
17
17
18
51
83
116
142
169
188
209
227
245
257
269
278
283
298
313
332
352
367
372
385
399
421
446
458
459
463
473
485
499
504
508
517
523
526
531
532
535
533
537
543
548
545
541
542
548
551
555
557
559
565
569
571
574
568
566
563
564
562
562
566
567
556
547
543
544
544
547
549
551
562
568
572
571
571
576
579
581
580
576
569
563
557
561
563
561
567
569
568
572
574
571
565
565
570
568
573
580
583
581
576
579
576
573
573
579
582
583
585
589
590
594
591
593
595
599
602
600
591
589
592
600
601
602
609
614
610
614
619
626
632
633
635
635
632
631
631
628
632
638
644
647
642
642
641
640
642
652
657
648
647
654
663
669
664
662
667
668
658
651
652
651
651
654
655
657
660
665
669
664
660
656
650
643
631
620
618
620
621
622
621
625
627
625
620
615
615
615
613
606
608
602
592
582
571
566
569
566
554
533
520
516
517
517
511
505
496
488
481
476
474
471
464
456
449
441
433
432
432
429
424
419
411
407
404
401
398
395
395
389
384
379
377
378
377
373
368
368
370
372
374
371
372
377
377
371
362
359
365
364
357
357
363
369
376
384
392
395
392
385
380
375
373
376
377
377
380
380
381
382
379
380
382
386
389
387
380
377
377
387
393
387
386
391
393
395
398
400
398
399
404
411
416
414
408
405
405
408
411
419
423
427
424
420
412
411
419
428
434
437
439
441
435
421
412
409
415
421
425
429
434
433
432
435
434
433
439
444
443
439
437
439
441
447
447
450
446
449
452
456
455
450
449
453
450
449
452
451
453
448
444
440
451
460
463
449
443
449
453
455
456
458
460
460
460
457
459
464
467
461
457
457
458
459
459
457
457
455
461
464
465
463
460
462
460
449
448
452
455
458
468
470
472
472
474
473
466
460
458
456
455
459
466
468
466
461
459
459
467
468
468
473
478
478
474
471
464
451
444
454
463
466
461
466
473
473
474
474
470
471
474
470
472
475
480
483
482
485
494
492
483
477
468
464
467
475
479
480
475
472
470
476
482
490
501
509
511
504
506
511
516
519
522
518
513
513
512
519
518
521
524
521
514
514
514
512
516
516
508
507
512
520
518
505
494
489
486
490
493
500
505
503
495
491
489
492
496
499
499
494
493
495
497
498
492
479
471
461
451
443
446
443
435
433
435
436
438
448
453
454
456
453
449
442
441
444
448
454
455
461
463
454
449
444
438
437
441
448
453
455
450
450
451
451
446
442
448
454
454
452
458
460
458
453
442
443
457
468
471
470
460
456
458
458
454
448
443
452
456
462
464
461
461
463
464
463
456
448
449
450
447
446
446
448
454
451
449
456
463
480
502
526
553
588
626
664
701
737
774
809
839
866
882
901
918
927
938
957
978
990
989
989
989
955
884
793
700
619
548
463
375
299
234
163
79
18
17
17
17
18
18
17
17
17
17
42
81
115
142
165
181
193
202
222
243
255
266
284
297
311
330
348
367
379
394
406
418
432
450
461
475
484
487
494
501
503
502
506
518
523
523
523
528
533
538
537
536
538
541
540
539
539
537
535
536
539
547
559
560
552
539
537
545
556
558
560
562
560
555
545
541
534
531
529
534
540
543
544
544
548
550
555
564
562
553
553
550
551
550
555
552
551
552
559
561
559
562
569
572
572
567
565
569
570
570
568
569
571
571
571
576
579
578
582
584
585
586
589
587
590
593
584
578
580
581
581
584
581
581
587
590
593
594
600
606
618
630
635
631
631
633
633
633
639
639
634
636
637
633
626
627
631
635
638
637
639
646
651
652
654
655
661
664
661
651
644
638
635
639
639
643
646
645
634
633
637
638
635
632
631
632
633
625
617
618
621
623
623
616
609
606
604
596
585
581
578
567
557
551
550
551
545
543
538
531
521
516
515
509
508
503
492
481
470
464
462
455
450
449
446
439
434
431
421
410
404
402
399
401
402
397
390
379
369
359
354
352
355
362
359
357
358
356
355
354
355
362
366
365
359
355
359
356
357
362
362
356
355
356
360
363
363
364
358
364
368
358
351
352
352
360
372
379
377
369
362
359
361
365
368
372
376
379
381
392
395
392
388
381
378
385
390
389
381
383
384
385
389
395
394
399
403
401
400
395
389
385
391
392
394
401
404
409
411
408
411
419
421
414
411
414
414
414
418
417
416
424
430
424
415
412
409
408
413
417
421
420
423
425
425
429
430
432
433
433
432
435
438
441
445
439
429
428
434
437
434
419
426
434
436
442
447
451
452
453
447
444
447
443
434
434
439
440
440
433
430
428
440
451
448
445
446
441
438
433
428
431
430
433
438
444
443
441
442
442
441
441
442
443
441
440
441
443
441
440
441
443
444
448
444
448
454
453
450
442
439
440
439
443
446
451
449
443
439
434
434
435
437
439
436
434
430
430
436
435
437
444
451
454
450
449
448
448
444
443
442
441
447
440
431
433
442
452
454
453
449
445
446
446
442
445
449
446
446
446
439
436
448
455
455
450
444
443
446
454
463
467
469
469
470
472
475
478
478
474
470
468
460
459
464
465
461
453
453
454
460
466
479
486
488
490
498
502
506
511
515
506
498
496
496
501
499
492
482
473
475
479
482
488
495
499
502
504
509
510
508
503
497
498
496
493
483
475
465
461
467
476
477
465
457
462
467
466
465
458
452
450
450
450
439
432
426
425
424
423
422
421
418
417
423
432
438
436
435
441
450
446
429
414
412
421
414
414
416
419
422
423
423
426
432
434
433
429
416
414
419
426
429
431
428
422
415
409
407
410
417
421
418
421
423
424
428
429
426
427
432
431
423
417
421
427
432
434
439
442
442
442
439
428
414
405
402
401
402
403
407
411
414
414
414
423
441
470
497
532
576
615
651
686
715
748
789
823
847
867
889
916
938
959
975
987
990
990
989
962
922
852
751
657
586
523
456
383
301
222
139
48
17
17
17
17
17
18
17
17
17
17
17
36
66
96
120
138
154
169
177
192
212
235
256
267
282
295
311
332
350
365
379
391
399
404
420
439
454
462
473
485
489
489
493
501
508
511
511
503
494
494
500
507
512
515
516
510
509
509
512
512
513
518
526
524
516
515
519
525
529
530
522
517
520
522
524
522
523
524
525
529
536
535
529
526
526
537
547
551
548
538
535
533
530
532
537
542
546
547
548
540
531
530
534
536
537
540
542
544
548
548
546
548
554
552
549
552
553
557
556
556
561
560
566
570
571
572
573
575
580
586
592
588
579
578
577
580
588
598
602
598
586
574
574
581
589
597
602
606
610
615
619
626
632
629
627
629
632
630
622
620
620
624
631
637
634
635
640
646
646
646
643
634
629
631
636
638
638
637
635
623
613
611
617
629
628
621
616
615
612
608
604
599
601
600
596
596
593
588
584
585
582
575
569
562
557
551
540
533
530
527
527
522
512
506
503
497
481
467
469
474
476
475
458
439
424
415
411
407
404
400
395
390
382
377
375
374
371
364
360
357
355
356
356
361
370
366
355
335
330
334
343
344
341
339
339
338
337
343
350
354
358
351
345
345
345
347
347
342
338
336
349
364
358
346
350
353
356
353
353
366
373
368
362
356
357
357
359
370
374
377
382
391
389
380
375
370
364
365
370
376
379
383
387
390
391
388
386
389
393
391
385
384
389
396
398
398
400
403
407
413
416
422
413
397
393
396
397
401
409
413
418
418
419
422
424
424
426
432
432
428
416
410
409
410
413
421
422
425
428
426
427
426
423
420
422
423
426
430
433
431
427
430
430
432
433
432
436
437
434
432
435
432
441
445
441
435
438
444
449
452
445
435
433
436
438
446
453
449
446
447
447
442
441
442
446
446
452
461
468
471
468
460
453
443
441
441
440
436
431
429
437
444
443
442
445
445
445
443
444
445
448
444
443
447
455
463
467
453
440
434
432
435
437
443
449
448
446
445
449
452
451
456
466
469
462
454
445
439
450
456
461
462
462
462
466
470
472
472
470
471
468
465
464
472
472
471
472
474
486
499
505
498
491
493
502
507
508
514
521
519
517
517
514
516
514
508
501
500
500
500
504
498
500
498
505
508
505
502
493
483
480
477
477
478
479
480
488
486
478
471
472
475
475
477
483
497
498
489
480
479
479
480
472
463
448
432
421
425
425
424
427
429
427
425
431
432
427
425
422
424
428
437
442
437
446
453
447
450
452
455
460
457
449
447
452
449
442
440
445
442
436
439
445
448
449
443
440
436
434
431
436
445
448
449
450
447
446
444
435
436
439
441
444
447
452
458
459
447
449
458
467
466
460
449
439
431
429
418
409
414
426
432
433
443
448
462
485
495
509
535
567
611
655
684
715
745
780
813
837
854
883
907
923
945
955
967
977
989
989
973
929
852
760
673
599
538
465
391
325
263
188
120
66
20
17
17
17
17
17
17
17
17
39
74
96
119
142
171
192
207
221
234
246
256
275
299
317
329
343
354
366
369
387
406
423
434
449
458
468
476
481
486
492
499
499
500
504
514
528
537
539
542
545
538
530
522
522
529
536
536
533
540
541
544
543
544
544
540
538
541
547
552
557
562
564
559
555
557
561
563
563
559
558
559
556
557
558
556
553
553
541
533
546
555
566
565
555
552
557
556
555
557
563
565
565
564
564
569
574
578
577
576
579
579
574
569
567
568
571
574
578
580
594
600
603
593
581
577
582
591
596
597
595
598
599
605
608
611
613
625
630
631
627
626
616
613
612
613
622
634
649
656
653
638
624
622
632
640
644
650
658
662
665
661
661
664
671
673
668
655
649
639
640
654
656
659
666
661
653
644
643
651
656
651
648
652
647
643
638
637
634
630
629
625
615
605
601
605
605
604
600
593
587
584
577
572
566
564
557
554
552
547
545
541
532
531
534
526
507
492
480
479
481
482
481
473
463
441
426
414
402
399
406
406
401
397
391
388
392
395
389
387
388
384
382
378
378
381
377
367
363
367
368
373
378
378
376
367
369
366
363
364
368
375
379
373
368
374
378
384
396
396
386
376
366
367
370
368
371
377
377
382
381
386
391
391
389
383
382
386
391
394
397
401
402
397
395
394
397
400
397
397
399
404
407
409
404
403
406
417
421
421
416
415
415
419
423
420
419
422
419
416
416
417
425
435
438
439
437
435
438
437
436
434
435
439
443
447
452
453
450
448
460
469
462
448
438
435
433
435
436
437
441
446
448
448
460
469
467
467
462
449
438
448
455
459
464
472
470
468
472
479
474
464
459
459
457
453
457
460
466
467
464
461
459
461
463
468
464
463
467
467
473
469
468
465
458
455
459
467
474
477
467
454
445
441
447
456
461
463
471
476
477
478
481
475
470
468
466
460
457
459
461
459
461
464
467
473
478
479
480
476
469
475
485
489
485
479
478
478
482
491
499
496
490
494
502
509
509
504
490
475
472
482
493
499
502
504
515
536
552
550
536
530
525
523
518
516
516
518
521
525
518
510
511
513
515
521
525
522
517
521
521
529
533
527
511
504
505
506
499
496
494
494
498
496
492
492
493
496
494
492
491
489
493
494
492
487
481
477
470
460
452
450
454
459
456
446
449
450
454
454
450
452
459
464
467
470
477
479
472
462
454
452
455
456
455
457
456
453
448
452
459
464
465
465
463
465
467
472
474
477
473
461
455
458
460
467
473
470
466
463
455
454
458
467
470
468
469
468
462
462
461
456
459
463
470
472
465
463
463
467
462
456
442
432
434
434
433
433
434
436
446
465
489
515
540
573
609
640
666
692
726
762
794
822
849
879
904
923
935
938
941
950
960
965
951
914
846
758
682
619
559
489
428
364
295
218
146
89
49
22
17
17
17
17
17
17
17
34
80
112
139
159
183
205
220
235
251
268
280
294
304
314
331
337
355
371
386
403
417
432
444
450
462
484
499
502
508
511
513
513
515
523
527
527
534
544
553
562
573
580
575
564
559
557
557
563
567
566
564
560
563
564
561
557
552
553
552
548
549
552
565
577
579
580
579
580
582
580
573
571
568
569
570
574
573
570
570
571
575
577
574
567
569
581
591
585
577
577
583
586
584
584
585
587
587
585
587
587
590
595
591
579
575
578
586
593
594
596
596
598
596
594
599
603
604
605
608
619
623
622
616
616
622
626
628
633
635
633
635
636
635
628
625
632
640
646
652
657
659
661
663
663
666
666
657
661
669
677
677
675
679
686
683
680
684
678
676
676
674
666
656
656
667
675
677
666
661
659
658
658
659
659
653
642
639
636
632
631
626
620
614
614
618
616
612
612
603
600
593
588
580
576
574
567
559
556
549
543
540
538
530
519
509
499
491
487
480
475
468
460
457
454
451
448
438
427
423
415
413
417
420
406
400
392
386
384
375
371
370
371
372
379
386
387
381
377
378
379
375
374
377
377
378
380
378
375
380
384
386
389
393
391
381
377
382
382
384
388
386
388
383
371
369
372
373
379
385
389
394
398
399
400
400
399
403
398
388
383
388
398
403
410
418
422
419
419
416
414
421
421
420
414
412
409
414
417
415
414
412
416
423
433
440
442
439
438
444
450
444
437
433
432
435
436
440
444
442
441
440
437
434
434
433
436
443
444
447
450
451
454
453
456
455
451
450
450
450
447
448
450
458
468
472
470
468
464
458
455
456
454
456
457
459
461
459
460
467
469
467
472
483
485
480
477
479
482
474
463
454
455
457
460
459
465
467
467
466
469
473
479
485
482
478
472
463
457
468
474
478
478
480
487
489
490
487
484
482
476
470
474
483
487
483
480
473
469
470
474
482
491
502
506
503
500
496
489
479
479
482
487
487
481
477
482
485
486
480
479
480
487
496
503
512
516
517
522
528
534
539
534
537
530
529
527
522
520
517
514
515
519
510
510
512
518
521
523
523
526
529
533
534
532
536
531
520
506
499
493
492
494
497
497
493
492
496
502
506
501
496
496
493
481
477
477
479
478
472
464
461
458
457
462
460
453
447
445
445
447
453
460
463
466
469
457
451
458
464
465
463
466
469
468
463
467
467
463
454
446
448
458
457
452
457
462
462
462
463
464
460
453
454
466
474
481
474
460
459
458
458
457
456
458
465
471
475
476
470
464
461
456
457
461
465
466
460
453
456
457
458
454
452
451
457
460
458
461
471
483
501
516
534
565
601
640
677
709
752
802
834
857
879
901
920
931
947
970
988
990
989
989
989
982
929
849
758
667
591
533
463
391
316
238
159
78
25
17
17
17
17
17
17
17
17
49
87
116
148
171
180
194
208
216
232
247
265
284
299
314
324
336
352
370
392
392
405
431
451
467
479
486
491
499
502
505
510
510
522
531
531
534
535
538
540
540
537
538
545
543
534
535
543
544
548
555
558
558
559
558
557
562
565
563
555
546
551
558
556
555
560
559
558
555
556
564
567
561
563
565
570
571
572
575
576
574
566
561
560
561
559
559
564
560
568
571
574
585
589
586
582
577
569
571
564
575
582
586
588
584
587
587
595
601
597
590
595
599
598
597
586
586
594
591
579
591
600
596
599
599
606
611
621
624
631
636
638
634
628
629
629
629
636
639
641
647
655
665
667
674
676
676
676
669
670
666
662
664
673
680
679
678
677
672
666
669
665
658
654
654
659
662
660
656
654
653
654
649
653
657
656
656
657
652
641
643
641
632
634
637
629
618
609
607
598
591
582
576
572
571
568
572
568
558
547
542
537
531
519
513
509
503
501
498
500
492
472
452
447
441
438
436
435
435
423
414
413
415
412
415
411
409
408
404
412
406
403
397
387
377
377
379
382
380
375
372
367
364
367
375
379
384
397
401
402
393
383
377
376
374
372
385
390
390
383
382
391
391
388
390
391
384
380
379
378
382
388
392
399
402
398
397
402
409
404
399
394
392
394
395
389
393
407
409
409
407
406
408
415
416
414
414
417
419
420
420
421
428
434
432
433
431
435
434
430
432
435
438
433
432
432
438
446
446
438
439
440
447
440
433
440
450
450
450
455
457
455
453
457
453
451
453
455
455
459
462
461
459
457
452
447
448
451
455
462
464
464
464
464
458
453
450
452
455
459
464
464
457
449
455
463
456
445
441
441
449
457
463
456
450
446
434
436
451
451
451
450
454
459
462
466
470
473
474
477
477
472
467
477
479
479
485
483
481
480
474
467
467
477
490
490
480
475
480
485
482
484
484
482
483
486
488
490
493
493
494
487
482
479
478
475
469
474
476
479
480
483
482
479
472
471
466
464
463
460
464
470
472
472
473
483
493
494
488
490
501
501
505
500
492
490
492
501
511
513
511
499
483
477
470
468
475
486
484
486
487
486
491
501
514
514
513
517
520
524
526
529
531
533
534
539
540
539
538
536
535
536
536
538
538
531
521
520
528
535
538
538
543
535
530
517
505
502
506
503
490
490
496
496
496
500
506
505
505
509
510
511
504
495
485
473
468
462
450
450
451
450
452
452
457
459
456
457
460
457
455
456
448
447
452
455
460
461
455
455
459
463
463
464
463
460
455
459
462
457
454
454
455
457
464
466
458
447
440
438
442
451
458
461
464
463
464
462
462
463
467
468
462
459
453
453
453
455
454
457
454
455
454
459
462
465
463
454
448
443
443
443
446
446
443
446
450
457
472
488
502
528
561
591
624
669
708
741
777
817
842
866
893
919
944
968
988
990
989
989
989
989
989
989
973
873
768
682
607
539
457
376
304
227
130
41
17
17
17
17
17
17
17
17
17
17
46
89
122
154
176
189
200
214
226
238
250
261
278
296
319
334
348
360
375
390
404
421
441
457
466
470
482
496
498
500
506
515
520
529
538
540
538
544
545
545
548
545
547
552
555
560
560
559
556
553
555
558
555
557
558
554
548
544
552
553
549
547
549
556
552
544
542
547
554
562
565
565
560
562
563
565
570
574
576
574
567
565
568
561
562
567
572
578
583
588
581
573
578
579
578
579
579
581
583
586
590
594
604
604
600
601
593
587
581
583
587
598
614
618
615
613
609
606
605
602
600
606
607
605
609
616
617
621
624
633
632
627
625
631
635
639
648
649
655
659
663
659
654
652
654
653
656
662
664
664
662
659
660
662
663
666
671
679
676
674
673
672
668
669
672
673
672
673
671
669
668
662
650
647
645
647
649
649
643
647
643
634
627
625
625
622
623
624
617
608
602
599
599
592
582
574
569
561
548
540
543
541
535
530
523
511
501
494
492
488
483
474
470
467
463
464
461
451
439
435
421
414
412
412
406
401
396
390
384
381
385
389
386
386
383
382
376
375
376
376
373
366
363
364
365
368
367
367
369
379
385
387
380
372
369
372
375
377
379
378
380
370
363
368
375
385
387
384
382
382
384
383
380
378
382
388
396
404
409
410
404
400
397
393
391
395
395
399
403
409
414
417
418
419
416
415
414
425
430
424
420
418
409
407
412
420
427
432
435
436
434
435
435
434
432
427
428
435
434
432
427
426
428
433
437
445
454
452
449
446
438
435
443
445
452
454
448
448
454
454
453
450
451
456
455
457
454
446
452
460
462
456
454
457
453
449
456
461
462
459
463
460
459
468
472
471
468
466
472
478
475
475
476
484
486
482
479
474
467
463
461
465
469
469
463
458
459
459
453
450
458
464
472
477
476
470
470
472
478
485
487
480
473
471
473
464
454
448
455
462
466
464
464
460
474
485
483
481
478
476
473
470
461
454
463
467
471
473
477
477
476
472
476
481
482
480
474
476
483
484
489
496
497
498
496
491
484
485
485
481
481
486
492
493
490
486
487
494
498
501
508
510
514
513
516
524
527
530
534
533
533
531
532
536
529
522
511
506
507
510
511
518
521
518
513
514
520
519
514
519
525
525
521
516
510
509
505
502
502
499
495
492
496
502
509
520
523
519
516
515
510
501
488
475
467
457
448
448
449
442
431
429
438
453
460
455
452
464
464
461
455
448
446
451
454
457
459
457
457
459
460
463
464
462
461
460
458
457
451
442
447
455
464
466
462
462
465
465
460
457
455
460
469
472
469
465
458
451
450
462
460
458
455
453
447
448
458
469
469
470
466
462
460
459
457
452
451
447
443
442
444
455
454
451
452
453
465
481
502
527
553
580
617
655
693
723
754
786
818
844
870
894
921
938
953
974
990
990
990
989
989
980
929
847
752
669
606
544
479
414
350
281
194
120
51
17
17
17
17
17
17
17
17
38
64
94
125
155
180
199
207
217
231
245
259
277
300
320
333
329
330
349
372
395
402
410
425
439
456
471
480
493
505
511
518
521
530
540
542
538
534
534
539
549
550
542
543
547
546
547
549
553
552
551
543
532
533
543
555
555
547
545
544
545
546
550
551
561
563
559
558
556
560
567
568
566
563
568
573
563
554
560
569
571
569
571
574
575
571
567
558
551
559
562
562
563
564
568
568
568
568
573
570
569
577
580
584
587
586
588
591
592
597
603
595
592
599
603
596
595
595
604
614
612
610
607
599
601
601
601
605
611
620
628
633
637
636
642
643
641
647
646
639
635
632
634
644
652
654
659
662
665
671
668
663
665
666
663
665
667
672
678
675
665
656
653
657
662
658
655
650
646
651
651
646
638
643
651
652
649
644
643
642
641
640
635
631
626
623
619
618
606
598
595
593
592
588
585
582
578
566
557
554
547
538
534
538
530
513
494
486
485
482
479
474
473
469
466
460
455
443
432
424
425
427
426
412
395
388
385
384
381
378
374
380
388
393
397
390
380
372
373
371
370
366
367
366
362
372
383
395
399
394
388
382
380
381
379
376
377
374
371
369
375
377
377
385
395
393
382
371
374
385
385
379
377
382
396
401
404
399
401
400
400
399
397
400
403
406
408
410
410
418
424
420
416
421
431
434
429
420
415
409
405
405
402
404
407
409
410
414
421
426
426
426
428
431
432
428
429
432
437
436
443
447
444
440
441
442
439
444
453
452
454
460
457
454
458
457
449
447
458
466
477
472
458
449
448
447
441
440
442
447
449
451
458
468
470
471
471
467
471
472
465
459
454
453
458
464
473
476
475
476
479
479
472
470
472
469
466
463
460
468
473
470
468
470
470
470
478
479
480
478
472
471
471
469
463
464
469
479
488
491
484
472
461
460
467
458
455
458
456
462
466
468
470
476
482
478
474
475
483
487
486
482
487
494
491
482
480
480
478
488
492
489
485
484
485
487
491
481
477
481
485
489
499
512
516
515
512
516
523
531
532
530
527
527
524
519
524
523
522
521
513
498
497
501
500
504
504
503
514
518
515
513
516
523
526
524
515
510
512
508
503
497
487
485
487
491
496
500
499
496
491
490
490
489
487
479
476
467
450
446
450
455
457
461
463
466
463
456
443
438
438
445
449
445
450
454
453
449
450
449
443
441
449
459
456
455
456
461
464
465
464
467
466
462
461
455
448
447
448
442
441
442
447
453
461
465
462
458
453
455
460
460
458
459
460
458
458
457
456
450
455
461
462
463
467
470
468
462
455
450
448
451
454
455
449
438
436
436
443
446
456
472
495
522
556
596
635
665
690
729
776
802
824
849
870
890
911
925
936
941
945
955
955
943
905
848
776
701
633
574
518
458
396
333
268
191
128
86
49
17
17
17
17
17
17
17
29
61
87
114
144
175
202
220
236
249
262
271
279
290
302
314
327
347
365
380
390
396
405
421
437
449
455
462
482
497
500
503
507
509
515
521
530
535
536
536
537
538
538
542
543
542
548
555
559
561
560
561
559
560
562
561
559
558
559
550
546
550
552
555
558
569
575
576
571
569
568
566
567
561
556
558
566
573
570
562
553
547
548
556
559
560
559
557
560
566
574
575
578
578
580
579
571
563
565
565
574
576
574
577
586
589
591
596
601
593
586
580
583
586
585
591
592
588
584
586
589
592
596
603
606
605
603
605
609
623
629
629
632
635
637
636
632
626
624
630
644
656
659
655
651
651
657
664
668
671
668
665
672
676
675
669
661
657
655
652
649
650
651
651
647
645
653
660
662
663
663
656
652
647
646
645
643
640
634
628
627
630
629
632
634
630
624
620
609
597
588
580
574
568
565
561
554
548
541
536
535
525
506
500
495
487
486
486
486
480
474
464
455
446
443
442
445
444
437
426
413
404
392
383
387
391
392
389
388
388
385
380
383
380
381
382
383
387
382
376
370
356
348
350
352
358
362
368
371
369
370
367
366
368
376
379
378
375
373
382
382
379
380
381
379
381
384
387
387
386
384
380
377
377
385
388
389
386
393
400
402
402
399
399
397
399
402
404
403
409
411
408
407
404
403
405
408
412
420
420
411
409
417
426
428
425
421
421
431
439
440
439
441
446
444
440
435
438
436
435
432
431
433
439
443
441
444
441
438
431
433
438
440
445
452
453
446
440
439
437
434
441
447
444
441
451
459
463
464
460
454
454
464
471
471
464
462
466
468
470
465
461
454
451
451
452
448
448
454
459
463
464
463
461
457
458
470
475
475
467
455
451
456
464
467
468
468
460
456
458
461
462
467
466
460
458
455
456
463
467
473
474
471
468
468
474
480
479
468
457
448
444
451
457
462
468
473
468
466
470
472
477
479
476
476
475
474
473
478
487
493
492
489
488
492
491
486
482
480
482
480
484
492
504
503
492
474
471
482
486
483
481
484
495
502
510
515
520
516
516
522
520
515
512
506
494
493
500
509
513
517
520
518
518
516
516
518
525
529
525
518
511
504
500
496
487
483
486
487
489
492
489
488
487
489
488
490
494
491
475
466
462
456
452
453
453
448
445
450
452
451
448
453
453
451
453
449
446
444
447
450
454
457
455
452
450
451
454
459
461
460
456
452
446
450
452
456
459
456
451
453
455
452
451
449
446
448
454
456
455
460
465
474
474
471
466
460
458
456
460
462
459
453
446
442
447
456
461
459
456
454
450
448
448
447
448
451
452
455
454
455
454
454
460
473
497
522
547
573
607
640
676
715
754
791
822
845
866
891
916
931
934
945
958
975
989
989
990
977
920
837
742
665
596
530
461
390
320
251
160
70
17
17
17
17
17
17
17
17
17
49
85
118
147
167
182
194
208
219
228
242
259
279
293
312
332
351
353
361
375
393
416
434
444
447
454
462
469
484
499
506
507
511
521
526
528
532
534
537
541
543
542
537
531
534
536
539
536
533
539
543
547
549
550
547
541
534
536
541
541
549
551
552
556
559
557
544
542
547
547
540
536
543
552
558
557
555
555
555
553
556
558
561
564
565
568
571
567
561
558
559
565
567
569
570
577
578
572
567
566
563
565
568
572
572
571
571
574
576
576
575
575
576
580
581
585
593
596
592
588
592
597
601
604
610
614
614
615
611
606
615
623
621
615
616
616
620
623
626
629
635
635
632
634
640
642
647
652
654
654
651
651
657
659
655
657
652
656
654
650
649
651
654
651
650
646
646
649
651
652
643
639
637
635
632
633
642
644
637
631
625
627
633
635
631
622
613
605
605
608
606
598
593
593
588
578
559
539
533
540
543
532
525
520
512
506
497
479
466
465
467
468
469
465
452
445
445
442
439
436
429
418
415
415
411
404
408
409
402
389
381
384
379
366
352
347
348
351
354
369
378
378
378
374
369
371
366
360
363
370
376
374
377
375
373
373
373
375
376
375
381
380
378
381
392
395
392
384
376
376
383
389
398
403
406
407
406
406
403
390
389
389
389
385
387
386
393
399
402
408
411
408
408
412
413
417
417
417
416
423
420
418
423
422
421
420
426
429
435
437
431
419
410
409
421
432
438
440
435
436
437
436
436
440
444
438
434
436
439
442
442
440
439
441
444
450
446
446
450
453
451
443
444
448
448
448
452
450
441
438
438
442
453
463
470
470
466
458
462
474
480
472
464
456
455
458
458
459
456
456
457
452
446
447
453
455
458
458
456
463
469
473
474
470
471
474
477
480
489
487
470
465
456
456
455
455
459
464
467
467
469
475
466
460
464
465
467
463
458
456
456
459
464
465
468
471
471
474
479
483
481
476
467
465
464
459
451
456
464
471
480
481
486
488
482
475
472
468
463
455
458
467
468
471
466
462
462
463
469
470
470
472
476
478
474
478
484
488
487
490
491
490
490
492
490
483
484
483
485
496
501
502
488
473
466
470
477
481
485
487
492
498
498
501
507
515
521
529
529
529
534
536
530
524
517
521
525
522
521
526
535
536
528
516
513
515
519
521
523
525
528
528
524
519
509
507
506
503
504
500
497
489
485
488
491
496
496
493
490
496
496
492
488
485
470
447
431
422
421
426
439
446
451
457
463
458
458
456
459
457
448
443
448
448
448
448
452
456
457
453
451
457
460
461
462
457
454
450
445
449
453
453
455
459
454
453
454
456
454
456
457
458
459
455
452
448
447
453
455
453
460
460
460
459
459
460
461
460
458
458
453
447
449
446
448
455
455
454
452
456
460
457
450
445
442
444
462
484
503
516
545
576
622
656
691
725
757
792
834
866
896
923
950
971
983
990
989
989
989
989
989
990
940
856
762
675
608
547
471
399
327
256
169
80
17
17
17
17
17
17
17
17
17
27
61
95
123
146
170
191
199
199
211
230
244
259
275
288
302
320
339
364
387
393
404
417
435
449
458
471
481
487
495
515
524
518
511
517
518
525
530
536
535
535
539
537
536
540
542
543
543
544
543
535
528
527
537
543
542
540
538
542
545
544
543
545
554
561
554
546
544
550
557
562
569
569
567
567
562
562
557
555
563
566
565
563
559
558
562
564
558
555
556
556
555
556
559
564
564
561
563
568
571
575
577
579
580
579
580
583
584
581
578
582
590
593
591
593
595
602
600
601
598
599
602
594
590
592
597
604
610
615
617
621
620
620
621
621
622
622
626
631
639
639
642
646
651
659
663
664
669
665
659
651
648
647
653
657
657
657
661
666
662
661
659
660
663
667
669
665
666
666
665
659
653
653
648
640
639
637
638
639
635
634
637
632
624
623
624
626
629
620
608
599
594
588
582
579
586
581
567
562
559
555
546
535
526
518
511
505
498
487
484
480
473
466
459
456
453
446
443
441
429
420
419
422
417
410
399
394
388
388
393
390
382
369
362
366
369
372
374
372
369
366
361
356
356
362
366
368
372
372
369
368
365
364
364
365
369
379
379
370
365
367
371
376
384
388
384
385
387
385
386
384
380
383
389
397
388
380
372
369
371
376
388
393
398
404
406
406
410
410
410
413
418
413
410
411
406
400
392
395
400
405
410
414
417
420
419
418
417
412
413
420
423
419
419
421
427
431
435
436
435
438
438
437
431
430
433
438
443
443
442
443
448
450
446
442
448
453
451
449
451
449
446
441
441
447
455
464
462
455
454
454
451
447
451
447
444
444
450
456
456
458
458
456
462
470
476
477
473
462
448
450
447
444
446
455
464
471
472
469
461
461
460
461
461
461
459
456
456
454
454
458
459
461
461
463
466
465
469
467
464
467
468
468
472
469
463
464
465
466
467
467
465
472
473
473
472
471
479
479
478
471
467
465
466
462
464
480
496
496
493
473
454
448
445
446
452
458
464
466
463
467
466
464
463
464
467
466
465
468
472
476
476
469
461
463
465
468
472
476
474
475
476
472
472
469
467
473
476
482
475
468
462
461
466
471
478
481
482
489
491
500
499
489
489
497
501
497
496
492
488
487
490
496
496
492
496
504
514
512
507
508
522
539
540
535
532
527
527
528
530
522
513
512
521
528
524
517
524
530
525
520
519
521
523
517
513
521
528
529
522
513
502
494
495
495
497
503
509
516
518
513
499
496
493
496
500
503
495
472
458
455
449
445
451
452
453
453
449
449
457
461
457
461
463
464
461
461
458
448
445
445
450
455
459
459
454
448
439
443
455
457
459
455
454
458
460
451
446
448
447
442
447
450
452
461
469
471
465
458
451
455
460
460
459
454
453
450
446
446
453
462
465
466
468
471
469
465
463
463
458
448
446
445
443
443
440
444
453
457
458
457
451
453
469
489
516
547
579
626
670
704
729
761
797
831
866
895
921
944
962
973
989
990
989
989
989
989
990
959
870
770
689
616
556
486
415
342
267
181
108
50
17
17
17
17
17
17
17
17
34
66
90
115
141
166
183
197
207
220
242
255
263
278
296
315
337
355
369
381
391
408
420
434
448
460
466
466
479
498
498
498
504
510
525
532
530
535
543
548
551
555
554
545
532
527
526
526
529
532
538
545
549
554
553
544
543
539
539
547
553
553
552
549
546
551
552
554
554
555
559
555
550
546
546
549
549
551
557
563
564
565
564
563
562
559
560
563
567
572
571
566
568
567
563
561
562
572
583
591
590
588
579
571
567
565
563
563
569
579
587
591
592
593
592
589
592
595
603
613
616
616
617
610
605
603
604
606
608
610
618
627
620
616
616
623
635
640
637
639
644
650
653
648
646
647
655
655
663
667
668
658
659
658
657
654
653
655
658
665
662
664
669
667
657
652
647
645
646
645
643
644
649
652
654
649
644
648
649
653
647
641
642
643
635
625
615
608
607
601
596
596
596
598
595
593
582
567
564
559
544
527
519
515
512
514
510
511
509
504
500
488
470
465
462
460
447
442
435
428
422
420
419
416
411
405
404
409
401
390
386
383
378
377
382
380
377
375
369
371
371
364
362
363
362
359
361
359
362
366
369
376
378
373
378
379
378
382
387
393
390
384
375
369
371
370
369
370
372
374
375
375
375
382
390
399
403
400
394
392
394
400
403
401
398
394
393
398
400
399
400
403
406
405
410
415
419
424
423
417
413
408
410
410
416
418
417
417
417
417
425
427
427
427
431
434
431
432
437
436
431
432
429
432
437
444
449
453
451
438
432
436
438
442
448
457
455
452
453
456
449
444
440
436
440
443
450
449
450
454
459
463
459
456
452
456
461
466
470
476
471
465
467
472
465
456
456
455
455
453
456
453
455
456
462
468
473
474
473
479
483
485
477
471
470
466
465
467
464
465
473
475
472
473
476
473
464
467
474
484
489
481
467
455
439
440
443
446
449
453
466
469
467
465
466
470
467
469
472
476
475
466
462
469
476
473
466
468
472
468
469
477
487
484
481
482
483
484
484
482
482
484
488
494
482
471
469
478
489
493
489
490
491
486
481
490
495
501
509
511
512
517
527
540
542
540
536
527
520
524
532
532
525
516
516
516
510
500
499
505
506
503
502
502
511
523
523
518
517
518
523
517
511
512
507
494
481
469
471
480
480
482
490
494
491
489
488
478
470
463
461
454
449
450
455
457
460
463
465
463
457
460
458
451
445
444
445
448
449
449
450
448
449
449
450
456
459
454
456
460
457
455
459
461
461
458
456
456
451
450
459
460
456
459
468
467
461
457
451
449
451
452
451
451
455
464
464
458
457
460
459
459
460
463
464
465
468
470
461
459
461
461
458
453
447
445
449
455
459
452
445
433
428
427
433
451
482
518
550
583
619
657
688
716
745
768
800
827
851
878
904
926
942
955
965
980
989
989
973
925
854
777
705
638
574
507
446
387
330
260
197
133
76
38
17
17
17
17
17
17
21
48
72
95
121
147
172
196
218
232
248
263
281
290
294
304
320
339
353
362
371
379
396
410
423
440
457
467
476
481
484
491
499
506
516
519
528
535
538
547
553
539
537
545
544
543
546
547
547
547
542
540
540
543
549
552
554
553
550
549
545
544
545
545
544
544
548
553
558
564
568
566
564
560
557
554
552
551
552
553
553
560
566
568
567
563
561
565
571
575
581
582
578
571
565
563
563
560
561
573
581
579
569
562
561
569
581
585
588
594
599
595
587
582
581
583
583
582
586
594
593
592
582
587
596
602
614
621
628
625
624
627
637
642
634
627
630
632
632
635
635
639
642
651
659
657
655
650
646
643
645
647
649
654
663
671
676
675
673
667
659
657
652
647
645
649
654
655
656
659
660
654
647
648
652
651
644
640
636
635
635
635
629
628
633
635
633
630
623
612
610
599
579
555
554
561
563
556
547
539
538
533
520
508
500
499
497
496
494
486
477
469
466
462
457
449
440
431
416
414
417
415
412
404
394
390
386
390
393
389
381
378
370
361
365
370
370
371
371
373
370
369
369
367
367
371
372
367
359
357
362
365
370
369
372
374
367
363
369
373
374
377
377
375
371
374
385
393
393
385
387
391
392
388
381
373
369
370
373
380
383
384
382
384
385
384
389
395
403
406
410
409
404
405
407
409
413
416
415
410
406
405
405
405
409
405
403
409
419
423
422
422
422
420
416
416
419
426
432
435
432
429
427
427
430
433
433
431
431
434
441
445
446
449
449
450
448
446
447
448
444
435
432
435
445
450
449
449
448
454
456
452
446
447
446
448
449
455
453
449
451
457
462
466
467
460
452
452
459
469
470
463
443
444
449
452
456
459
460
470
473
469
465
462
459
460
462
459
458
462
467
467
469
467
463
465
464
460
460
465
467
467
469
474
474
471
465
466
477
476
471
469
469
466
463
459
455
456
462
470
470
463
461
460
460
463
466
471
477
482
487
483
483
486
484
480
479
482
486
479
469
466
468
469
468
470
473
474
485
484
482
479
484
482
481
485
492
499
507
516
521
527
533
532
528
515
504
498
496
496
499
502
506
508
512
519
518
517
517
518
519
518
509
506
509
511
508
503
499
504
505
501
491
485
483
488
490
494
495
492
491
489
481
474
474
485
487
481
473
464
457
449
448
449
450
452
457
457
454
457
456
453
455
454
453
449
439
439
442
444
447
441
438
438
445
447
446
451
453
451
453
457
456
455
454
454
452
454
457
453
452
453
452
455
458
461
459
455
458
462
466
465
460
457
459
452
447
453
456
459
459
459
463
463
461
459
462
458
451
441
440
443
439
440
447
451
452
454
456
462
464
467
483
506
541
579
616
649
673
700
730
772
809
837
862
880
904
919
931
949
968
981
990
990
990
973
922
839
744
666
603
547
476
404
331
268
193
109
40
17
17
17
17
17
17
17
17
33
70
106
137
164
174
185
204
223
236
248
258
269
284
307
322
337
359
375
386
391
401
419
434
450
466
478
485
489
491
497
500
500
502
508
518
525
528
531
533
540
552
564
558
547
537
527
526
528
533
544
550
544
537
537
540
544
550
556
554
547
546
543
538
538
542
542
544
547
546
547
545
546
550
559
570
572
573
567
556
550
544
547
555
565
567
568
567
557
550
548
549
549
555
556
555
561
569
570
567
565
568
575
577
578
576
574
577
580
586
590
594
599
609
613
612
603
586
569
554
557
572
589
594
598
602
600
600
604
607
612
620
623
627
627
630
633
636
641
637
627
627
632
637
634
633
637
639
644
648
648
645
639
646
656
663
668
671
669
665
667
667
660
650
648
646
645
641
638
643
645
646
649
654
650
643
638
634
634
634
630
631
629
624
616
610
610
600
599
606
604
596
592
588
581
572
563
556
545
537
530
523
522
521
513
501
492
488
483
481
477
469
462
461
457
451
444
437
432
432
428
419
410
412
409
406
404
402
399
392
381
373
371
377
381
374
368
367
369
369
367
364
367
366
357
353
357
360
360
367
372
370
370
371
375
380
378
376
384
392
395
390
390
392
388
379
379
375
366
365
365
370
376
382
389
395
396
396
398
398
397
402
405
398
391
391
393
395
395
397
400
404
409
412
409
410
416
417
413
412
416
410
410
412
416
415
416
419
423
425
423
419
416
419
421
423
423
427
430
432
433
432
437
440
440
446
451
453
451
453
458
457
454
455
450
444
435
430
433
435
434
432
440
449
452
450
448
453
458
463
464
468
469
472
471
458
447
443
442
448
452
459
463
462
467
473
474
468
456
448
442
444
449
454
457
460
464
461
460
466
468
466
462
464
469
468
462
456
459
461
464
464
461
463
466
465
465
462
461
460
465
468
467
466
468
468
470
469
468
466
469
473
476
477
475
476
481
486
487
485
481
470
458
459
466
470
469
460
455
468
484
472
457
459
458
459
461
467
471
474
472
472
480
480
473
471
474
473
475
486
497
497
494
495
494
488
478
475
478
479
476
476
487
486
484
488
486
484
484
496
503
509
516
521
525
527
533
539
542
533
528
527
522
507
498
495
496
500
500
500
503
507
514
524
524
521
519
523
525
527
529
528
525
516
503
492
485
482
479
488
496
498
494
495
495
503
503
502
499
490
482
476
468
455
449
444
443
443
438
441
445
447
445
447
448
453
454
453
454
453
446
444
448
447
449
447
450
448
446
457
466
465
459
457
454
449
446
449
453
453
455
458
451
447
449
457
459
457
452
454
457
461
467
467
464
459
456
456
458
456
457
446
449
458
450
444
442
446
447
453
455
456
454
449
440
433
430
435
437
444
449
459
464
465
460
458
471
498
530
563
594
634
675
712
736
766
799
822
850
884
916
940
966
989
989
989
989
989
988
989
990
936
844
748
672
615
554
477
393
312
233
139
60
17
17
17
17
18
17
17
17
17
36
69
98
121
143
169
190
208
216
226
232
237
253
275
296
309
324
347
363
374
385
402
423
441
454
459
469
482
490
492
501
503
504
508
518
525
528
530
530
527
528
528
531
535
541
543
546
543
543
544
542
539
541
542
546
545
536
535
545
552
554
556
554
549
552
551
548
549
550
548
547
550
553
554
556
558
553
550
552
549
547
549
555
563
565
570
571
562
557
565
579
584
571
563
559
552
554
559
560
566
572
585
595
589
578
574
572
568
572
576
576
577
583
582
587
587
585
584
588
600
606
608
609
606
607
615
614
606
598
601
609
614
616
620
623
629
632
634
639
642
643
643
648
654
652
647
642
644
647
646
648
657
665
668
668
670
674
675
669
662
661
663
661
661
660
653
651
651
650
645
643
645
649
646
644
643
638
637
636
640
634
633
634
631
630
626
621
618
616
613
612
604
604
599
582
567
562
558
557
554
543
533
524
516
517
523
516
500
490
482
473
472
469
458
454
448
444
442
441
437
428
421
410
403
399
391
386
383
379
378
377
377
376
377
378
381
371
364
363
358
359
360
362
367
370
366
366
369
375
379
375
363
360
365
368
368
367
368
366
369
371
376
382
383
380
378
386
385
382
381
385
385
386
386
391
390
381
385
394
394
391
389
386
385
391
396
396
398
398
406
416
412
403
400
402
403
407
411
415
419
421
421
424
428
425
420
420
420
422
416
414
413
416
419
422
425
427
427
424
421
419
422
434
438
440
444
440
442
438
432
431
431
430
431
434
438
447
453
458
456
455
455
455
453
443
446
444
443
445
450
454
454
450
446
447
448
450
451
455
456
456
457
455
459
465
468
468
471
475
472
466
463
464
461
459
462
467
462
457
460
462
462
460
462
462
461
463
460
459
460
463
467
463
460
459
463
466
465
463
454
455
459
457
457
462
465
466
473
473
469
468
468
474
470
460
460
461
460
461
465
466
471
475
475
477
479
479
474
467
458
457
462
465
464
457
456
464
470
473
477
477
467
460
460
465
471
476
474
465
461
463
472
469
464
466
468
469
471
475
476
475
478
483
487
488
489
487
487
484
480
475
474
476
474
471
470
466
470
475
480
482
485
483
483
483
481
481
481
488
499
500
498
502
510
514
524
528
532
535
534
537
540
535
532
532
530
529
520
514
514
524
526
525
531
532
535
539
537
533
523
517
518
520
521
517
512
505
501
501
501
503
506
507
503
500
497
494
497
491
493
492
489
482
474
462
453
447
452
453
459
458
456
458
456
454
451
456
457
451
445
449
457
456
453
447
443
443
440
441
447
454
453
445
442
443
441
445
453
459
462
469
473
467
460
460
459
454
453
458
458
452
455
455
460
462
461
454
452
455
457
458
467
472
464
461
471
485
485
474
467
459
449
444
450
455
452
453
453
448
448
445
439
436
438
442
439
437
445
459
475
499
532
568
607
655
691
722
761
798
831
861
888
909
936
959
977
990
990
989
989
989
989
989
974
903
806
717
645
584
513
432
355
282
203
113
40
17
17
17
17
17
17
17
17
17
49
82
104
126
148
169
192
201
210
220
239
259
277
292
296
310
326
347
373
392
401
412
429
448
466
480
494
493
498
509
506
505
502
508
521
526
529
529
526
528
529
527
530
529
535
539
543
549
542
543
544
549
559
559
551
547
547
544
538
537
543
550
559
564
561
554
543
541
542
548
554
556
557
557
565
572
568
569
575
581
577
568
554
548
545
546
555
561
563
561
559
564
569
569
570
566
562
560
564
567
566
575
588
588
580
569
564
569
578
581
588
596
600
599
593
595
597
592
587
587
593
598
601
607
611
613
613
624
628
627
625
620
619
621
627
631
635
638
641
641
642
645
649
654
658
663
667
667
665
669
668
659
655
654
660
671
677
678
671
659
652
650
658
669
669
673
669
661
659
656
651
649
653
651
647
641
647
644
643
640
639
637
634
633
631
631
628
629
633
636
628
613
592
568
559
549
542
543
541
542
543
542
533
525
519
516
509
502
500
492
489
487
476
465
452
449
447
447
439
429
422
416
412
406
403
402
408
411
408
401
387
378
382
390
391
387
388
386
385
380
376
370
367
364
361
366
372
372
370
371
363
358
355
358
359
359
369
374
369
363
363
372
375
376
376
377
373
369
376
385
388
400
406
409
410
407
399
393
385
383
374
373
382
392
400
400
404
410
410
407
402
399
399
398
400
395
396
395
400
405
405
409
415
418
423
430
432
427
425
426
429
429
430
427
430
426
423
426
427
426
427
429
434
441
452
460
448
440
443
441
436
437
437
435
433
437
447
448
448
455
455
451
445
444
448
455
452
449
449
448
453
454
465
469
471
467
463
462
447
442
440
448
456
459
467
470
470
468
474
475
468
465
465
467
467
468
469
472
476
471
462
455
456
458
459
461
450
446
457
467
469
466
469
480
483
484
479
463
463
465
462
463
464
466
470
476
479
470
464
457
459
460
463
462
462
463
462
461
458
460
464
464
466
468
467
469
471
473
473
481
484
485
485
493
495
495
487
493
497
493
486
485
489
483
478
476
485
494
503
516
519
526
529
520
515
510
513
526
528
530
529
527
524
518
517
517
511
507
505
504
508
511
507
511
515
516
520
523
520
512
509
501
500
498
502
504
503
500
492
490
496
498
496
502
503
501
494
482
469
468
471
468
462
454
451
448
442
438
445
451
452
450
439
439
446
448
449
449
453
453
453
453
451
454
457
458
450
449
453
458
465
463
456
462
465
446
434
435
445
448
444
445
452
454
455
459
452
449
455
459
460
461
460
459
461
464
467
465
460
460
464
461
458
454
450
449
450
449
453
453
454
458
459
454
451
445
442
442
447
451
455
448
437
436
436
441
461
489
515
538
569
609
650
683
719
763
799
827
856
888
911
925
930
944
958
972
977
977
971
948
907
841
762
691
634
578
510
452
381
314
244
175
117
74
40
17
17
17
17
17
17
25
54
87
110
132
153
179
199
210
224
244
261
274
290
305
318
328
331
339
358
373
382
394
407
415
426
441
457
473
486
492
491
491
495
504
511
517
517
521
531
536
539
546
549
551
556
560
556
552
548
551
547
547
547
544
543
542
542
552
563
553
545
547
552
555
556
555
555
550
554
552
548
546
550
553
555
558
563
563
562
563
563
566
568
565
573
581
572
557
549
551
564
571
571
570
566
564
564
572
578
578
576
575
578
578
578
579
577
577
575
582
594
598
598
597
598
587
588
599
600
600
605
609
613
619
621
614
612
614
616
618
622
626
624
627
633
637
641
641
643
643
640
641
646
653
659
660
656
653
653
651
650
652
653
660
665
666
668
665
658
654
659
651
648
643
643
648
651
659
660
663
665
661
653
644
639
636
632
638
642
643
638
634
628
626
625
617
610
612
610
605
604
595
588
582
579
575
564
555
548
533
521
515
517
515
509
500
492
487
484
477
473
469
459
455
450
449
440
428
422
415
413
408
404
403
405
404
402
396
390
386
380
379
373
367
369
369
369
371
378
378
368
353
349
351
358
362
365
365
362
359
356
360
369
371
362
365
377
380
378
379
376
376
380
379
382
387
389
387
388
386
383
377
373
370
370
374
379
384
389
391
390
390
390
396
400
401
400
398
394
395
397
395
397
403
410
414
415
412
412
417
421
427
427
421
414
413
412
414
411
407
406
410
415
422
432
430
431
434
436
432
429
429
428
430
438
439
443
444
439
435
431
433
443
450
454
453
450
451
453
450
444
444
449
453
454
451
451
451
452
460
459
453
453
458
454
451
456
462
462
457
455
451
451
453
453
457
461
463
460
460
468
470
464
465
461
457
453
452
452
457
469
475
476
474
469
460
455
456
456
455
456
455
453
463
470
469
470
474
470
470
469
471
479
476
470
463
458
468
469
465
466
470
477
487
490
481
471
469
478
484
488
484
483
477
473
471
467
467
469
473
480
483
482
491
503
509
510
517
525
523
521
518
521
521
515
510
511
516
515
509
510
514
518
520
510
494
496
501
507
511
516
516
514
511
509
497
484
481
483
487
491
491
487
482
473
474
481
490
498
505
513
512
508
500
485
468
462
459
456
452
444
433
431
435
439
440
445
451
453
454
455
453
454
457
460
464
464
460
464
464
457
455
449
435
425
427
437
449
454
454
450
446
441
442
442
440
437
437
439
440
438
441
444
445
451
455
453
463
465
465
462
459
464
468
459
447
443
449
451
452
451
454
454
460
463
461
457
451
456
459
453
444
444
442
445
446
448
452
455
464
469
475
485
505
524
541
574
617
641
669
705
744
776
802
826
851
879
896
906
915
926
936
954
969
964
946
901
834
751
678
612
547
483
415
345
272
197
122
55
17
17
17
17
17
17
17
17
17
42
75
108
139
168
187
200
215
231
240
249
259
279
299
313
335
356
367
379
389
405
420
433
445
460
470
476
482
487
499
510
519
527
526
525
531
538
542
536
534
533
529
526
529
537
540
545
546
544
540
542
546
555
555
543
539
545
548
549
549
544
540
545
553
557
558
556
554
555
551
552
553
552
550
550
555
560
564
566
565
565
566
566
567
564
556
555
553
560
562
563
565
570
573
574
579
581
583
580
578
577
575
569
576
581
581
583
576
572
572
568
573
580
588
588
593
594
596
600
606
614
617
615
600
594
593
598
602
603
609
621
631
632
633
635
632
624
619
619
624
627
629
632
638
645
653
658
648
643
648
650
655
655
660
664
660
659
665
670
664
660
658
658
661
663
657
650
650
650
648
646
652
653
652
645
643
650
650
641
632
628
622
615
611
611
610
606
603
605
604
602
592
580
572
557
558
559
553
548
542
535
533
531
519
507
502
496
485
473
466
460
457
451
446
441
437
437
439
441
431
419
414
414
405
397
385
373
370
372
371
372
373
370
374
378
373
368
365
364
361
362
371
372
364
363
370
379
381
378
376
373
369
369
376
378
374
369
366
364
369
376
381
376
371
377
380
381
377
375
380
382
386
383
381
385
394
398
394
395
401
406
407
403
398
398
406
410
405
400
402
404
401
396
398
399
403
410
417
421
417
417
418
428
430
423
409
403
413
417
420
426
433
432
426
419
420
426
428
427
431
429
429
431
433
436
437
440
446
451
452
453
451
446
447
446
442
440
439
440
440
444
445
451
453
455
456
464
463
457
454
455
451
447
449
448
449
448
452
459
461
464
468
471
470
470
470
466
466
465
464
463
460
458
456
452
453
458
463
464
463
460
461
465
469
469
463
467
469
464
460
461
464
465
463
467
476
482
478
475
477
474
469
468
462
461
466
470
469
461
455
457
463
475
479
481
482
474
472
475
479
486
485
481
479
481
483
481
473
471
474
479
484
489
489
484
472
465
469
478
488
489
491
494
497
508
516
524
530
537
538
538
532
525
519
517
519
512
499
490
493
502
510
513
515
521
524
514
512
517
512
510
512
509
505
502
505
507
503
503
500
497
490
489
489
492
491
494
503
507
504
502
497
484
480
479
477
474
472
468
464
465
461
455
438
423
422
426
430
435
440
443
450
448
442
439
442
447
452
453
453
454
456
459
453
453
451
457
463
457
447
442
439
439
438
441
451
456
456
453
453
456
464
466
460
450
446
449
447
449
457
459
462
460
455
445
441
443
448
449
453
457
458
456
462
464
464
457
450
444
443
445
453
458
461
466
470
466
458
458
475
501
528
562
594
632
671
700
728
765
803
837
860
876
904
929
947
965
978
982
990
990
989
989
973
907
812
717
637
573
510
439
365
292
217
125
47
17
17
17
17
17
17
17
17
20
38
60
88
117
143
164
183
196
206
219
237
251
271
295
315
331
343
355
367
384
402
416
433
447
453
463
474
486
495
493
493
498
510
516
518
528
539
547
550
549
545
539
535
534
541
544
543
546
550
546
547
549
554
564
561
550
545
547
546
548
550
548
545
543
546
548
553
557
556
556
562
553
545
549
553
547
550
559
564
568
562
563
572
573
569
559
556
561
568
570
564
561
566
568
572
576
583
579
575
575
573
567
572
578
583
583
587
583
584
588
590
585
576
574
581
590
595
604
603
603
602
606
601
591
587
596
606
609
610
613
621
625
629
625
629
634
639
644
647
641
632
638
642
643
646
652
660
660
654
655
663
671
664
660
660
651
649
660
669
671
660
652
653
658
668
675
678
669
654
645
639
633
630
632
640
648
647
644
640
636
632
628
623
621
620
615
611
606
599
598
598
590
586
585
580
575
567
558
550
548
545
540
533
529
526
519
509
498
489
480
474
471
462
457
452
440
433
431
431
432
431
417
404
399
398
399
398
389
383
379
380
376
381
383
381
374
364
358
364
367
369
372
378
380
378
378
383
382
381
368
351
353
361
365
359
349
352
358
361
367
375
377
377
376
381
386
384
382
381
388
394
398
394
386
382
385
391
392
393
402
407
403
395
383
379
384
394
399
399
397
400
401
401
403
406
412
425
427
414
408
404
404
410
417
418
418
423
423
421
418
417
417
422
426
432
435
434
436
449
459
464
467
457
444
438
435
429
418
410
414
425
430
432
436
441
444
445
441
441
447
451
450
444
441
442
440
438
443
455
463
466
469
468
465
464
460
462
456
451
453
454
454
456
458
460
466
466
465
469
473
471
466
459
451
443
446
452
455
461
465
459
452
452
453
455
461
462
463
461
461
462
460
460
464
468
473
473
474
477
481
474
461
459
455
455
458
472
477
474
471
475
475
475
473
474
470
469
468
460
457
455
458
460
461
462
460
457
459
465
466
469
469
475
479
477
475
476
478
471
472
475
475
476
473
476
483
488
489
487
473
465
469
476
481
483
487
483
482
483
487
483
480
478
481
485
491
498
505
511
515
522
535
538
534
529
528
525
519
521
519
513
510
508
508
513
527
525
513
515
527
533
526
518
513
513
519
521
518
511
508
507
508
507
505
500
494
498
511
519
499
484
490
491
487
485
484
482
480
475
471
467
462
459
451
442
438
440
451
452
445
443
437
439
438
442
447
452
459
461
464
463
466
468
463
452
449
450
451
455
462
457
447
445
446
449
456
450
433
429
444
450
451
447
447
449
450
449
450
455
457
458
454
457
460
460
454
449
450
456
460
465
470
463
458
460
463
464
463
463
458
451
447
447
452
463
467
461
453
439
428
425
433
449
466
490
522
554
590
632
674
715
749
791
825
845
871
896
928
950
965
980
989
989
989
989
989
989
970
895
794
698
629
573
500
423
342
269
189
101
30
17
17
17
17
17
18
17
17
17
41
72
99
125
151
166
179
194
213
231
247
259
281
300
310
325
342
358
377
391
405
426
440
448
460
474
484
486
489
494
505
518
526
525
533
547
555
540
524
513
510
521
534
540
538
544
544
537
534
539
550
549
546
545
542
543
543
545
546
544
547
556
566
574
573
568
561
570
570
561
561
557
550
551
553
555
556
559
561
564
564
566
560
560
564
565
566
566
569
568
563
564
570
578
586
587
577
565
560
563
569
572
573
580
595
602
601
593
589
589
588
588
587
581
584
582
584
589
590
593
594
600
605
607
609
612
616
620
618
611
616
623
630
633
637
644
644
644
641
640
641
638
641
648
656
660
659
656
664
674
675
671
663
662
665
669
666
661
654
649
652
655
656
654
649
650
655
658
660
660
661
666
667
660
658
654
654
650
645
646
645
643
636
624
625
627
622
614
607
600
597
601
598
596
593
589
581
573
553
533
533
537
529
521
523
524
525
523
515
506
500
494
478
459
438
423
412
411
413
416
407
406
415
413
403
400
402
400
400
393
384
383
374
370
367
368
375
375
367
361
356
355
357
361
363
367
367
365
372
380
387
388
387
384
382
382
379
370
363
362
368
373
372
370
376
388
378
360
359
374
378
375
377
382
390
396
396
393
386
386
388
395
396
400
400
397
402
412
418
418
410
408
407
401
397
401
407
415
414
409
411
411
412
414
416
415
412
419
427
428
427
421
420
425
432
434
440
458
465
456
447
436
427
421
424
432
433
430
429
431
433
436
440
443
443
442
443
442
435
435
439
442
442
451
459
459
451
451
461
466
463
461
459
460
460
454
454
457
452
447
458
470
473
472
465
461
469
474
475
476
469
458
451
452
448
450
453
462
467
466
463
468
472
474
467
465
467
465
468
466
463
462
459
460
464
466
460
458
458
462
462
468
472
475
474
477
477
480
486
480
480
474
467
465
464
473
479
479
470
462
464
471
473
470
472
479
484
487
488
485
479
474
476
473
468
477
490
491
486
489
491
483
484
492
502
504
505
507
500
505
511
510
517
526
528
532
536
538
534
528
522
516
507
504
508
511
508
512
519
521
526
530
530
527
521
516
515
514
507
497
490
486
482
492
501
496
492
485
480
479
491
510
516
514
504
500
491
480
479
476
468
465
460
451
448
439
426
426
440
447
449
448
450
451
455
456
458
458
449
449
448
445
445
446
448
447
444
443
446
451
459
461
468
467
467
473
474
472
463
454
448
443
438
442
446
447
447
443
442
449
454
455
458
464
471
472
471
474
472
465
461
456
452
456
456
460
465
468
470
467
467
459
447
439
433
429
432
436
440
446
444
446
448
445
461
482
512
539
569
611
651
680
716
755
793
826
851
872
893
918
939
956
974
987
990
990
990
990
961
893
807
716
645
586
518
455
389
323
254
179
115
56
23
17
17
17
17
17
17
24
51
80
104
126
149
172
196
216
232
242
253
261
272
287
300
315
322
335
351
365
378
391
404
425
453
463
470
478
486
494
497
506
501
509
520
524
530
539
545
539
544
552
545
538
532
528
529
529
537
547
544
543
541
538
539
540
546
550
552
551
558
555
548
543
545
550
556
556
562
560
561
563
562
561
561
564
565
569
573
565
559
559
562
565
566
566
563
561
567
569
571
571
572
573
574
568
557
557
564
567
575
581
580
585
587
586
588
590
590
588
582
579
578
576
574
579
586
588
591
592
593
597
599
602
606
605
610
615
621
625
618
624
632
634
636
638
644
647
650
652
653
650
649
660
668
665
658
651
646
642
649
652
654
659
661
663
663
660
658
659
665
671
674
670
663
655
652
651
650
646
647
653
654
651
646
651
655
656
654
643
636
631
632
634
631
628
621
615
606
597
589
590
589
578
574
567
553
537
536
532
531
529
524
513
506
504
500
495
491
488
480
476
471
463
453
441
431
425
423
422
419
416
413
407
402
395
392
388
387
387
384
387
386
385
382
380
382
385
383
381
383
379
374
370
363
360
366
374
382
381
370
375
380
377
380
370
361
363
369
375
382
385
393
397
393
386
378
373
372
374
378
382
383
383
388
392
393
396
404
418
427
418
404
391
385
381
378
385
394
403
411
418
415
407
403
403
405
407
404
405
405
405
406
403
408
415
414
412
413
420
427
434
441
447
447
450
454
454
453
445
435
428
419
416
419
423
423
421
427
436
441
446
450
447
446
448
449
454
459
459
457
457
457
449
442
447
456
462
458
454
449
455
460
459
458
461
464
466
465
462
468
467
463
461
469
471
464
458
456
454
451
447
448
453
463
472
477
477
475
468
461
460
456
454
452
457
465
475
478
472
470
473
471
471
472
471
467
468
468
467
468
479
478
471
471
474
474
476
477
478
482
485
483
485
490
494
501
505
499
493
496
491
487
480
478
484
489
494
501
510
521
522
528
531
532
531
529
527
528
527
529
524
520
513
507
506
508
511
515
518
520
520
512
500
493
493
495
499
498
493
497
500
506
505
496
489
482
478
469
465
465
478
486
492
493
490
490
490
490
488
484
483
482
470
460
460
457
446
434
430
428
428
429
436
441
441
443
446
452
451
449
444
440
443
451
451
452
454
453
453
450
451
454
453
453
463
466
448
443
448
454
450
445
445
450
456
455
453
451
454
456
453
457
461
454
450
447
447
449
447
444
438
442
447
443
439
449
452
454
456
464
471
470
468
457
448
442
439
441
440
438
435
436
439
445
457
476
501
529
561
601
635
661
684
719
756
791
821
847
871
889
901
915
928
937
941
945
949
941
902
840
767
692
630
577
516
452
385
319
248
170
106
50
17
17
17
17
17
17
17
17
31
68
92
113
132
160
184
201
209
222
241
258
269
283
296
312
330
346
360
370
382
398
411
425
437
456
473
488
495
500
509
513
513
513
513
519
530
532
533
535
541
542
542
544
547
544
545
549
552
551
550
549
552
553
553
554
550
553
558
558
559
562
565
565
563
562
568
572
565
561
559
559
562
565
571
581
582
578
573
569
564
559
552
543
546
550
554
561
570
568
567
570
570
571
571
574
577
575
586
589
588
584
579
574
572
565
562
565
568
581
593
596
595
591
582
587
594
595
596
599
600
599
601
607
613
619
622
623
618
621
627
632
632
629
628
636
646
651
656
655
645
634
634
641
649
655
658
669
674
668
662
663
660
658
660
656
655
656
655
655
657
660
668
671
670
662
663
662
657
655
651
650
648
649
654
654
651
652
656
649
633
631
632
629
626
630
631
624
620
613
597
566
546
542
542
542
540
542
540
528
517
519
524
522
518
511
511
503
489
477
470
463
448
443
439
433
423
417
413
405
405
399
392
392
394
391
391
387
382
383
380
380
375
371
372
375
376
372
371
369
369
369
373
377
376
378
378
375
375
376
370
366
374
380
377
379
384
387
388
383
378
372
363
366
374
371
369
364
363
369
379
383
384
384
383
382
379
374
378
385
395
396
391
390
393
392
392
397
401
406
404
403
403
402
403
405
411
420
424
416
417
414
414
418
422
425
426
426
423
416
410
410
420
427
428
423
421
425
430
432
437
437
435
436
437
438
444
450
454
452
443
435
438
443
448
458
455
447
447
446
445
443
445
448
452
454
454
458
464
466
467
465
464
459
457
450
452
459
453
441
441
447
453
452
452
456
461
457
449
450
453
455
454
462
464
464
461
458
460
462
465
464
464
464
466
467
465
465
466
466
460
459
459
462
464
464
464
465
465
467
470
467
465
466
468
469
471
474
473
475
476
474
473
476
479
483
485
484
478
473
476
477
488
493
491
481
478
476
474
478
478
478
479
483
495
504
504
507
510
509
514
519
524
530
531
529
524
526
525
523
519
504
495
493
498
509
521
528
529
523
521
519
518
520
516
511
509
507
499
497
499
499
491
481
477
474
476
482
495
498
492
486
490
489
485
472
465
458
456
457
448
447
440
432
427
427
438
441
445
451
456
451
445
444
445
444
443
445
452
459
460
461
460
455
449
446
442
441
439
438
447
448
449
450
450
448
449
454
459
462
463
462
456
447
442
446
443
446
451
458
467
473
473
472
472
468
460
450
441
440
444
449
449
446
444
442
439
448
457
457
459
458
457
453
450
451
450
455
457
454
450
455
465
492
529
564
599
629
658
693
733
765
797
824
844
864
894
920
935
951
967
979
990
989
990
990
960
901
814
719
647
589
531
465
392
323
252
159
66
17
17
17
17
17
17
17
17
17
37
68
100
135
158
188
206
211
217
229
244
263
279
290
303
312
322
337
354
371
390
404
422
441
455
462
467
478
482
489
502
517
529
533
530
527
527
526
530
541
542
543
543
543
548
551
551
549
546
545
540
533
527
520
526
532
537
542
543
551
559
555
554
550
547
548
556
566
560
551
545
543
546
545
548
549
554
556
555
548
543
541
550
558
563
566
570
576
586
585
581
580
577
576
571
563
559
552
546
547
552
554
562
565
570
572
571
570
572
576
574
578
585
589
596
596
597
597
597
596
601
599
596
600
607
606
609
616
621
624
633
641
642
637
633
627
619
618
626
629
634
626
637
644
641
642
650
648
648
658
663
669
672
670
659
648
655
661
661
660
661
659
654
657
656
655
653
658
659
659
666
665
662
659
646
642
636
626
623
622
621
619
622
623
619
613
606
607
607
602
603
601
591
586
576
566
557
556
554
546
532
522
515
510
502
499
499
501
493
478
470
464
459
454
448
445
440
439
428
418
417
414
416
414
410
407
404
398
389
381
373
375
377
379
377
374
373
374
376
380
379
376
372
366
361
359
363
359
360
364
359
360
365
368
370
374
373
380
382
375
371
374
387
391
389
384
381
378
379
385
388
388
390
389
395
398
393
387
384
379
372
371
387
398
404
411
408
409
407
403
399
403
401
412
414
408
403
405
411
412
412
409
410
412
417
420
423
433
440
439
438
439
433
433
440
434
425
425
426
426
430
434
437
435
432
430
438
449
452
451
446
446
442
443
442
445
444
437
424
427
434
434
436
437
443
450
455
464
467
462
459
460
457
461
463
459
458
450
448
445
451
452
450
451
456
455
448
443
443
451
465
470
471
468
464
461
461
463
463
461
459
466
466
462
472
481
480
468
459
460
461
466
470
469
461
462
468
466
469
480
479
477
470
466
465
469
467
462
456
452
454
461
466
469
470
462
456
459
471
478
477
480
482
476
469
465
460
456
457
466
471
471
467
462
462
464
469
479
483
485
486
481
477
479
480
478
484
493
493
485
479
490
499
504
501
491
487
488
487
485
479
478
480
479
479
484
494
502
512
522
526
530
531
527
530
537
538
535
541
539
537
526
519
513
513
513
518
522
527
532
524
510
501
502
510
510
513
518
518
515
513
508
505
503
503
502
502
490
493
494
503
513
504
487
475
462
450
433
430
461
491
493
484
475
463
456
450
440
437
466
471
469
468
466
457
448
453
451
446
445
445
447
453
450
452
452
454
459
463
463
459
460
462
469
474
469
468
473
466
447
437
439
440
443
444
447
452
454
454
455
457
456
461
460
458
454
448
450
445
444
441
449
455
454
452
452
457
458
457
460
461
457
449
448
445
442
437
434
441
449
452
449
452
454
460
469
494
521
547
576
611
651
695
738
772
802
833
866
901
929
953
967
982
990
990
989
989
989
989
989
976
893
788
694
615
553
485
408
328
260
173
81
17
17
17
17
17
17
17
17
17
17
46
80
110
138
155
168
182
201
220
231
241
254
267
275
297
323
343
352
366
383
406
426
444
458
465
475
488
496
495
490
486
489
505
513
519
523
530
536
537
536
540
541
541
541
542
547
546
551
554
551
548
547
548
547
548
550
549
546
551
551
544
537
543
553
561
559
548
546
548
548
551
554
553
558
564
568
572
569
560
555
554
550
550
555
563
566
568
562
558
558
560
558
564
576
578
575
570
568
572
579
584
577
570
571
572
579
585
584
585
590
592
593
591
592
591
594
599
603
607
611
616
613
611
610
607
611
620
624
622
616
615
624
631
632
640
648
651
645
632
627
638
644
643
647
655
660
663
660
663
666
672
672
675
680
683
682
681
673
668
667
661
657
656
658
662
662
658
648
642
647
652
651
644
647
653
655
649
650
656
656
638
628
623
617
612
609
610
607
604
601
599
594
587
581
576
576
582
583
575
562
544
534
527
521
515
509
500
491
484
482
479
472
462
458
452
444
439
441
444
443
443
439
436
422
395
378
376
378
380
379
378
378
383
387
387
383
373
365
363
362
358
352
353
354
357
362
367
368
372
373
366
358
353
359
362
366
373
373
369
360
368
380
379
370
373
376
372
371
383
387
388
388
386
386
382
378
378
380
387
391
391
396
397
397
399
405
407
400
396
398
402
410
413
409
403
399
397
404
409
416
421
419
418
431
433
420
414
415
420
422
425
432
434
430
433
440
451
462
462
450
444
442
437
433
439
440
426
425
433
435
430
432
433
439
452
462
462
457
454
450
440
430
431
437
442
443
439
442
443
444
447
441
446
453
458
455
456
460
459
463
468
476
474
468
462
460
463
461
449
441
444
452
460
467
473
477
473
461
461
466
465
459
461
466
470
465
455
451
452
459
460
459
466
467
460
462
468
472
471
471
470
462
456
456
462
468
470
473
472
473
478
486
479
471
465
460
453
450
447
448
450
454
455
456
461
463
464
467
472
470
474
476
476
479
479
473
472
472
467
464
465
468
475
476
472
468
463
463
470
480
480
474
471
472
478
477
479
483
488
491
487
488
485
480
477
482
485
485
485
487
491
490
488
485
494
500
497
497
499
505
505
504
506
511
511
524
533
532
533
540
536
526
521
522
523
521
523
516
515
516
519
519
518
520
529
532
538
541
528
521
522
523
519
509
497
494
493
489
490
490
497
499
496
499
500
503
505
498
491
482
474
469
465
459
454
441
436
439
445
454
457
458
454
458
463
457
448
442
447
455
460
458
451
453
459
453
455
462
455
447
450
455
445
439
442
447
449
449
449
452
458
456
452
451
451
450
449
454
457
464
465
468
473
474
471
469
466
462
455
450
447
442
441
444
450
457
458
458
464
468
470
468
455
449
445
444
446
441
439
440
441
442
448
451
453
460
457
460
484
521
558
588
620
647
675
708
741
778
819
850
869
896
922
945
970
990
990
989
989
989
989
989
955
869
767
683
616
556
488
416
343
276
201
120
56
18
17
17
17
17
17
17
17
31
64
101
132
161
187
190
191
197
208
221
235
254
272
291
307
323
339
356
372
389
399
408
423
439
448
462
478
492
499
503
509
517
526
528
523
517
515
514
517
526
531
535
543
542
541
538
542
550
540
537
548
556
560
559
556
555
557
563
563
560
562
558
553
549
551
559
565
564
557
539
530
532
537
549
560
557
563
565
556
551
546
541
542
538
540
544
552
563
577
584
577
569
565
568
575
578
580
584
583
575
564
559
557
560
568
575
570
573
573
571
579
586
584
588
590
588
587
588
589
594
600
607
610
617
618
621
632
632
620
610
609
606
620
630
631
632
634
636
648
660
653
650
645
645
653
661
662
650
644
645
651
653
652
653
653
653
656
653
650
658
659
655
657
670
664
647
642
