634
615
607
606
586
572
569
584
594
601
605
601
605
595
586
585
588
587
590
592
571
566
557
554
555
556
545
551
566
564
560
556
553
551
553
555
554
548
546
543
540
538
535
528
519
517
514
512
508
504
502
505
507
501
494
503
511
514
499
490
490
498
507
515
508
494
491
484
485
496
513
523
514
516
522
511
495
492
500
506
504
498
510
511
507
504
491
475
479
523
532
488
442
428
448
478
506
503
523
547
537
512
499
487
490
508
537
504
493
478
447
463
487
472
449
472
492
454
478
470
486
536
516
475
472
490
562
586
628
678
718
757
765
804
849
886
927
926
930
950
931
954
990
989
989
989
988
988
989
937
842
765
694
591
491
429
375
309
229
193
150
82
17
17
17
17
17
17
17
19
40
62
115
131
144
179
198
210
234
260
287
298
297
304
318
336
344
346
352
373
381
390
398
423
444
456
474
494
501
514
520
516
505
507
512
527
543
554
551
546
549
550
552
545
548
542
541
544
550
559
562
565
581
585
586
592
580
564
542
537
550
542
543
554
559
551
542
542
529
542
556
568
581
612
610
592
579
544
525
526
528
545
566
559
545
551
560
570
578
598
594
596
604
592
613
617
609
582
553
558
582
588
583
587
589
565
551
563
568
558
559
567
578
600
612
619
625
625
634
624
612
617
626
639
647
650
639
632
633
634
635
632
640
642
641
645
645
650
649
659
665
666
669
674
656
682
673
690
685
671
680
685
697
668
646
675
697
717
735
679
657
672
679
697
680
659
680
681
666
696
667
686
686
652
633
646
688
685
668
686
690
666
666
640
612
651
661
667
619
625
643
627
606
591
595
579
584
585
566
574
559
555
551
528
506
478
487
500
500
509
489
473
457
447
449
444
441
434
422
413
402
405
409
402
395
393
386
377
368
371
377
364
374
374
383
367
387
387
418
457
414
372
373
344
333
337
347
372
396
399
415
378
343
321
336
349
364
340
354
401
390
367
351
349
370
400
424
427
410
415
421
385
380
399
380
371
391
372
369
360
375
397
393
384
380
391
405
411
422
426
419
413
416
415
414
401
387
401
414
414
418
426
433
430
428
425
425
423
432
446
437
437
437
439
440
435
448
447
444
442
443
455
459
455
445
459
470
464
464
453
442
435
452
458
479
482
496
493
464
475
484
506
517
505
494
483
470
468
484
550
554
489
482
483
466
495
546
540
522
519
491
513
516
525
502
502
491
498
491
470
512
541
575
590
587
559
554
561
538
499
525
575
566
580
578
544
526
570
589
550
544
539
550
562
592
592
584
581
589
588
551
524
535
529
508
504
508
529
523
510
502
505
510
520
519
519
516
514
511
487
487
477
473
481
488
496
498
492
487
508
515
509
501
500
482
467
459
458
458
458
455
451
437
436
438
423
414
418
440
446
436
423
421
426
447
447
452
458
448
433
439
441
444
446
456
469
467
444
432
433
434
433
428
426
430
410
411
405
433
446
443
440
435
461
471
466
473
476
484
458
434
443
462
461
461
455
441
432
436
442
445
456
469
474
472
465
464
444
422
407
409
407
420
412
409
416
417
420
420
428
436
470
497
499
503
564
647
692
723
754
784
816
866
899
945
976
990
989
989
989
988
988
988
988
988
989
919
828
726
644
547
458
402
304
233
175
94
33
17
17
17
17
17
17
18
18
17
28
36
56
76
90
87
135
211
240
257
261
237
252
275
308
340
342
385
433
418
408
442
471
510
497
515
523
518
514
533
587
571
540
593
609
605
570
566
605
634
624
581
599
630
618
605
610
637
647
638
630
628
634
640
653
657
656
639
627
635
629
624
622
620
622
623
631
644
649
644
645
643
636
641
650
653
639
644
654
660
663
651
641
626
620
629
644
657
660
649
648
663
692
689
661
664
673
674
668
660
673
694
713
714
700
672
669
665
657
655
660
665
680
681
680
683
692
718
721
702
728
741
721
717
710
688
689
707
713
738
763
770
769
762
743
750
762
747
732
741
755
751
756
772
784
781
772
777
784
794
814
814
793
793
802
812
825
816
804
814
817
804
805
806
805
807
813
816
818
802
756
770
807
824
834
826
793
770
792
814
843
837
782
765
764
782
769
755
752
740
745
742
716
723
745
748
740
718
705
692
709
688
661
671
658
636
650
681
661
609
599
656
650
604
597
586
566
579
566
552
552
587
568
558
607
585
563
551
559
555
532
536
542
570
570
553
546
528
528
537
540
552
533
507
508
531
550
554
548
546
551
559
557
537
536
536
530
527
519
523
532
538
524
498
494
484
500
542
546
544
541
532
558
574
542
531
547
571
574
582
591
552
513
519
530
527
526
530
534
541
554
574
587
572
556
551
538
541
559
578
568
561
548
545
551
539
502
495
510
520
530
545
550
551
539
536
533
520
526
561
575
571
562
552
524
516
521
518
524
530
536
540
530
532
534
531
536
532
532
532
527
527
534
531
527
521
519
530
542
540
545
543
544
538
526
529
548
554
548
530
525
537
552
547
565
568
575
582
576
564
564
567
565
558
549
550
552
566
583
582
582
588
597
608
615
624
633
627
622
611
612
609
609
608
593
592
587
577
572
568
564
564
555
561
573
563
545
556
561
563
561
568
563
539
533
532
524
510
513
510
515
526
522
497
489
510
517
492
494
502
498
494
473
466
470
475
484
463
463
442
433
433
439
448
450
444
431
427
424
415
420
431
434
439
438
435
430
430
422
417
409
413
408
416
415
403
386
391
410
421
416
403
408
417
412
409
410
414
416
412
413
413
413
404
405
399
397
414
425
421
420
419
424
414
413
416
428
429
440
436
432
429
414
399
399
406
401
397
383
383
395
396
393
392
387
385
387
435
473
498
515
542
587
633
675
707
744
795
843
895
940
969
990
990
989
989
989
988
988
987
987
988
990
903
793
707
622
539
447
363
286
195
99
28
17
17
17
17
18
18
18
17
17
17
17
17
23
51
73
102
130
139
153
151
148
158
175
204
239
268
288
307
326
335
344
361
367
382
396
403
415
428
433
438
438
440
453
456
466
482
486
484
481
476
463
482
511
514
508
497
499
505
506
520
541
541
525
520
522
540
541
527
519
524
516
512
509
500
507
520
526
528
540
527
521
537
550
549
537
546
553
556
554
552
540
542
539
538
541
539
540
544
557
552
548
542
539
538
533
518
514
511
509
521
521
514
512
522
533
529
525
544
538
545
545
537
532
537
550
567
563
542
535
541
531
529
546
586
571
560
581
572
582
592
589
582
581
581
592
600
601
602
599
603
600
598
588
592
613
632
630
617
616
636
649
629
618
618
616
618
628
632
631
630
629
621
619
625
635
641
636
626
617
620
626
628
615
617
621
620
615
611
608
613
616
602
591
588
587
577
566
568
573
566
559
554
543
533
531
543
540
520
499
487
491
493
487
479
466
450
439
428
428
431
425
413
398
394
392
404
404
378
367
364
356
339
332
341
347
350
361
367
361
339
328
332
342
344
339
334
345
340
330
345
349
337
323
323
339
341
351
364
337
332
360
355
351
334
356
357
357
372
357
348
343
369
403
443
455
433
400
403
404
414
420
412
425
431
440
472
473
464
489
487
478
470
469
473
473
483
482
471
461
469
474
469
473
481
491
496
500
502
500
501
494
500
502
513
512
522
523
517
510
504
502
496
497
501
515
523
519
519
525
520
518
527
537
543
536
521
524
537
542
553
554
551
547
565
572
564
570
572
561
563
559
562
573
571
576
567
561
569
574
588
596
605
612
604
577
566
592
585
587
596
592
588
598
594
594
615
621
613
609
622
646
662
673
653
627
633
639
624
621
605
584
581
582
576
576
567
563
572
576
575
573
571
571
567
561
557
548
533
536
540
537
535
529
519
505
497
495
505
514
511
518
514
507
500
494
484
499
501
492
481
469
456
444
436
437
436
436
446
444
441
450
454
460
460
444
429
437
427
412
420
418
412
411
412
417
423
421
422
417
408
405
402
395
412
435
428
418
410
417
435
444
438
423
419
419
414
408
404
402
395
391
390
401
403
400
395
397
410
408
403
408
397
391
405
410
394
385
371
357
360
373
386
391
385
365
349
349
369
382
383
384
403
453
483
505
543
596
635
663
707
752
788
822
855
886
911
935
953
971
978
990
990
990
984
937
863
764
677
600
529
441
352
275
197
108
27
17
17
17
17
18
18
18
18
18
18
17
17
17
17
34
62
90
118
130
134
132
141
164
196
217
223
247
273
294
317
332
326
332
355
373
389
403
413
420
420
422
431
441
447
451
453
458
467
485
492
482
490
491
489
491
493
484
479
483
490
491
490
498
519
529
525
510
502
500
492
488
485
487
496
494
494
502
504
503
503
501
503
515
510
503
500
499
508
512
507
501
499
490
492
499
498
500
516
524
523
523
511
501
513
523
522
520
531
538
532
534
533
527
521
524
536
537
540
534
536
547
552
557
558
544
535
541
548
552
554
556
551
561
563
561
563
561
556
551
568
585
605
602
587
579
590
615
624
613
605
604
600
593
596
622
639
620
607
598
600
600
598
602
616
610
607
624
636
629
624
629
623
608
614
622
621
623
626
621
616
602
594
601
605
596
586
586
595
605
609
603
586
564
562
565
568
568
563
580
568
550
537
528
519
506
508
503
499
489
473
476
484
476
461
459
457
443
437
437
432
425
415
418
419
410
396
389
381
389
393
389
368
369
374
376
380
368
353
350
354
352
351
354
355
353
356
354
355
350
357
382
379
367
364
361
370
386
393
384
366
365
373
383
396
415
424
408
397
407
421
427
424
415
409
403
406
407
414
413
421
423
425
428
422
417
420
430
444
449
453
452
453
459
451
431
431
435
443
450
448
450
445
439
435
437
444
453
456
458
450
448
478
500
490
470
463
460
456
446
445
449
453
450
454
457
457
459
461
461
463
463
457
454
463
480
488
478
458
456
464
457
455
473
484
487
487
477
470
481
488
489
489
511
516
523
527
509
502
498
494
494
494
492
488
502
501
493
495
507
500
481
488
507
518
520
518
519
527
528
541
542
534
531
531
528
534
544
548
540
528
519
513
506
498
500
515
527
509
503
497
493
482
478
483
477
478
493
488
474
475
472
465
461
462
466
465
457
444
434
447
460
453
452
447
441
445
442
436
428
420
423
416
412
405
397
397
395
386
381
386
393
376
384
396
405
406
391
386
400
408
401
395
391
390
391
392
393
396
391
395
396
402
393
385
385
398
404
398
401
405
407
402
402
400
400
399
391
387
394
401
400
394
400
408
403
401
413
421
407
399
411
412
411
411
409
408
411
405
393
386
395
380
367
373
383
388
383
378
383
389
402
428
450
475
509
556
596
629
650
680
736
780
812
836
846
868
903
927
939
970
985
990
989
985
932
873
799
724
651
582
512
439
357
275
215
131
55
17
17
17
17
17
17
17
17
17
17
17
29
58
84
116
146
159
175
203
229
240
256
284
313
325
330
346
367
382
391
402
414
427
445
456
454
456
465
482
482
474
495
530
537
534
537
537
537
546
558
569
571
555
554
549
546
540
542
553
560
568
567
566
574
573
561
563
580
584
581
582
571
561
562
566
583
597
603
609
605
590
581
594
617
619
610
612
617
620
616
611
610
612

63
468
469
468
470
465
458
458
455
450
450
464
6
448
457
451
444
449
452
448
442
434
440
442
448
456
463
468
469
468
470
465
458
458
455
450
450
464
468
460
458
464
458
445
446
460
462
461
457
449
447
459
466
463
460
453
452
463
463
452
440
430
436
471
487
473
466
472
472
477
488
508
539
575
617
647
668
689
718
758
800
819
836
859
883
888
889
895
899
902
908
914
908
874
808
722
639
562
507
457
398
334
260
184
107
39
17
17
17
17
17
17
17
17
17
47
79
111
144
167
183
203
221
238
260
279
295
313
319
316
323
339
363
387
405
424
445
460
474
483
495
511
513
510
510
508
514
518
521
530
538
548
555
555
553
555
554
552
550
542
546
551
553
549
545
539
535
542
535
527
543
563
576
577
570
567
563
565
573
575
572
568
561
557
554
557
561
569
558
567
577
567
561
560
563
559
543
539
546
554
561
561
555
558
570
572
571
567
576
591
590
591
586
588
584
574
565
560
561
562
562
582
599
605
592
583
576
567
566
575
583
584
588
595
602
606
606
606
607
610
604
607
608
607
615
622
620
621
626
629
624
621
624
621
622
628
632
639
638
637
636
634
638
643
643
640
633
630
625
633
646
657
655
650
647
645
646
641
641
651
643
645
654
652
638
647
657
641
622
623
634
633
613
609
612
622
631
628
625
625
611
604
600
589
578
565
568
571
566
562
565
567
560
553
539
534
532
531
512
496
495
498
493
487
492
479
466
461
458
447
435
425
416
414
430
433
429
424
411
389
375
372
388
392
387
388
388
384
375
366
367
370
375
376
366
363
360
363
363
362
366
372
369
364
358
366
370
370
359
358
375
391
386
378
366
367
363
368
378
382
377
377
384
390
380
378
382
393
403
404
401
394
391
387
374
371
381
390
409
421
416
410
407
403
410
413
417
425
431
427
414
409
417
412
410
416
422
429
426
422
414
415
423
422
425
431
431
420
421
425
424
428
436
428
422
426
430
440
446
437
423
424
435
443
453
456
449
440
433
430
428
426
440
436
438
447
459
462
456
449
453
456
459
461
459
455
454
452
453
453
451
447
448
468
466
443
431
441
451
450
447
451
457
458
449
446
456
467
462
455
460
465
467
459
452
450
446
454
464
469
468
469
473
468
456
448
449
455
463
464
453
446
442
448
456
450
440
431
434
453
463
465
462
473
478
472
472
474
480
480
464
449
446
446
444
451
466
468
466
464
461
469
474
479
474
468
473
478
476
470
476
478
476
473
471
474
471
462
458
472
471
461
477
491
488
476
473
473
472
472
476
481
490
479
484
496
514
527
527
512
498
494
497
505
509
515
509
501
497
501
499
491
499
507
509
503
497
501
496
495
507
524
534
532
517
504
500
498
495
497
495
496
502
504
503
498
500
504
500
493
487
484
480
477
477
469
461
456
451
449
446
447
451
457
452
445
444
459
468
465
462
449
437
424
433
461
474
475
469
459
451
443
443
456
462
466
444
446
463
453
446
452
456
457
459
454
458
457
457
465
467
462
449
438
433
438
455
472
469
461
457
462
468
472
468
461
458
454
451
446
439
439
445
449
449
447
456
462
465
484
515
534
543
559
589
633
665
686
723
764
797
821
844
868
884
887
898
909
909
911
921
922
909
860
799
713
628
567
504
437
370
304
235
162
83
18
17
17
17
17
17
17
17
17
17
38
76
105
132
146
156
188
225
242
237
239
256
279
312
333
335
331
339
369
416
439
451
468
482
482
484
507
527
533
529
516
521
533
540
546
547
546
542
546
551
548
545
551
561
566
560
554
548
551
552
553
558
564
560
559
563
563
565
563
554
552
550
541
543
557
570
572
559
549
556
563
552
544
543
560
587
590
564
558
567
590
591
575
565
566
574
572
571
573
575
565
562
573
570
566
574
570
560
566
572
576
576
580
581
573
570
572
579
583
587
594
594
587
583
591
590
585
583
577
583
588
604
622
621
615
598
589
591
596
609
618
619
620
621
618
617
622
625
622
610
601
604
608
632
654
657
650
640
637
635
629
629
639
648
648
644
638
630
630
637
639
644
642
625
613
625
642
646
635
631
632
641
641
641
635
628
625
615
607
607
608
613
620
614
610
610
610
613
610
594
573
563
563
556
565
585
569
547
540
539
538
526
520
522
519
504
496
490
493
494
479
465
457
449
439
438
440
430
419
407
404
401
405
408
406
401
396
399
400
389
372
351
350
357
368
380
368
358
368
388
390
389
374
360
354
354
359
370
376
382
384
382
377
366
363
364
368
366
360
364
370
376
370
373
377
384
391
396
389
374
368
375
385
379
376
371
370
380
381
382
386
395
401
401
407
423
422
411
402
408
421
421
414
415
411
404
405
404
410
409
405
405
411
431
442
439
429
415
415
422
423
423
420
418
418
424
420
427
439
437
427
432
437
438
442
434
433
433
434
427
424
428
430
432
442
440
431
428
436
443
454
462
458
456
449
439
445
447
448
448
445
446
453
458
458
443
430
435
454
461
457
456
457
455
457
458
448
443
439
437
440
459
464
462
462
459
452
432
428
452
460
460
459
456
455
454
450
444
451
461
466
473
478
473
465
461
473
475
458
453
454
458
455
460
459
456
451
449
450
459
467
471
478
484
492
500
501
510
517
515
511
508
499
497
492
496
497
491
490
481
468
463
471
483
490
486
475
484
495
509
510
500
497
497
486
472
470
473
477
469
464
467
472
477
489
493
494
492
492
488
479
477
475
478
474
454
435
427
429
433
439
437
432
428
432
436
442
446
451
442
435
438
435
444
453
455
461
464
457
445
439
438
437
438
439
435
438
434
436
439
443
437
429
432
439
446
442
433
431
436
433
425
434
441
440
445
460
457
452
452
458
463
463
459
453
447
426
421
436
455
452
448
451
451
443
433
445
460
463
466
484
511
536
570
608
643
658
672
698
727
755
778
807
833
861
880
882
884
880
876
875
865
838
777
694
609
522
452
383
317
252
195
143
76
17
17
17
17
17
17
17
17
17
17
17
42
69
103
135
156
172
195
220
240
260
276
292
302
312
332
353
375
396
409
422
438
456
466
480
492
499
505
504
511
510
499
505
530
551
557
557
564
559
562
564
563
558
564
568
560
558
560
569
572
572
573
572
575
575
567
561
564
566
571
577
569
560
559
565
571
567
561
552
547
548
554
554
563
569
567
561
560
557
563
578
586
584
582
575
565
560
563
557
553
551
544
548
574
596
596
586
576
570
569
565
576
592
591
583
590
605
602
594
593
595
596
597
595
594
594
595
598
599
588
587
590
596
604
606
594
582
586
601
613
614
620
613
613
623
625
622
623
629
635
639
631
627
639
648
644
636
626
625
633
645
649
646
638
643
646
644
635
631
632
645
648
643
635
627
629
633
634
635
634
637
634
635
633
634
644
639
616
615
623
618
605
599
599
613
615
596
583
574
572
570
568
578
577
580
579
569
560
549
541
533
518
492
481
490
491
479
476
477
467
457
459
467
455
442
432
423
420
418
416
418
413
402
385
372
378
394
395
385
370
361
365
372
371
368
366
365
358
349
355
374
378
371
359
351
345
342
346
351
362
362
354
350
354
367
373
375
377
377
381
384
376
369
366
368
358
349
355
363
377
382
377
377
388
395
393
392
394
398
406
416
408
397
389
392
402
412
408
408
408
400
381
365
368
398
421
426
420
412
416
426
424
417
413
413
422
434
431
425
424
426
429
433
431
421
425
434
430
423
418
413
413
423
437
447
442
441
439
441
447
445
438
432
440
437
432
429
431
438
446
446
441
441
444
440
436
431
438
447
450
465
476
466
450
450
456
459
452
444
434
426
430
440
445
434
434
442
453
470
469
460
464
465
461
459
458
440
437
454
465
467
462
457
466
474
476
474
474
477
479
475
463
451
468
467
458
458
454
455
471
478
476
477
488
499
511
511
504
498
501
509
520
521
518
510
506
501
495
496
492
483
481
485
496
497
486
480
485
495
494
492
494
492
478
472
485
499
498
492
491
488
480
479
487
493
492
496
492
485
483
478
480
482
475
461
453
448
446
448
444
428
426
433
438
440
440
441
451
454
455
458
462
455
446
453
456
445
436
426
429
440
441
442
436
438
440
445
449
446
436
430
435
447
456
464
456
450
452
438
430
430
441
445
453
463
461
448
438
446
460
459
453
457
453
441
438
438
444
444
443
449
457
457
449
442
438
434
427
423
438
466
498
526
559
597
630
656
669
684
718
765
794
813
830
839
844
854
880
911
917
914
900
871
816
739
660
580
512
448
380
315
241
173
103
39
17
17
17
17
18
18
17
17
17
17
17
32
58
94
130
149
166
185
201
221
239
259
282
306
311
323
358
387
400
412
430
447
461
478
501
520
526
526
524
528
533
540
545
549
555
559
553
544
535
545
564
572
579
587
590
581
562
560
580
587
582
586
599
598
589
575
559
559
565
571
576
580
570
564
564
566
576
584
578
565
564
567
563
569
585
593
596
595
586
579
578
577
572
566
556
554
569
591
604
601
595
590
590
598
596
588
586
579
575
582
601
608
607
604
593
589
590
587
589
599
613
620
613
599
596
599
596
593
595
608
611
610
606
601
596
613
631
641
643
645
643
636
637
634
637
645
646
642
653
661
651
640
630
629
638
643
648
658
650
633
623
639
647
656
674
682
676
669
667
661
657
652
648
651
663
669
665
652
652
663
660
649
645
643
642
640
642
642
636
627
622
613
604
613
627
635
621
617
610
600
598
595
597
595
586
576
573
563
548
544
543
539
529
518
506
499
500
500
497
489
474
462
456
453
443
437
434
435
440
439
436
433
424
412
407
408
394
381
379
379
383
382
384
382
382
374
367
362
365
378
380
376
367
371
380
381
375
374
372
369
368
363
359
354
355
357
361
352
342
349
371
398
411
410
399
392
394
398
395
388
388
387
391
380
379
396
400
394
396
402
396
395
405
408
398
398
403
404
400
403
407
403
405
413
415
420
425
423
420
416
421
432
424
417
412
413
417
423
431
433
434
428
424
418
415
424
434
437
440
440
441
443
439
433
417
412
426
436
439
429
425
428
437
447
456
462
458
449
442
440
439
436
427
432
438
450
450
449
452
449
445
448
444
443
455
457
457
450
444
455
458
454
457
453
451
454
450
453
463
458
436
424
429
452
457
465
471
468
470
471
468
471
469
471
472
466
457
452
452
456
454
456
456
458
470
481
477
463
443
443
457
472
480
482
476
462
467
481
487
496
497
497
510
518
519
517
524
524
514
508
503
490
490
496
501
509
508
507
491
477
477
491
512
522
524
512
502
498
494
485
478
488
501
496
485
484
482
481
487
486
484
489
490
488
484
481
478
478
475
468
459
451
449
443
448
454
442
432
444
466
467
462
458
448
432
437
437
442
441
444
453
451
443
440
440
438
436
437
443
453
448
446
450
451
459
457
448
445
446
443
440
442
449
453
456
457
454
443
439
442
443
444
452
469
466
460
457
458
459
459
457
440
425
438
443
443
448
457
455
446
440
439
443
447
446
459
485
519
545
576
609
635
652
680
723
757
776
793
809
830
850
868
880
882
886
892
901
893
854
795
712
623
555
496
428
354
280
210
155
86
18
17
17
17
17
17
17
17
17
17
17
27
52
67
86
124
160
189
217
235
247
259
278
294
313
336
348
368
390
403
417
431
444
460
479
488
495
504
508
512
522
540
556
561
567
568
565
563
566
573
581
586
584
565
558
574
577
574
585
586
580
571
569
570
575
580
588
593
599
603
602
593
591
576
580
588
579
576
581
586
590
594
588
585
586
591
590
585
582
583
581
575
569
556
555
563
571
580
600
612
604
596
595
594
592
590
594
597
595
597
602
603
607
605
604
605
606
605
599
589
586
603
615
615
610
609
620
620
611
609
619
624
623
618
613
612
608
614
630
636
630
626
627
621
623
637
648
643
637
645
654
657
651
649
651
658
664
661
652
651
664
667
660
659
662
665
665
651
630
623
642
660
669
677
662
646
637
640
635
624
625
639
654
647
639
642
644
645
655
663
656
639
639
630
621
611
607
609
610
612
616
609
595
582
578
574
570
570
568
568
556
543
532
526
530
516
496
489
485
480
487
486
476
469
458
444
443
439
432
424
417
412
412
411
405
402
404
404
398
390
385
393
396
389
383
377
380
382
381
380
385
391
387
376
370
375
372
365
361
362
369
363
362
368
372
373
371
369
368
370
361
351
351
365
381
388
393
404
406
389
379
379
385
397
404
411
408
407
401
408
419
417
408
401
398
392
401
423
432
425
419
409
408
412
422
431
417
407
411
417
422
426
433
438
436
433
437
439
434
433
437
438
437
430
421
421
430
434
436
445
454
455
445
439
445
447
439
434
424
428
440
451
450
449
450
443
442
449
452
454
457
460
463
456
450
445
441
434
432
429
439
443
444
447
453
462
465
461
457
447
438
440
460
459
449
448
456
452
451
454
460
453
447
454
466
467
460
455
454
453
453
454
460
459
451
443
436
447
467
467
461
447
442
453
460
467
466
465
463
456
451
452
459
456
452
447
453
460
461
458
463
461
460
463
468
468
463
459
458
457
461
464
458
454
463
478
495
505
502
499
489
472
462
459
464
466
470
461
451
453
455
457
466
476
490
510
524
521
523
517
521
523
522
527
524
516
512
509
506
503
503
503
503
501
500
501
504
507
515
522
523
517
508
502
504
503
500
502
495
490
502
509
494
488
490
490
493
496
503
506
496
486
486
482
470
457
462
466
458
458
458
456
452
451
459
466
464
451
445
446
442
432
433
455
470
471
472
470
464
456
449
442
442
443
446
454
457
460
458
449
446
439
428
434
446
459
464
461
458
460
460
453
455
460
454
455
461
461
457
463
456
441
441
453
456
454
450
459
464
462
457
455
452
449
453
459
464
461
454
456
469
496
525
551
587
619
643
670
701
733
758
784
820
845
860
871
889
908
905
900
903
905
895
877
825
739
639
557
486
413
352
288
230
166
83
17
17
17
17
17
17
17
17
17
17
17
45
86
117
140
166
183
201
219
237
249
265
282
295
319
342
361
376
391
406
421
436
449
461
471
490
500
501
510
516
518
527
531
531
539
544
546
548
559
568
571
573
579
583
578
575
570
576
583
586
579
572
570
572
574
571
562
559
571
578
584
587
586
582
577
575
569
568
569
574
582
589
583
567
551
541
548
571
588
598
590
582
579
588
591
591
586
579
586
594
597
600
594
585
580
582
584
592
581
570
562
582
603
611
615
608
606
603
600
599
596
597
599
596
597
601
598
594
599
610
616
613
618
619
617
619
627
627
620
613
608
609
617
613
613
623
627
633
642
638
634
636
646
655
646
640
646
643
638
641
659
664
661
658
653
650
652
647
640
639
643
651
657
656
650
648
648
640
627
617
620
632
653
658
652
652
640
630
633
641
642
637
626
613
608
613
609
607
617
610
599
592
585
578
583
586
574
564
562
554
557
560
552
540
528
517
506
505
500
496
491
487
484
471
466
463
464
458
446
438
430
424
419
409
409
416
411
410
414
407
397
391
391
385
380
375
373
369
361
360
365
370
373
379
381
376
372
369
369
375
377
367
365
378
389
383
370
360
364
364
366
363
373
388
405
411
404
401
394
389
386
384
380
390
395
395
395
399
403
395
387
390
402
400
400
413
415
417
425
422
418
417
418
419
418
414
416
417
413
413
416
430
433
426
423
421
425
441
452
439
428
427
432
440
442
433
429
442
449
448
444
446
444
444
443
439
435
432
431
433
431
433
429
435
438
427
430
456
465
445
428
422
433
447
465
472
472
462
453
450
448
452
457
448
448
449
454
459
460
455
453
458
460
456
452
455
455
446
442
441
441
454
463
452
448
452
453
452
455
461
456
450
449
450
452
448
452
460
463
464
466
464
459
459
456
447
443
438
437
453
456
456
453
434
428
434
437
433
447
474
485
482
467
455
455
453
457
466
463
465
481
479
471
479
489
493
486
480
479
477
473
470
467
469
470
465
455
454
452
450
466
478
489
485
470
467
467
472
489
501
504
504
511
518
522
519
516
514
510
506
508
508
508
505
500
492
492
501
492
488
511
526
534
533
528
522
518
517
512
502
490
492
491
492
498
502
499
489
486
482
482
491
507
515
507
489
477
481
480
473
465
459
441
419
416
449
469
469
460
453
452
454
456
459
457
455
455
459
461
460
451
442
442
449
452
459
465
456
443
436
447
462
466
457
453
452
444
427
436
462
468
447
427
433
447
465
471
464
467
465
460
455
460
467
468
467
464
462
461
450
451
458
461
457
453
451
447
442
439
441
447
450
451
459
476
496
522
543
574
604
632
663
693
722
749
781
804
818
840
861
879
900
907
910
911
910
907
895
862
793
697
600
518
445
372
315
258
193
127
57
17
17
17
17
17
17
17
17
17
17
17
42
85
116
152
177
191
204
213
216
231
262
299
332
349
360
379
397
407
417
430
447
465
477
494
504
505
511
518
520
528
534
539
545
548
546
552
559
561
567
574
563
551
547
552
565
570
570
571
568
569
577
571
563
562
563
569
574
573
573
569
571
582
580
575
576
584
588
575
571
569
568
577
583
572
559
575
598
598
591
580
574
583
580
575
583
582
578
581
578
574
572
578
590
590
591
593
593
593
596
592
585
578
591
602
602
598
599
599
599
593
592
591
596
596
593
594
602
612
619
620
610
597
601
615
632
628
623
624
628
622
613
612
606
601
607
622
631
638
643
640
642
647
647
649
647
638
637
642
645
648
654
660
657
649
647
653
663
665
663
656
643
621
611
626
652
661
659
656
653
651
645
641
638
631
630
631
629
630
624
612
606
609
617
618
618
614
613
611
606
593
575
568
567
571
573
566
561
556
549
534
529
531
524
516
511
511
506
495
487
479
474
471
460
456
456
452
447
442
433
422
418
411
404
397
399
402
389
384
385
386
386
383
380
384
377
371
371
381
392
394
385
376
373
374
373
365
368
371
366
364
364
373
387
378
367
370
380
381
377
367
365
370
381
383
378
377
377
383
393
393
387
379
381
392
397
395
388
381
375
380
394
404
403
404
409
408
403
415
441
437
417
411
420
420
426
420
417
413
418
426
430
421
417
425
428
426
428
430
433
433
428
429
428
426
423
429
435
434
427
426
434
445
459
461
454
448
440
434
437
443
445
448
450
451
449
445
442
431
430
445
454
452
447
444
445
449
442
432
432
444
451
453
445
439
432
433
448
445
445
449
458
464
470
475
463
447
444
448
450
444
443
443
448
457
461
465
463
452
445
448
450
451
444
439
451
467
470
469
461
453
445
439
446
466
467
460
461
462
462
465
468
468
465
461
457
453
450
453
462
468
468
464
466
472
478
483
471
462
460
462
463
461
455
463
474
478
475
477
496
512
509
496
489
489
496
506
530
542
532
519
505
492
498
502
505
501
499
512
518
519
518
511
506
511
506
510
518
509
494
492
494
501
500
492
486
486
486
483
479
480
492
496
486
480
482
476
469
466
467
456
442
443
448
450
448
452
459
469
465
451
441
436
436
435
442
457
452
438
432
439
448
453
452
451
450
449
441
439
440
443
438
433
435
432
431
435
442
451
456
458
455
453
459
467
468
462
452
449
447
435
427
428
451
458
459
459
464
462
459
455
455
453
449
448
441
442
448
452
451
451
441
436
446
458
472
484
499
521
544
576
608
641
669
700
724
755
793
824
837
845
858
873
885
887
890
904
911
895
848
780
695
595
511
447
391
326
255
195
145
78
19
17
17
17
18
17
17
17
17
17
17
32
59
84
115
149
175
188
203
226
245
264
281
300
326
345
350
364
385
405
412
422
436
457
476
490
493
501
508
511
520
526
529
535
544
548
543
544
560
572
563
550
547
554
563
570
574
573
568
569
577
578
570
560
559
558
559
566
569
561
564
572
575
572
567
566
565
562
566
564
557
552
549
552
555
561
566
574
571
573
578
574
575
572
566
569
573
574
582
585
583
578
575
571
570
568
556
563
580
586
578
576
578
574
570
562
566
583
586
589
587
587
596
600
600
596
592
590
588
590
588
592
593
592
592
593
601
603
601
602
599
605
615
622
632
639
636
631
625
623
621
619
624
630
631
626
626
637
640
639
634
632
632
638
648
651
644
641
637
635
631
634
627
618
615
620
624
625
625
624
631
634
620
616
624
627
622
613
607
600
596
594
591
583
581
578
574
574
571
576
585
584
576
565
559
556
560
558
545
533
516
508
505
507
497
488
480
470
464
456
450
453
445
434
428
416
415
406
386
389
396
393
388
389
393
392
387
374
364
363
366
361
357
357
353
357
358
351
343
348
350
346
345
343
333
329
334
327
332
333
334
337
333
327
328
336
339
342
341
333
333
334
332
341
350
355
356
359
357
355
352
350
359
368
355
344
352
360
370
376
369
360
365
373
376
375
372
371
371
374
381
382
379
379
380
385
391
389
383
375
367
358
357
368
380
386
393
404
413
411
405
406
404
401
401
394
389
394
395
394
386
381
394
409
412
420
418
409
400
394
395
392
381
375
390
417
432
430
413
393
391
395
396
400
408
415
423
421
411
398
404
400
396
401
415
420
421
417
407
403
408
411
412
414
416
411
409
419
418
413
408
410
408
407
411
410
413
417
417
408
402
393
382
383
389
400
417
426
416
409
414
414
408
409
411
405
401
406
412
412
409
406
411
413
412
413
411
410
414
420
427
428
423
425
433
430
424
417
419
416
414
421
442
455
451
448
438
423
412
412
427
429
418
411
408
417
433
459
456
445
445
455
469
485
483
475
470
467
466
462
461
471
465
459
455
454
449
449
457
462
468
466
463
464
462
455
449
447
440
438
450
453
450
454
455
445
437
437
439
443
445
444
439
436
443
443
436
428
413
392
370
365
379
397
398
389
389
387
385
385
394
413
421
425
425
422
421
410
396
392
384
372
368
378
402
415
414
405
397
394
400
399
404
413
404
399
400
402
403
405
403
400
402
409
415
415
410
408
400
394
391
386
393
404
400
401
397
381
378
397
409
407
413
413
409
404
400
395
397
407
413
410
412
423
445
474
491
517
549
582
607
641
678
720
755
782
802
818
826
832
838
841
840
841
848
847
817
754
658
545
454
386
329
287
237
176
104
23
17
17
17
18
18
18
18
17
17
17
17
17
17
31
58
104
139
155
169
188
204
222
236
250
273
292
308
329
342
354
372
393
408
423
443
452
454
456
459
463
469
476
483
483
494
506
504
503
512
518
524
533
532
529
530
532
536
542
537
520
510
508
505
499
509
513
513
527
549
559
550
544
544
543
537
540
539
523
527
542
536
528
529
535
539
542
534
527
514
518
532
555
560
547
530
528
534
538
541
542
543
545
546
541
542
550
561
563
553
544
545
540
536
538
540
533
529
538
555
566
570
565
564
567
566
560
554
551
559
566
576
577
574
577
580
586
595
594
588
581
572
570
571
573
570
577
598
613
621
621
612
603
603
612
614
621
625
623
619
617
619
620
620
622
617
612
612
609
608
609
615
609
599
606
614
619
616
601
592
595
608
615
614
605
613
621
606
600
607
606
601
600
594
600
593
584
579
575
574
572
567
562
557
561
559
546
531
518
514
519
517
507
495
484
483
483
479
475
482
471
456
448
446
442
435
423
412
404
402
405
401
393
378
366
362
360
369
380
376
373
370
365
365
359
352
346
335
342
343
342
342
335
331
346
357
359
356
351
349
348
345
340
332
334
334
335
341
345
346
349
346
344
341
344
347
348
358
368
369
367
362
357
358
352
350
362
377
390
394
395
394
384
373
371
369
371
380
381
375
381
392
389
384
382
381
385
391
397
404
400
396
397
399
401
395
394
403
416
403
399
398
397
405
416
416
415
415
415
410
403
410
423
437
429
423
424
424
426
428
428
426
424
423
420
417
415
416
413
417
424
430
426
421
422
426
428
428
427
427
433
437
436
431
428
427
425
429
440
442
436
427
418
421
435
436
432
431
429
420
408
406
417
436
441
437
442
444
446
445
437
436
429
416
416
412
433
456
454
444
441
441
445
449
439
434
438
439
438
438
445
449
453
443
425
432
442
448
442
441
440
444
453
454
452
450
444
444
448
446
444
441
442
443
446
449
453
457
461
472
480
471
459
452
450
461
474
471
464
465
465
459
453
455
458
461
462
466
471
480
484
478
483
500
506
505
503
501
497
492
493
492
486
485
479
474
478
485
497
511
515
509
501
499
498
496
496
492
485
492
501
493
485
480
478
479
469
467
489
496
489
486
484
487
495
491
477
471
470
466
458
450
444
439
435
434
433
435
440
443
447
446
443
443
448
452
448
436
425
426
442
447
442
434
426
417
423
444
451
456
456
448
439
439
439
439
444
439
441
452
460
454
442
438
451
463
474
474
464
460
453
444
443
437
435
442
449
455
451
441
437
444
455
463
461
453
449
453
456
452
439
436
441
455
467
489
516
540
569
603
637
653
675
715
751
778
803
825
848
857
870
890
902
905
902
900
894
879
842
785
697
603
530
467
395
320
249
182
115
38
17
17
17
17
17
18
18
18
17
17
17
41
73
109
141
164
180
199
217
238
249
255
260
279
320
357
375
392
408
423
440
446
442
454
470
477
488
505
522
532
540
544
545
538
550
562
571
572
569
580
589
595
590
584
587
590
580
574
572
573
577
576
576
573
574
578
581
580
576
577
577
574
571
567
570
573
578
579
576
574
575
584
588
588
585
579
573
570
572
581
584
584
589
586
579
575
580
580
576
585
591
596
595
582
563
558
575
588
594
603
601
601
595
591
604
619
621
610
600
596
593
599
604
607
615
621
628
631
619
613
615
619
619
616
620
623
627
633
639
639
640
637
632
635
636
638
641
643
645
648
651
651
654
657
660
661
656
655
656
657
658
660
660
657
657
655
666
668
661
664
665
663
661
648
643
656
669
673
660
651
642
635
635
634
636
636
635
630
626
624
624
613
615
626
619
603
607
625
635
638
632
621
608
598
590
579
568
565
570
562
548
546
544
529
526
530
528
522
512
505
498
489
483
481
471
462
454
449
441
438
432
429
421
402
387
391
407
417
414
404
392
393
396
392
385
387
397
391
384
374
369
372
371
375
380
379
374
372
371
369
369
371
369
364
361
376
389
383
376
373
373
380
383
389
397
392
392
393
400
402
410
411
406
404
399
402
408
413
412
411
410
414
419
415
415
419
417
415
411
408
410
418
423
431
433
433
435
439
432
416
417
422
428
444
445
443
443
440
440
445
443
435
424
427
435
447
458
457
451
452
453
453
456
453
450
444
447
458
473
479
463
453
455
452
454
460
460
458
461
464
465
465
468
460
454
460
469
465
454
445
442
443
439
437
453
471
489
490
482
479
477
476
470
466
473
484
481
472
474
473
462
456
465
466
459
459
462
472
476
481
482
484
483
478
480
476
463
461
473
479
483
482
471
466
468
475
478
483
476
464
458
472
481
476
480
484
483
475
467
467
477
492
493
478
464
467
469
481
481
478
482
486
491
494
495
499
510
513
505
493
490
493
495
491
483
470
465
460
465
485
508
511
505
506
513
512
504
507
523
524
520
523
532
536
533
533
536
534
530
524
526
534
535
535
536
536
536
522
516
519
519
514
512
515
526
530
530
535
533
526
519
516
517
520
520
520
520
521
517
510
501
501
509
527
527
532
537
524
505
488
479
475
467
465
471
478
486
496
491
473
463
466
475
479
474
475
475
471
470
470
470
473
472
473
477
480
483
470
459
470
483
492
500
502
490
476
474
479
483
481
477
474
476
477
474
471
471
469
471
478
480
483
483
479
482
484
480
473
467
465
469
476
483
483
481
481
487
499
505
503
492
481
480
490
495
513
545
577
607
639
664
679
705
742
790
835
859
878
896
906
910
919
926
920
912
926
927
905
858
776
666
578
513
454
385
310
239
181
114
52
17
17
17
17
17
17
17
17
17
33
70
98
122
156
192
219
235
245
265
286
304
315
327
346
372
397
397
411
432
447
463
479
490
507
525
524
526
544
555
566
573
573
580
584
581
584
583
586
585
578
578
591
609
611
601
609
620
622
615
601
591
591
596
601
613
610
604
597
589
583
585
594
597
597
591
598
611
621
624
623
615
613
612
612
613
611
607
599
603
608
621
628
619
611
604
592
596
612
619
613
603
599
610
618
626
623
620
617
616
616
617
625
633
636
638
635
627
622
625
627
627
629
629
635
638
634
629
640
651
642
636
641
642
644
643
643
652
661
662
662
660
666
671
670
671
671
663
659
665
677
677
674
670
667
670
675
690
696
688
684
681
683
676
681
696
696
687
687
700
708
688
677
689
694
685
679
682
683
678
683
685
682
675
668
666
664
660
658
664
658
656
654
651
650
653
653
647
646
644
633
623
621
615
608
600
600
604
604
595
585
582
579
567
560
550
545
541
530
509
498
492
495
501
499
486
476
471
463
454
450
445
437
436
432
445
456
442
430
427
422
406
394
394
413
432
438
427
416
412
413
412
409
418
423
420
410
406
403
399
393
387
386
380
368
383
399
412
417
419
419
421
425
427
416
403
409
417
421
424
425
428
431
431
428
430
430
424
419
422
416
420
433
439
441
444
448
448
447
427
420
430
448
456
453
447
447
448
454
460
461
462
460
461
457
462
470
467
462
458
464
466
460
460
463
467
471
476
472
465
468
475
473
470
478
481
481
477
473
470
468
467
464
468
469
469
474
482
483
486
472
476
499
499
492
484
479
490
497
487
472
463
475
481
489
491
491
491
492
495
492
488
481
479
477
480
492
501
487
481
486
481
474
471
486
498
497
490
480
488
493
495
494
491
495
490
493
501
493
489
496
497
494
492
488
480
473
479
484
486
482
484
495
499
496
500
495
489
494
502
504
497
491
490
495
500
498
487
479
487
501
508
507
503
496
484
477
481
487
487
485
488
489
476
479
501
518
527
529
522
517
514
508
510
514
519
521
520
511
501
497
495
497
496
495
492
481
474
479
498
513
510
514
529
536
535
549
556
548
544
543
541
543
553
554
550
550
542
532
533
538
542
545
540
543
547
555
564
562
558
556
563
550
536
531
526
527
527
529
534
532
534
536
530
525
520
524
541
543
531
519
508
499
504
505
496
490
474
466
473
480
475
472
471
472
474
466
476
488
493
494
492
500
499
499
499
491
480
476
476
488
493
494
498
498
495
488
483
479
476
476
488
494
488
485
484
479
477
479
478
474
479
485
489
488
484
486
496
505
506
502
495
483
478
481
478
483
483
484
483
480
483
490
490
480
472
477
491
497
499
498
500
523
556
590
618
651
682
720
754
776
804
833
855
877
900
914
939
943
942
947
955
959
941
901
830
723
629
562
502
434
365
288
218
153
91
33
17
17
17
17
17
17
17
17
17
48
82
120
147
172
198
218
239
262
282
298
307
313
337
364
378
385
394
409
425
439
458
477
499
518
526
527
529
534
546
563
568
564
564
565
568
571
582
596
612
626
618
604
596
591
589
583
586
595
601
594
586
580
584
594
594
587
591
595
587
586
580
576
590
598
610
622
622
609
603
599
602
601
606
601
596
591
588
594
604
614
607
603
607
616
617
615
612
606
601
602
607
607
603
605
613
612
608
610
609
609
606
607
618
626
622
613
606
610
617
620
619
617
614
614
616
624
624
623
626
644
643
635
626
622
629
641
652
656
658
668
672
663
654
645
644
655
657
654
655
651
657
676
693
682
668
662
661
669
677
680
676
671
663
661
671
673
668
671
673
672
671
671
671
667
658
654
654
650
645
647
656
659
652
658
667
663
661
660
656
652
646
642
641
639
640
637
632
630
628
623
613
606
598
587
579
576
576
574
564
559
556
553
542
529
523
517
508
509
511
497
483
474
470
473
470
472
472
466
456
448
446
444
436
422
418
421
413
413
411
404
402
398
396
400
403
401
395
390
387
387
386
376
365
362
374
383
390
394
389
381
386
387
395
397
386
374
379
387
390
391
388
388
391
399
401
403
400
403
404
400
400
405
409
415
416
411
407
411
417
413
408
409
406
410
415
430
437
437
434
429
419
421
425
441
453
451
447
446
443
434
435
440
443
448
451
449
444
440
444
454
457
456
454
452
446
443
447
449
448
445
442
443
437
439
442
447
454
464
472
474
473
471
471
466
464
461
455
455
452
452
455
454
453
458
462
459
460
456
444
455
462
467
469
470
476
481
478
476
471
471
471
460
449
456
472
485
484
486
478
475
468
459
452
457
474
493
486
475
463
457
460
469
470
466
470
472
482
488
485
475
467
463
456
466
479
473
458
460
466
469
467
458
467
472
467
461
468
473
473
479
484
479
472
472
477
478
480
478
483
490
486
480
472
474
474
475
477
475
475
477
481
474
466
463
460
456
458
464
456
450
457
465
480
494
506
503
494
491
496
499
497
490
484
489
498
495
487
478
471
461
453
467
489
497
488
482
482
482
479
477
473
474
478
482
493
509
514
520
518
516
522
533
537
530
531
528
525
529
523
531
537
533
529
525
523
530
534
527
533
543
543
543
542
535
528
524
519
506
493
504
517
518
517
515
509
505
503
500
499
507
513
508
506
500
493
491
484
463
457
459
461
464
459
448
441
448
450
463
486
489
475
463
459
455
455
471
477
479
478
473
461
455
458
468
472
466
463
464
464
468
467
470
468
464
461
459
461
462
458
459
463
468
467
464
465
464
460
458
464
464
459
459
462
460
466
475
478
468
465
470
468
463
451
443
446
450
464
472
475
471
466
466
487
519
542
567
606
644
669
692
732
759
782
798
822
841
864
883
899
911
923
939
957
958
927
886
824
735
637
551
479
418
365
310
242
162
78
21
17
17
17
17
17
17
17
17
17
35
71
103
129
157
176
189
209
228
253
276
293
302
314
331
347
368
382
390
393
403
419
454
484
507
518
515
517
529
535
543
543
542
537
543
560
569
578
578
576
574
568
565
568
576
576
567
569
577
577
576
577
576
579
584
584
577
572
573
578
580
584
589
594
592
586
585
582
577
575
571
571
574
571
577
589
595
599
591
593
601
604
600
588
582
582
572
582
592
590
589
593
595
600
598
593
590
592
590
591
594
591
594
600
593
586
595
611
614
596
581
587
592
608
622
623
617
614
613
611
608
598
602
608
614
619
626
630
634
632
624
625
628
632
632
639
650
655
651
652
653
653
652
655
657
658
659
654
649
648
655
654
649
652
663
675
674
664
669
674
667
662
654
646
646
647
650
655
648
650
649
644
645
652
650
636
625
627
634
626
624
629
629
626
621
617
612
604
597
602
605
604
603
591
583
578
573
564
553
546
545
547
538
526
518
516
510
506
505
501
492
480
471
459
452
443
442
438
432
426
430
431
417
406
402
396
388
389
393
390
391
399
408
402
389
386
386
384
375
364
358
367
367
360
367
372
374
381
389
385
369
359
357
357
364
365
366
381
391
388
387
389
385
380
378
376
383
383
381
379
378
379
389
399
407
404
398
396
398
400
394
397
397
386
384
391
402
407
407
402
395
406
428
438
432
420
423
433
437
427
415
412
412
418
424
430
434
438
437
433
427
427
434
433
432
424
425
432
440
439
432
434
438
448
457
462
458
451
448
443
433
429
435
445
445
443
443
449
448
444
448
459
462
462
458
454
450
456
457
458
458
448
444
443
436
440
453
459
459
459
456
455
465
470
463
450
443
448
464
474
473
470
465
460
458
463
471
469
462
454
451
448
452
462
463
456
450
444
450
457
458
453
442
449
457
460
464
458
457
467
477
479
476
470
463
458
457
452
451
450
462
462
462
458
458
460
460
465
473
478
478
472
467
462
454
462
476
467
453
439
439
452
467
479
479
476
485
480
478
479
482
491
491
485
472
464
477
488
492
498
501
501
499
503
507
502
500
504
511
517
513
510
509
510
514
521
520
518
512
510
505
500
498
507
512
512
506
507
511
510
502
493
488
495
504
504
497
491
496
498
494
495
499
499
500
495
491
483
481
482
480
463
456
465
475
476
463
447
444
442
434
431
443
457
458
455
453
459
466
461
458
453
453
449
447
448
451
449
448
455
462
460
449
440
439
434
438
440
443
436
422
410
415
434
454
467
472
467
466
463
456
459
464
467
462
462
459
455
453
456
458
459
458
454
451
441
440
438
433
435
445
454
458
452
451
456
467
479
498
520
553
596
632
651
667
698
734
769
797
822
847
862
869
879
894
909
918
917
916
907
875
818
735
629
540
465
389
320
258
201
147
87
33
17
17
17
17
17
17
17
17
17
17
53
94
121
149
181
195
206
218
232
252
268
280
297
319
335
356
376
383
389
396
411
430
448
468
487
499
507
513
521
532
536
537
544
548
543
542
552
555
559
553
546
549
551
560
568
566
569
569
568
568
571
572
569
565
562
564
564
560
556
550
556
571
576
576
569
565
574
585
587
574
569
571
566
568
572
568
557
555
562
574
570
561
558
557
559
562
570
579
584
581
580
576
574
572
569
572
591
595
593
594
600
597
586
580
584
590
598
589
579
572
580
591
591
579
585
599
614
620
620
619
613
609
610
614
620
612
610
613
618
628
636
637
627
622
624
626
627
631
631
629
634
639
640
644
640
636
639
646
658
657
660
660
653
641
634
638
643
647
655
659
653
649
645
645
644
648
658
659
656
650
637
630
633
643
650
642
633
628
629
624
623
632
635
622
612
599
592
597
603
597
592
582
579
574
564
548
547
542
533
530
524
515
509
504
498
484
477
475
481
480
472
465
458
454
449
440
433
426
422
412
405
405
407
403
395
384
378
371
366
370
381
385
382
374
370
373
376
373
367
361
355
348
350
361
370
371
370
366
365
368
372
371
368
361
353
354
365
369
368
368
370
370
366
363
369
370
378
391
387
382
379
387
396
389
387
391
402
409
410
409
400
397
401
400
397
394
388
389
394
404
411
410
410
411
411
401
399
413
418
415
420
423
428
429
429
431
435
436
440
439
435
432
430
431
438
440
434
427
432
444
451
447
432
423
418
432
443
445
443
446
446
447
443
448
456
453
452
455
453
441
439
445
450
451
449
449
453
458
453
448
443
435
442
449
450
447
440
432
433
446
459
460
455
451
457
455
453
456
470
468
457
451
454
455
444
445
457
468
473
475
473
468
459
460
459
453
454
458
459
461
462
464
463
459
460
467
479
481
476
468
459
456
449
435
429
443
455
452
461
474
476
477
478
481
475
462
455
448
446
443
429
417
428
450
465
468
462
458
458
447
444
452
473
482
475
464
461
460
466
467
469
466
466
471
480
479
473
480
481
481
479
481
481
481
473
463
463
468
468
479
482
473
467
461
473
488
489
487
477
470
471
485
504
521
529
522
521
522
516
508
514
523
518
506
502
499
502
518
531
523
515
517
521
522
512
507
514
524
527
521
512
513
510
506
504
498
491
487
482
481
483
483
482
486
497
503
509
500
495
488
474
459
443
449
460
453
439
435
437
449
448
446
466
469
460
450
452
463
469
467
461
453
447
447
449
453
457
461
459
452
451
459
461
456
455
455
454
448
440
445
458
461
463
458
439
433
433
443
451
455
466
477
470
461
452
449
453
455
458
459
458
456
449
441
440
431
435
457
467
467
462
444
437
433
436
455
469
485
498
518
548
579
614
643
667
699
734
768
794
821
850
871
883
894
902
914
921
930
945
940
902
838
761
673
596
526
464
408
336
264
196
122
51
17
17
17
17
17
17
17
17
17
19
56
91
114
141
167
182
202
220
234
248
256
280
300
322
347
367
379
390
400
402
413
425
432
446
481
501
508
513
521
527
537
545
546
546
540
538
536
538
544
551
553
551
542
538
539
548
563
568
565
565
566
562
563
568
573
568
563
566
570
573
578
577
574
567
564
559
559
575
577
571
573
576
588
582
574
564
556
562
571
574
574
565
555
549
564
586
593
590
586
583
579
581
584
587
576
561
560
577
582
577
569
561
572
592
596
577
567
580
601
610
610
607
608
614
606
594
591
592
590
597
608
609
607
600
610
621
628
630
633
630
629
630
625
619
618
616
624
638
633
626
622
627
622
623
616
623
649
661
656
649
639
646
663
675
677
673
665
657
652
649
647
655
660
660
657
654
650
653
644
639
642
645
647
641
641
640
638
647
639
626
615
614
613
614
617
614
606
607
603
590
579
584
589
586
583
575
565
555
546
541
531
517
498
490
493
491
503
502
500
495
492
483
469
462
461
455
444
436
437
427
414
402
404
409
402
395
388
389
391
390
383
372
377
381
378
370
369
376
374
369
366
367
367
374
370
358
357
372
373
369
369
365
358
351
357
366
360
359
371
386
390
381
376
367
363
365
371
383
386
395
393
385
387
391
389
382
380
382
388
391
394
394
387
383
382
382
390
401
412
417
423
420
426
430
432
431
427
422
407
402
406
409
411
413
415
421
427
431
429
425
427
420
413
413
419
420
416
422
426
440
452
450
445
447
446
443
442
445
444
441
438
436
441
444
443
451
452
449
449
448
437
434
435
437
428
427
439
457
461
462
460
457
455
457
457
455
451
455
458
456
451
452
448
456
463
463
454
452
442
424
424
430
445
455
464
468
466
467
470
469
467
472
471
465
456
452
459
459
454
452
450
451
457
461
459
444
435
435
445
456
450
449
467
464
462
463
458
458
464
463
455
451
456
459
464
467
470
464
453
446
440
442
459
464
461
460
452
455
461
459
455
460
463
456
459
468
463
457
469
471
476
485
476
463
457
452
458
476
489
490
481
472
473
475
468
460
461
459
463
474
480
492
494
498
512
519
526
527
518
512
502
494
500
519
523
511
497
491
501
506
511
520
514
514
512
511
509
513
514
520
525
519
511
500
495
484
479
487
497
487
476
479
492
501
500
496
492
492
499
497
490
466
438
430
445
466
462
450
441
440
447
451
448
452
456
455
454
449
443
442
440
441
441
435
430
431
443
446
449
452
458
460
461
456
450
446
448
462
472
471
462
459
459
458
461
460
456
450
452
451
447
443
436
441
448
450
448
449
465
463
460
458
460
449
436
430
434
442
447
456
461
456
450
446
438
441
446
457
479
506
528
561
598
634
660
685
718
754
775
801
825
844
855
858
869
890
903
916
923
927
920
895
842
749
645
562
493
428
347
278
217
158
92
34
17
17
17
17
17
17
17
17
17
34
65
92
116
137
163
196
224
245
260
261
272
289
309
335
354
364
368
386
408
423
430
441
454
466
478
492
498
495
499
507
527
542
544
540
546
558
560
551
550
557
566
565
558
550
549
551
553
553
556
559
560
561
560
558
559
559
553
554
551
562
572
573
567
551
542
553
559
560
560
562
569
581
585
583
581
578
574
568
570
575
574
575
570
559
558
573
587
587
582
580
575
570
571
571
569
565
572
579
571
559
564
578
578
577
574
574
567
567
584
610
625
619
611
605
590
580
590
611
625
625
621
614
599
598
610
613
612
619
622
620
619
616
622
629
641
645
637
629
621
609
602
618
643
653
649
636
621
627
648
664
664
660
660
662
666
664
662
656
656
651
659
668
665
654
648
643
649
652
654
653
646
637
631
629
623
624
637
641
633
618
617
629
628
623
619
613
600
588
579
580
580
578
576
570
570
569
561
549
538
533
526
516
506
498
490
485
491
493
484
473
462
464
457
448
442
437
433
424
418
423
420
412
397
379
373
376
382
387
388
384
379
375
368
356
355
367
372
377
385
382
372
362
362
369
375
376
372
361
361
369
377
383
376
364
366
377
378
380
381
384
381
371
374
382
377
373
370
366
369
384
389
392
385
391
393
387
380
396
405
403
394
388
390
390
394
395
395
406
409
402
398
397
400
410
424
432
428
419
413
408
406
413
420
425
428
432
433
434
436
435
431
430
434
436
432
429
429
426
416
404
397
401
410
421
434
441
453
463
467
466
451
439
439
443
444
450
452
454
455
453
452
450
446
445
449
451
452
449
449
453
451
441
434
436
436
446
461
469
468
467
465
457
443
442
446
449
456
462
458
447
442
445
442
446
453
460
469
465
458
447
446
453
455
454
448
449
450
454
461
465
460
455
454
461
456
449
450
456
465
466
461
456
457
452
442
440
435
435
445
464
475
478
478
472
471
476
479
476
465
456
454
462
466
460
452
448
452
459
459
456
449
450
460
474
476
475
475
475
474
471
468
460
455
455
459
458
463
464
462
450
450
459
460
462
454
450
455
471
473
466
457
460
474
481
485
488
482
479
485
481
469
481
490
488
480
477
476
472
466
462
460
458
474
484
479
476
483
501
512
515
518
516
512
508
511
521
522
528
531
527
519
516
513
508
505
508
513
510
510
517
519
517
519
519
519
526
525
513
512
510
502
498
497
492
486
487
490
488
480
486
495
499
503
498
494
490
486
473
458
449
445
446
442
439
451
447
439
439
440
443
447
441
434
443
464
473
466
458
443
433
441
454
460
455
442
442
448
460
460
451
441
442
446
451
450
441
438
447
458
459
451
438
428
439
458
460
453
450
456
464
466
464
461
458
457
461
466
469
462
453
445
440
434
435
434
442
446
442
441
441
441
442
446
461
479
503
533
571
620
661
685
716
751
774
790
807
821
857
885
896
911
925
934
940
952
952
923
879
813
724
631
554
491
420
346
277
212
139
66
17
17
17
18
17
17
17
17
17
17
35
70
101
136
163
178
192
213
232
238
244
258
289
328
339
338
354
373
380
388
404
432
454
469
487
498
507
511
517
520
531
536
530
531
544
551
551
552
558
555
553
552
553
548
543
546
550
552
556
561
560
565
568
563
561
556
546
540
539
547
554
550
541
536
538
538
542
550
560
560
551
556
563
570
575
562
554
565
574
575
577
575
568
557
563
568
580
580
579
571
559
553
554
564
568
575
574
557
546
556
568
574
582
599
605
608
606
602
601
600
598
594
600
612
618
616
604
597
595
593
585
579
583
603
618
625
614
608
611
615
615
619
625
631
629
624
624
627
627
631
641
640
631
624
631
633
630
629
641
649
651
650
646
642
644
645
645
647
649
653
647
644
650
656
649
640
635
637
635
635
639
642
638
637
635
644
642
639
630
617
608
604
607
608
600
592
590
598
604
604
599
589
583
582
573
563
560
544
531
524
524
532
539
534
525
518
512
496
489
480
479
472
459
449
442
452
455
449
435
423
416
412
400
391
387
390
400
401
394
384
375
372
375
380
374
367
361
358
372
377
375
370
360
358
363
363
361
365
371
377
374
358
352
355
368
381
378
369
367
366
361
362
361
363
364
362
350
350
359
373
384
397
402
401
400
398
395
386
380
380
381
391
399
399
400
398
395
388
385
399
425
437
429
421
421
422
421
419
409
402
398
405
408
403
397
402
411
423
434
438
434
429
424
414
412
429
446
446
438
436
437
439
433
426
429
434
438
440
438
422
405
407
431
445
448
443
434
430
432
434
432
434
445
454
455
453
452
452
446
447
443
438
440
439
435
433
439
441
444
451
461
465
465
463
460
455
448
440
444
454
454
448
455
461
464
465
466
469
470
473
467
463
462
455
451
447
441
446
459
458
450
456
466
462
462
462
463
457
448
449
456
474
479
473
468
464
455
460
472
468
467
469
463
454
450
454
451
449
456
452
456
460
466
472
471
471
459
452
452
449
441
442
449
455
458
451
454
460
465
468
470
470
469
469
472
476
465
452
451
456
459
462
448
439
445
461
468
469
462
456
460
463
463
466
462
459
466
466
461
462
462
463
472
474
472
473
481
478
471
464
458
456
460
462
458
453
462
470
473
477
482
483
485
495
497
498
491
477
466
475
492
497
498
483
482
494
503
502
496
493
488
490
494
498
501
497
497
500
505
503
501
500
501
501
507
505
505
515
522
511
500
497
513
533
528
514
504
505
516
520
519
522
521
516
510
509
517
522
525
522
513
494
490
496
500
494
491
492
496
493
492
487
482
484
480
476
468
461
460
468
468
458
444
437
441
450
446
440
440
440
449
462
448
443
449
453
457
460
458
454
448
451
451
446
449
455
452
447
451
457
460
460
460
457
457
455
455
458
463
464
457
455
450
454
451
443
439
447
448
442
437
434
441
451
452
445
445
450
447
444
449
448
446
446
445
450
456
456
460
469
489
521
559
599
636
669
700
725
752
777
803
829
853
877
887
888
889
902
926
947
957
937
916
867
769
659
587
532
461
378
304
246
189
121
48
17
17
17
17
17
17
17
17
17
29
64
93
123
154
171
185
204
226
246
259
271
282
298
315
330
350
368
377
392
414
441
451
462
471
480
481
492
500
506
512
514
514
520
530
549
565
564
560
559
556
545
539
545
545
539
540
541
533
527
526
548
569
576
581
576
578
577
570
566
567
557
553
549
558
563
566
572
575
575
561
555
561
571
572
572
577
579
569
558
559
572
581
582
579
573
566
563
566
564
569
581
588
582
573
572
572
579
591
586
584
590
595
594
588
577
572
573
583
590
586
577
574
588
596
594
587
583
593
597
609
616
615
606
600
603
608
608
618
628
626
620
618
627
636
638
641
639
634
630
637
647
652
648
644
645
646
649
651
654
651
648
647
647
654
655
646
643
653
664
662
655
657
656
657
655
651
639
631
632
638
652
654
647
635
624
634
644
643
631
621
618
617
615
615
623
627
627
627
620
608
604
601
594
587
579
568
563
557
550
536
531
528
527
516
507
503
493
473
476
492
497
483
474
465
454
439
439
448
446
440
441
431
423
419
415
413
407
394
381
391
399
394
387
383
375
373
380
377
372
379
373
371
377
375
369
361
371
375
375
376
377
377
375
372
372
364
357
360
361
363
356
349
357
371
386
397
397
388
390
396
398
386
376
386
400
405
399
396
395
394
393
396
388
392
397
394
394
400
404
401
404
412
420
417
417
419
416
412
409
401
399
417
433
432
424
418
421
438
438
431
428
436
448
446
440
434
438
438
441
451
445
436
439
445
448
446
450
450
450
457
448
434
435
430
423
424
440
446
447
448
450
451
449
450
449
447
445
451
451
445
448
454
451
450
445
438
437
446
458
477
478
467
463
464
459
450
444
432
426
433
455
477
485
470
460
462
464
465
463
469
476
478
474
462
455
460
468
470
468
470
475
474
469
462
458
456
449
447
463
471
466
463
458
463
458
464
467
465
462
460
457
457
455
461
466
468
464
464
463
466
474
477
469
462
457
462
467
464
454
450
456
458
450
453
464
469
461
455
457
466
463
452
441
454
470
479
477
464
453
455
459
464
458
451
454
462
475
476
470
467
479
485
488
483
481
480
471
463
456
469
487
484
469
462
462
460
463
472
475
474
471
466
467
476
478
476
476
473
477
479
476
470
466
462
461
463
463
472
482
483
481
486
488
481
474
468
468
480
492
500
498
496
493
498
500
504
508
509
504
504
502
500
499
497
503
506
497
494
495
496
497
499
502
517
521
509
498
486
486
486
495
517
539
544
544
543
537
530
524
523
522
521
520
523
527
520
511
504
508
519
526
523
519
510
507
508
511
509
510
511
505
503
502
493
477
475
477
479
479
482
478
472
478
488
480
460
444
440
451
456
452
455
457
454
451
457
460
457
460
466
465
459
456
452
452
450
448
447
450
457
467
474
468
460
465
467
465
459
453
437
426
423
432
442
451
455
455
459
467
470
467
460
460
457
454
455
456
452
453
450
446
458
458
451
444
450
451
446
443
440
442
450
460
470
494
518
548
586
627
658
681
703
751
798
826
843
860
887
902
913
928
934
938
957
964
943
909
871
791
683
593
522
466
405
342
269
200
121
47
17
17
17
17
17
17
17
17
17
19
51
84
109
144
179
190
189
197
220
250
274
291
312
333
349
362
366
365
376
390
423
444
449
470
492
498
496
501
520
527
523
518
519
529
542
549
546
543
547
557
560
564
561
548
541
543
552
552
554
558
556
554
556
561
563
565
561
558
557
559
550
552
555
557
560
561
567
569
570
564
563
568
571
567
570
575
579
582
579
570
564
566
577
583
584
584
585
580
572
568
562
559
561
557
554
561
568
571
571
567
566
578
589
589
595
608
614
614
606
594
585
575
589
601
604
608
607
602
602
593
582
577
599
616
621
625
626
620
618
609
598
597
616
626
629
631
630
644
647
649
648
646
645
637
634
638
643
651
658
657
654
654
658
650
640
648
659
661
657
655
646
637
642
650
654
653
649
641
640
650
649
637
621
625
639
643
644
644
640
637
627
621
617
615
622
626
622
615
618
622
615
601
593
589
594
587
572
562
556
550
541
539
532
519
506
492
481
483
496
500
492
480
476
469
463
464
468
463
451
443
434
428
422
411
396
389
387
393
394
386
384
382
384
383
383
380
378
376
372
367
363
367
361
357
355
353
352
358
368
376
379
378
371
369
370
374
366
356
354
366
385
387
389
385
371
363
366
373
378
377
372
371
383
380
369
386
401
400
404
413
411
409
409
406
399
398
397
400
402
405
407
412
420
423
417
409
403
399
403
415
421
421
418
415
414
417
416
424
422
421
422
435
436
427
423
426
433
442
439
433
440
444
445
444
450
451
444
439
432
429
435
446
444
438
431
433
439
445
442
444
448
448
444
447
448
450
453
459
465
465
459
453
459
468
474
468
465
458
447
429
419
432
450
465
470
469
473
475
465
458
453
460
459
453
463
468
465
458
457
464
474
474
472
463
455
453
456
468
473
465
460
458
455
451
446
443
449
459
455
461
469
467
461
464
471
476
473
463
456
457
466
475
468
460
461
462
460
456
460
461
452
439
438
439
456
473
474
475
473
467
472
472
472
479
463
455
452
460
469
470
462
459
457
461
469
469
465
466
470
469
477
479
479
475
465
462
466
475
473
461
452
449
457
468
479
480
471
464
461
461
470
473
466
465
474
486
480
471
470
473
480
483
475
468
467
470
473
470
476
490
495
493
493
493
494
488
483
491
494
495
491
487
493
490
479
488
493
486
481
483
485
489
498
514
526
524
531
532
529
526
525
528
520
514
514
519
519
514
511
513
505
501
509
518
514
504
506
510
502
500
504
514
526
533
533
533
528
514
499
500
512
511
498
490
496
492
482
484
490
497
489
473
471
485
484
481
474
465
458
453
448
443
441
439
441
455
459
450
445
444
456
461
465
469
464
462
469
467
464
465
464
458
452
444
441
436
434
436
436
440
448
456
468
468
463
450
451
456
456
453
459
462
460
459
459
459
455
449
443
446
449
454
456
449
438
445
460
470
473
462
436
431
445
460
457
451
448
452
479
513
545
572
600
635
671
714
749
767
786
810
834
871
897
904
916
936
948
954
960
954
942
908
839
746
655
578
514
443
369
304
238
164
84
20
17
17
17
17
17
17
17
17
17
54
91
109
133
157
173
189
201
213
235
252
274
287
302
323
343
359
380
401
411
422
432
447
462
467
472
484
510
518
518
517
520
522
519
521
532
542
551
549
547
549
553
553
556
561
562
560
562
565
562
546
542
553
564
567
560
557
557
569
569
558
552
551
549
557
561
559
560
571
570
564
558
553
551
558
564
562
556
552
559
568
572
579
578
577
570
572
580
580
579
578
581
580
573
571
568
565
567
571
574
583
578
571
577
580
573
562
563
582
604
612
603
592
593
597
602
597
589
586
593
599
605
607
606
605
606
604
591
597
605
609
611
616
628
642
651
653
654
642
637
638
637
625
619
633
651
653
648
649
652
659
669
672
672
666
656
649
647
650
654
659
658
654
649
655
663
661
654
645
638
634
636
640
644
647
642
634
641
643
627
624
629
627
628
621
609
594
591
594
595
599
598
589
572
564
578
590
584
566
547
536
529
518
514
505
497
490
484
491
488
489
482
471
467
468
456
429
411
412
424
434
428
426
420
407
390
387
388
384
392
398
398
389
386
384
385
379
374
371
375
378
374
367
360
352
354
365
374
371
368
367
368
368
363
359
363
370
378
373
366
359
360
368
370
371
378
379
380
380
377
376
378
381
380
382
383
383
376
365
361
369
385
390
399
406
410
404
402
393
383
384
383
392
402
411
411
413
418
412
405
405
404
408
410
406
407
413
424
429
425
417
414
418
416
415
425
435
439
433
432
441
440
427
421
430
436
436
444
442
435
436
437
439
440
436
437
435
431
432
430
436
439
448
455
450
443
447
449
443
436
442
451
454
453
456
458
458
457
450
444
446
456
462
452
443
444
449
448
452
449
443
443
451
457
457
455
453
451
449
451
455
455
455
452
456
464
458
449
446
452
457
458
461
458
448
436
444
458
454
452
463
463
453
454
454
452
457
465
474
474
456
448
449
448
453
457
456
455
452
444
444
444
450
457
464
463
454
447
448
450
458
462
458
450
452
447
456
459
461
463
459
465
470
463
460
459
455
446
444
442
436
438
444
454
454
451
453
453
459
465
468
467
462
456
456
455
455
452
453
451
445
439
441
438
450
458
463
457
456
463
465
469
478
481
478
479
480
478
474
469
466
464
454
448
468
491
492
489
477
469
479
490
482
493
497
503
502
500
497
498
504
513
520
516
510
509
510
505
500
507
497
487
490
498
504
501
507
513
509
508
508
505
504
498
492
488
498
508
502
496
495
494
493
491
487
486
484
478
472
472
470
469
470
479
476
463
462
458
442
434
431
424
428
433
435
439
437
432
428
431
434
442
443
442
439
435
432
432
428
435
445
444
445
441
436
435
431
421
415
422
430
431
430
424
420
431
444
454
450
439
442
453
456
452
446
447
445
440
435
431
437
440
438
434
429
429
435
439
439
436
437
439
435
430
430
433
425
428
430
429
429
436
450
467
492
528
583
620
644
668
694
729
762
784
806
846
883
889
898
915
921
925
939
951
939
908
858
774
674
585
517
453
382
311
251
185
107
34
17
17
17
18
17
17
17
17
17
17
29
54
82
129
167
175
178
190
218
239
258
274
288
294
300
315
334
360
379
392
408
418
421
439
467
478
486
484
483
481
486
499
505
507
511
507
505
515
514
516
518
533
551
552
540
535
532
538
543
547
543
537
536
531
528
531
539
537
538
538
532
521
518
524
532
533
543
552
556
552
544
541
536
532
532
540
548
553
550
547
551
548
551
554
549
542
544
556
553
543
538
538
530
528
529
542
556
551
543
541
551
554
551
549
555
568
583
579
573
573
573
570
568
567
572
572
573
581
582
581
581
581
580
576
576
582
579
574
578
583
590
598
599
596
594
588
599
615
626
635
636
631
634
635
633
627
618
622
631
634
631
621
623
642
662
661
648
633
627
619
619
627
634
631
623
621
636
641
639
628
622
615
608
602
603
612
606
600
596
595
597
597
597
599
596
591
591
585
589
593
593
580
565
558
554
551
541
529
515
513
512
514
507
497
494
485
473
472
470
459
464
463
449
436
435
432
424
413
399
393
386
390
386
376
376
375
376
374
370
367
367
365
357
342
334
339
352
360
354
343
337
345
349
347
341
343
347
351
347
342
341
346
351
355
350
339
336
346
343
340
340
336
335
345
345
348
346
344
353
355
351
357
368
374
374
363
359
363
367
367
370
373
382
386
386
387
385
382
382
383
380
379
385
389
396
400
392
387
382
381
384
392
393
384
378
383
398
407
411
405
394
377
378
392
402
404
409
417
413
404
401
403
412
422
432
427
419
416
418
426
421
407
401
409
426
434
427
425
433
439
433
423
423
426
433
434
433
432
425
419
424
434
439
434
435
443
442
436
432
433
434
431
427
432
444
442
440
440
437
426
421
426
436
437
438
433
433
441
451
458
451
448
451
443
436
436
436
439
437
434
431
434
441
447
441
431
439
454
462
462
455
438
427
418
410
420
435
448
453
444
443
445
440
447
445
435
429
440
452
459
455
447
449
452
449
444
446
452
453
447
440
432
428
436
437
431
425
426
432
442
451
456
454
441
432
430
452
467
468
455
450
453
456
456
456
463
468
478
476
460
447
459
476
484
482
476
470
467
464
468
468
469
477
474
465
458
454
457
466
476
484
488
492
490
497
508
526
526
513
493
495
499
487
478
478
475
474
488
498
497
491
497
510
510
507
504
504
500
495
496
493
490
485
485
486
486
481
484
486
485
495
498
499
498
484
474
478
475
452
437
434
430
424
421
419
414
423
434
436
441
449
459
457
451
452
444
434
431
433
444
448
451
445
436
439
445
444
449
453
449
443
437
437
447
450
458
455
444
444
443
440
444
447
449
448
449
448
448
453
452
451
450
448
443
430
425
427
431
431
438
445
453
451
453
452
443
441
438
440
447
451
452
438
428
429
439
451
467
486
511
534
568
604
640
682
716
762
800
815
828
851
878
894
899
906
908
919
936
938
932
926
894
824
730
632
555
490
413
338
274
208
128
53
17
17
17
17
17
17
17
17
17
17
39
76
108
135
152
161
177
205
236
252
268
287
304
315
316
322
344
370
386
401
415
433
452
471
479
474
474
486
497
508
524
532
538
545
549
544
542
542
546
552
546
548
548
555
557
556
556
558
559
558
556
553
553
557
555
550
554
561
572
571
561
551
551
548
546
551
558
553
543
540
540
538
540
558
579
591
590
586
585
582
578
568
565
574
578
577
573
572
571
568
563
561
572
578
575
578
574
575
579
577
590
596
584
574
575
587
590
583
587
588
587
589
595
601
605
608
610
606
604
604
609
610
612
607
612
604
592
594
605
618
630
638
640
634
633
641
643
644
640
636
633
631
634
644
659
669
667
665
664
661
659
652
652
657
661
659
665
665
660
655
645
640
644
652
665
675
673
662
664
658
650
644
644
642
644
644
639
635
639
639
636
627
623
626
620
614
604
585
588
605
612
606
597
592
583
573
568
564
559
559
550
540
528
512
509
507
500
499
495
493
487
477
468
461
455
448
444
438
431
425
424
418
408
391
384
384
407
421
420
416
413
399
389
383
386
388
386
388
389
383
373
365
363
368
374
376
373
374
372
373
373
370
371
361
362
373
386
389
381
369
372
385
385
381
379
387
398
398
395
398
399
391
379
366
374
383
387
394
407
413
415
412
404
405
409
416
423
421
408
403
412
420
417
405
407
413
417
422
421
422
423
416
411
422
428
438
441
440
437
441
446
445
434
427
426
438
449
449
450
443
438
444
453
454
453
451
447
447
441
441
445
455
459
458
451
444
446
463
467
462
461
460
463
472
469
473
475
463
460
461
458
468
466
470
464
457
458
464
468
478
480
472
475
483
483
467
460
458
455
464
473
466
456
467
487
489
478
464
450
446
455
471
485
489
475
470
465
468
470
479
488
494
490
486
488
487
483
479
472
470
474
467
462
468
475
481
482
480
478
471
454
454
463
463
470
474
478
483
476
471
472
485
485
478
469
468
469
473
474
477
483
484
479
482
484
478
473
472
483
487
486
485
475
478
481
481
492
501
499
490
487
484
464
457
461
471
481
481
479
477
480
484
498
508
510
507
505
504
496
488
474
478
501
515
510
502
499
501
498
497
494
488
487
495
506
520
524
522
520
530
538
538
538
535
535
534
531
532
535
535
531
529
524
523
532
536
535
521
512
522
532
540
536
534
529
522
531
536
532
524
513
504
510
517
513
513
514
514
515
515
512
513
513
510
510
502
493
482
474
467
464
459
454
451
457
459
457
458
465
472
474
472
471
471
462
451
442
439
456
465
484
487
477
466
469
485
486
478
482
484
482
472
460
459
460
464
477
495
496
491
485
478
476
478
476
469
467
461
449
449
463
472
479
485
481
465
457
459
464
469
469
467
470
467
467
465
459
455
456
464
470
465
460
459
473
497
511
532
560
592
631
672
702
726
752
778
803
836
865
886
894
902
914
933
943
951
976
987
979
940
859
761
670
594
532
468
401
335
270
197
115
47
17
17
17
17
17
17
17
17
20
56
99
128
156
184
209
223
233
242
259
276
284
300
322
339
353
364
384
409
425
433
448
461
471
478
492
499
507
517
517
512
519
541
563
565
562
554
546
552
571
581
573
566
576
580
577
573
570
565
564
567
572
574
570
562
561
567
562
550
558
571
579
583
577
569
558
557
571
590
598
591
583
579
578
575
578
585
592
588
589
583
584
587
582
578
579
587
592
599
601
597
590
586
590
583
577
580
582
585
596
599
598
602
606
603
592
585
577
578
582
602
620
626
621
613
603
592
599
618
627
624
627
628
620
610
601
607
625
638
634
635
640
639
639
638
639
642
651
662
659
656
647
639
642
650
659
654
649
661
676
691
698
690
685
688
695
692
687
687
686
680
675
667
656
652
663
667
672
667
660
667
664
659
656
652
651
649
650
644
649
647
640
643
640
638
638
641
634
618
621
626
630
623
610
597
594
596
595
580
565
559
562
560
550
538
528
526
517
510
495
485
488
485
490
488
468
449
452
461
467
457
438
418
411
422
429
431
433
416
404
394
376
369
376
388
399
403
396
392
387
402
416
419
411
400
384
373
384
396
394
392
393
391
390
387
381
387
400
406
401
394
383
373
371
386
400
397
398
401
402
408
408
401
399
400
399
398
404
414
423
429
431
423
405
399
410
421
422
424
425
426
422
422
421
427
432
432
427
418
408
415
416
426
440
450
453
455
455
445
435
437
444
443
441
437
446
452
463
465
461
454
441
444
445
440
441
451
461
469
466
452
453
469
484
489
483
479
474
472
472
478
481
475
473
474
475
481
491
484
482
477
470
466
472
472
469
469
465
462
475
491
490
485
490
487
479
474
473
476
477
472
476
483
475
461
454
465
479
480
483
490
484
482
488
489
481
484
481
478
473
475
478
478
480
490
493
485
478
480
479
480
475
464
460
462
457
460
468
486
500
497
488
481
488
489
481
473
464
450
453
461
473
487
494
484
481
481
486
489
499
506
502
487
482
477
473
472
475
483
482
480
475
470
479
486
481
486
487
484
483
489
499
505
503
502
497
482
478
482
485
476
480
496
502
491
481
484
484
483
492
505
504
508
503
493
500
507
512
508
500
499
499
502
503
506
500
497
499
501
505
501
507
519
517
512
520
526
525
531
530
538
546
546
542
536
543
543
536
530
523
515
525
519
513
516
520
520
520
522
516
521
523
529
523
527
533
534
541
539
539
528
522
515
504
500
496
498
504
507
510
492
490
497
504
502
491
484
478
476
477
469
457
455
461
471
478
481
478
470
465
459
458
459
464
465
463
472
481
483
482
467
455
459
462
472
472
466
464
465
461
463
469
462
461
471
474
471
472
461
455
463
468
467
467
471
470
463
460
464
467
468
463
464
470
467
468
480
477
461
455
456
459
457
464
470
472
469
458
455
452
453
455
468
497
548
582
613
646
673
701
737
785
817
849
872
889
905
925
948
972
980
980
988
989
979
948
886
793
700
626
562
497
442
371
303
232
162
112
67
25
17
17
17
17
17
17
20
49
77
103
134
169
195
213
229
243
252
256
264
276
284
306
330
350
367
379
389
403
411
416
430
450
467
470
478
500
514
502
502
516
530
530
536
542
548
557
566
568
564
556
551
550
546
551
559
570
571
571
564
559
559
562
560
559
566
569
564
557
550
551
558
560
563
559
561
563
563
560
559
564
567
572
569
562
566
570
564
559
565
577
573
564
566
567
572
581
591
595
594
578
569
576
572
567
574
587
590
581
575
575
577
589
592
585
586
602
605
596
597
600
595
595
597
599
601
590
585
594
610
621
618
608
603
607
616
620
620
620
622
612
610
627
641
646
649
647
646
645
643
647
655
655
656
655
659
662
663
657
657
659
660
658
655
658
659
661
656
651
662
668
665
658
649
653
664
669
666
664
666
654
635
630
639
653
658
653
645
638
634
634
631
632
632
623
616
619
610
598
596
597
595
582
565
560
570
563
550
540
535
533
526
516
508
508
510
502
483
457
446
446
454
460
463
461
455
449
439
425
417
408
403
408
408
398
381
381
400
421
421
407
397
390
378
372
369
376
378
381
386
384
382
370
360
360
358
348
359
368
369
379
380
378
375
381
391
393
386
384
385
384
382
380
377
376
380
387
388
386
385
383
381
381
391
393
394
390
394
399
396
388
383
386
386
389
396
405
414
420
418
420
410
395
399
414
427
431
427
424
423
425
431
433
430
428
425
424
429
433
429
424
422
423
418
422
434
442
448
449
446
446
446
443
449
455
458
456
453
452
454
458
454
444
443
448
453
454
454
455
459
459
446
443
452
452
448
451
455
459
455
447
439
444
459
461
464
470
475
489
489
477
474
474
474
477
482
478
459
438
433
442
463
481
483
476
461
454
452
453
451
457
466
464
465
466
469
469
468
465
461
453
451
456
466
468
469
477
482
480
478
470
469
465
461
457
462
469
471
470
473
483
491
490
486
492
489
477
468
467
474
480
485
485
482
479
485
482
481
480
478
496
509
510
516
519
523
525
523
523
522
522
525
525
524
522
518
510
500
495
506
513
503
491
481
487
503
512
515
510
506
511
521
526
521
511
508
505
502
496
482
482
485
484
487
494
496
485
494
495
487
481
477
478
473
467
462
460
455
456
453
451
454
459
459
456
449
443
432
441
457
458
459
462
457
459
464
468
466
456
450
450
451
451
451
453
445
440
450
462
470
471
470
462
451
462
471
472
466
461
459
454
450
449
456
454
453
461
462
459
452
449
451
446
435
445
457
466
463
459
453
454
455
460
466
465
452
440
446
454
451
439
430
429
429
432
453
475
499
533
577
612
638
660
687
717
740
764
783
808
852
879
895
901
909
919
924
918
897
859
809
736
662
604
551
481
416
363
307
248
173
106
62
28
17
17
17
17
17
17
17
20
46
78
107
140
172
192
211
224
242
266
279
289
295
306
325
344
361
375
396
418
427
431
438
449
459
464
474
486
509
537
549
541
538
533
538
545
552
556
553
557
557
558
561
556
539
530
532
538
544
557
563
563
581
587
582
570
557
552
555
563
564
571
580
581
583
583
580
577
576
577
576
575
573
572
562
555
559
569
571
571
569
566
563
566
580
590
584
583
577
567
560
568
579
585
587
585
578
575
573
580
590
590
589
589
591
593
594
588
588
589
595
606
608
599
591
587
595
599
592
598
615
621
620
612
618
624
621
617
617
618
619
625
630
637
642
641
637
627
616
618
633
643
650
656
651
648
659
670
680
681
675
670
670
670
669
669
675
669
663
655
652
660
662
661
656
659
659
658
659
657
657
658
660
657
647
647
646
632
649
634
628
627
623
619
619
616
611
607
618
620
613
594
574
561
551
559
561
560
552
536
522
512
504
503
497
490
488
486
479
469
471
469
460
449
438
431
428
428
419
409
415
416
433
448
434
439
439
408
393
388
380
376
356
339
333
329
348
370
382
394
392
384
381
383
386
371
360
360
369
368
366
370
375
372
370
374
380
376
365
360
365
366
369
375
375
376
391
401
401
388
370
365
372
380
385
384
372
369
384
403
411
412
415
412
403
399
388
394
405
411
409
406
409
406
409
414
410
407
414
419
418
416
414
411
411
412
411
424
431
430
424
420
425
426
420
420
431
437
439
449
448
446
445
446
448
444
435
431
422
418
421
425
430
440
446
448
448
449
449
451
460
470
467
450
438
439
465
486
473
466
464
464
461
463
461
463
459
458
460
456
455
457
458
463
468
462
458
463
470
460
454
455
459
459
453
446
442
448
463
479
482
472
462
456
460
461
463
466
462
466
469
467
473
473
472
465
464
470
471
468
468
468
463
456
461
468
471
472
473
471
468
464
465
459
462
469
475
472
464
474
488
497
499
500
495
483
474
470
474
475
473
467
462
474
487
492
492
484
492
502
508
509
505
505
506
515
521
523
520
518
513
517
514
513
512
503
498
499
500
498
508
514
506
489
484
496
514
521
517
511
500
504
509
506
502
501
500
498
502
494
483
479
484
491
498
492
485
486
483
463
449
444
440
440
437
434
443
452
446
440
436
434
437
440
446
454
461
467
460
457
459
462
471
474
470
465
451
441
442
453
461
459
449
439
439
442
439
444
460
459
453
456
465
460
463
458
452
451
453
456
454
455
458
460
450
447
446
453
453
456
457
450
446
446
443
444
441
444
444
439
442
452
454
454
447
449
457
450
449
464
491
528
560
607
645
675
694
733
775
809
828
841
867
904
920
939
951
962
973
990
990
986
956
901
816
716
635
578
522
453
377
296
218
137
68
17
17
17
17
17
17
17
17
17
39
81
119
136
162
179
185
199
210
210
219
260
296
317
330
336
339
360
395
428
444
440
436
433
442
457
465
481
497
495
491
497
514
512
489
476
483
506
533
564
576
568
563
557
546
537
536
544
555
563
559
548
536
539
549
558
561
557
566
572
570
559
554
558
556
557
556
555
550
548
557
575
580
581
576
578
565
553
552
558
564
574
579
581
576
575
571
571
580
581
577
569
563
568
573
570
570
573
581
586
589
582
570
569
562
571
588
592
590
601
608
607
594
595
602
607
607
609
612
616
613
608
607
612
612
608
608
608
610
612
606
608
617
631
644
658
666
665
662
657
653
648
647
643
653
660
658
652
656
661
660
658
652
652
657
656
662
675
677
677
668
668
669
673
668
665
671
679
688
683
673
659
643
644
647
652
653
649
640
630
629
628
627
630
623
614
597
598
614
618
616
609
601
600
599
580
569
567
560
547
548
549
537
531
532
534
521
507
496
486
470
457
453
454
462
467
468
461
445
431
414
399
386
391
403
396
397
403
406
397
394
388
380
380
376
375
384
380
375
378
374
368
366
367
369
366
372
372
365
362
362
370
371
371
366
370
378
377
373
373
373
368
361
364
372
385
389
381
385
392
400
399
396
392
377
361
365
387
408
409
399
398
396
400
405
408
408
406
412
412
409
410
406
409
412
406
402
404
407
407
415
418
408
411
418
433
441
438
432
432
428
426
417
424
431
428
428
432
424
421
444
455
451
449
451
457
458
454
453
458
461
456
452
449
447
446
441
442
451
458
458
451
438
431
432
426
429
437
459
472
466
460
464
469
480
480
459
449
446
443
433
437
457
464
466
468
467
471
477
474
472
470
470
467
455
446
437
449
460
466
461
454
456
462
471
467
469
475
477
468
456
465
473
479
479
473
467
464
465
469
472
471
468
470
470
465
459
461
475
485
477
468
475
477
479
484
475
458
448
454
472
480
487
494
493
493
502
505
500
491
487
489
497
495
496
498
502
496
493
497
507
522
531
536
534
527
532
540
537
529
523
519
509
499
497
504
521
530
524
510
513
516
514
517
518
519
520
518
504
494
491
498
496
496
497
495
492
494
494
485
475
468
474
498
507
496
487
485
478
468
458
453
451
449
452
449
442
442
437
441
442
457
469
472
469
458
444
441
446
451
451
448
443
436
431
428
431
433
437
446
451
451
461
455
448
449
456
461
461
461
472
489
486
460
453
468
483
492
479
473
465
454
451
437
432
440
454
467
467
462
450
449
442
433
434
434
435
433
440
456
456
454
446
433
428
431
438
458
482
509
548
587
633
672
703
731
763
795
828
862
891
920
937
944
964
979
990
989
989
989
990
950
872
765
660
576
523
467
394
322
253
174
97
33
17
17
17
17
18
18
17
17
17
33
71
115
155
172
177
187
196
216
246
272
282
290
311
330
340
353
373
392
398
412
432
444
448
453
469
485
500
504
516
532
542
548
549
545
539
537
543
550
547
542
551
552
562
563
552
545
554
555
554
545
548
560
560
555
551
550
554
557
556
557
551
550
554
556
558
557
559
566
569
560
547
535
534
546
560
577
573
559
559
568
579
590
592
582
581
586
579
580
578
568
557
568
596
600
591
590
583
579
578
581
584
575
575
574
573
584
591
590
595
602
603
604
604
603
605
600
604
603
609
614
626
619
615
609
621
628
622
618
626
635
637
636
645
647
643
646
647
645
642
646
652
660
662
663
654
650
657
666
667
665
670
672
664
666
664
660
655
657
660
668
670
663
663
658
656
661
665
671
676
668
654
647
651
657
653
655
649
649
656
659
646
630
624
623
627
623
613
620
618
611
602
594
579
568
566
561
553
555
560
553
540
529
518
508
510
511
505
489
486
484
463
432
422
424
432
444
458
446
424
414
410
415
412
405
403
402
397
394
391
393
387
378
370
379
383
375
373
371
368
367
369
353
349
361
367
369
375
367
362
360
362
367
371
371
374
380
379
383
380
371
363
347
371
404
402
391
376
375
381
396
396
389
389
396
393
396
400
401
400
400
399
399
406
411
406
402
391
390
408
418
420
419
411
407
400
402
401
403
417
432
432
433
430
426
422
421
424
422
430
428
423
435
440
436
432
427
429
440
451
448
435
430
426
425
437
454
460
458
457
450
435
433
441
456
463
464
461
461
456
446
430
429
448
460
458
457
458
458
456
461
458
452
447
440
446
459
469
471
472
468
464
464
465
457
448
440
446
456
465
472
470
466
463
468
471
473
469
467
466
468
467
474
478
462
455
454
462
463
460
456
454
462
467
470
470
462
457
457
452
463
479
484
478
475
462
455
456
467
483
480
472
471
476
474
480
500
503
492
477
473
478
486
489
492
483
478
475
474
480
507
527
526
525
531
535
512
500
508
530
538
533
524
522
514
503
498
496
488
487
480
481
488
502
511
516
527
529
523
515
514
506
502
505
501
498
503
500
487
481
470
474
478
481
487
497
500
503
501
502
500
494
482
467
461
462
447
429
430
446
455
454
454
455
453
466
468
462
459
450
444
436
441
450
456
454
453
450
451
454
449
445
451
468
473
459
452
460
464
452
444
440
448
447
447
453
453
452
451
448
440
440
453
452
452
446
441
444
455
453
459
454
453
450
455
460
454
448
448
457
454
450
444
437
438
442
453
438
415
413
423
430
436
462
491
507
514
536
580
619
649
678
711
749
788
802
817
844
877
903
924
941
949
953
960
969
954
926
883
820
736
652
589
529
470
420
367
302
232
167
116
72
37
17
17
17
17
17
22
40
64
101
128
144
161
204
234
251
262
262
270
274
280
302
323
343
351
355
365
386
401
418
428
431
434
438
454
467
474
499
506
508
521
523
516
512
528
538
536
535
518
525
539
551
556
548
543
545
543
541
546
566
563
556
551
542
530
535
547
562
572
563
550
555
564
563
565
569
567
567
568
562
559
555
557
561
557
547
534
542
549
546
562
568
578
580
582
588
578
575
581
576
570
567
572
578
585
588
589
582
578
578
581
586
589
587
579
572
573
574
579
575
567
575
590
599
606
605
599
595
599
599
596
609
621
621
619
621
618
617
617
611
616
628
638
647
645
646
651
648
640
625
617
628
645
667
683
683
668
650
635
646
659
661
661
664
667
668
671
676
680
678
669
662
654
648
648
648
655
651
643
640
640
644
646
646
644
640
640
632
621
624
631
623
616
618
626
626
616
610
607
593
581
574
564
561
566
559
546
538
528
515
508
502
497
489
475
469
471
472
469
467
460
461
454
441
434
434
441
434
423
418
403
390
392
399
393
390
388
381
372
373
387
392
392
384
374
371
377
374
355
354
378
385
380
369
364
371
372
379
386
387
376
376
378
375
366
367
374
383
387
383
379
370
368
367
370
380
377
371
375
386
378
377
389
397
409
413
411
402
399
400
398
404
418
428
424
417
407
404
403
404
411
415
411
405
417
422
429
428
419
421
422
423
424
426
430
436
425
417
414
417
427
438
438
427
432
445
446
447
444
434
432
434
444
458
455
451
451
446
444
447
446
452
460
459
457
450
445
438
438
446
448
452
456
456
462
462
458
453
442
441
445
446
442
454
458
455
463
468
468
464
470
476
486
482
474
468
469
477
480
475
474
467
458
453
452
457
461
463
463
470
469
467
464
470
470
478
481
477
477
480
481
478
478
472
464
471
476
478
479
481
489
496
496
492
482
476
472
469
474
472
478
485
490
498
502
508
507
503
513
517
523
520
522
534
532
518
503
503
515
522
514
498
486
497
496
506
500
473
473
486
489
486
492
506
518
513
497
488
483
480
483
489
492
495
494
490
485
485
487
489
489
487
487
488
487
480
467
458
449
442
444
444
445
445
442
441
443
444
442
441
442
447
449
450
458
462
459
455
450
446
435
427
422
430
439
445
449
454
446
441
442
445
455
453
451
447
450
443
447
457
462
456
457
461
460
453
446
436
421
418
423
432
443
450
456
461
463
465
466
467
468
462
461
458
452
446
439
441
442
441
451
456
445
435
429
422
432
463
495
524
548
579
613
642
675
714
744
765
783
806
827
845
860
864
868
879
902
910
908
898
855
802
736
675
615
553
483
418
355
291
220
147
94
50
22
17
17
17
17
17
17
33
61
88
110
131
153
184
217
244
252
254
256
268
285
303
319
332
339
356
366
377
395
418
439
451
466
483
492
495
494
488
491
498
511
520
528
525
522
533
544
543
544
551
556
554
550
548
546
546
550
550
546
540
547
565
562
559
559
552
546
555
563
563
547
541
554
562
564
558
550
548
551
554
560
559
555
553
554
558
557
560
565
566
560
562
558
562
563
562
572
582
576
566
573
575
576
575
572
566
563
567
577
580
578
579
583
571
559
557
566
568
573
588
606
609
603
598
598
594
594
602
607
610
602
599
600
594
597
610
622
620
622
632
629
626
627
628
627
628
630
633
636
637
644
650
647
639
636
647
652
647
653
662
665
668
667
658
657
662
657
658
659
655
643
638
653
657
644
626
628
652
667
666
657
643
640
642
638
629
619
621
630
630
617
612
604
599
591
590
594
587
575
561
560
565
559
541
533
528
527
529
526
523
516
501
500
502
496
485
475
472
459
449
441
439
440
435
432
423
408
405
404
409
407
408
401
379
366
373
376
377
375
376
381
365
355
358
369
377
372
367
366
365
361
354
355
369
370
368
370
371
371
363
354
362
368
369
377
381
383
382
383
386
384
383
382
382
378
373
373
378
381
385
397
408
403
395
393
399
405
401
394
383
379
380
386
399
404
401
403
404
406
420
433
433
425
415
410
411
407
412
416
417
416
414
419
421
419
413
410
420
429
423
423
424
429
427
425
418
413
413
420
443
464
456
434
428
438
447
446
441
439
434
443
451
449
448
460
473
473
452
444
444
449
455
463
461
458
457
446
434
447
466
469
464
461
460
457
454
461
460
454
456
453
448
450
447
435
439
462
481
485
480
476
471
469
466
460
460
461
465
462
460
464
467
469
466
467
471
470
469
471
472
471
471
478
479
474
472
482
475
471
464
451
453
470
480
483
480
486
485
473
464
467
472
467
460
463
472
481
487
497
510
511
524
534
536
525
517
510
517
528
522
502
495
495
501
502
501
505
506
507
503
496
492
492
492
495
501
501
495
492
489
490
491
500
501
494
481
482
481
483
484
485
488
494
491
489
483
475
470
465
461
453
448
447
445
443
447
446
443
440
435
446
449
447
437
431
431
436
444
450
452
445
441
445
454
464
469
457
448
442
444
443
438
436
436
458
474
469
466
456
444
449
455
450
446
447
458
466
459
456
456
453
453
456
460
466
460
453
454
462
471
475
466
454
452
452
446
439
429
421
427
443
454
460
461
462
457
451
446
460
489
522
551
579
610
649
676
699
736
774
798
820
840
860
879
887
889
894
908
923
937
944
943
903
820
731
651
581
521
459
394
330
265
201
120
57
17
17
17
17
17
17
17
17
39
77
116
139
154
174
194
213
232
250
278
282
296
310
320
328
338
353
370
385
398
414
422
430
446
453
467
490
496
510
530
540
541
535
534
539
544
541
541
537
531
528
530
537
539
535
524
518
531
551
569
585
582
570
559
550
549
546
538
540
553
558
549
540
546
560
562
557
554
557
559
557
552
547
549
546
553
557
558
559
557
552
544
542
546
552
567
573
574
573
571
570
567
564
580
586
579
571
565
561
562
561
564
570
573
572
567
569
578
578
575
570
576
577
579
591
588
580
569
562
572
578
588
600
610
610
613
612
616
627
630
630
633
625
624
623
621
621
623
625
628
632
632
630
638
647
649
648
644
639
638
648
658
646
641
643
646
648
646
642
637
635
644
639
628
634
642
642
635
637
637
642
653
655
655
648
639
626
622
621
622
615
603
606
607
613
612
600
593
594
598
599
587
572
563
557
558
557
552
536
527
521
512
506
497
488
482
474
467
459
462
466
463
458
456
458
444
423
412
412
411
404
400
399
399
390
388
387
381
370
376
376
370
367
369
377
383
381
377
374
372
360
356
368
371
362
347
345
353
356
361
364
363
373
378
383
377
367
368
373
368
358
355
368
373
358
351
358
378
400
400
392
388
380
377
386
395
378
368
390
408
417
412
410
402
400
405
411
415
413
408
406
406
414
415
414
413
408
405
407
406
407
408
412
414
412
419
421
426
424
419
417
423
425
431
438
437
434
435
433
428
429
433
433
434
433
436
439
430
432
445
449
443
434
431
429
433
441
443
447
447
436
436
444
449
450
444
445
454
456
447
443
452
457
455
449
450
461
468
465
455
454
456
454
453
445
446
443
441
447
450
443
422
417
437
458
475
483
482
478
471
464
459
448
449
464
462
456
459
466
461
457
461
465
455
449
454
462
467
465
456
459
477
481
469
465
462
454
452
457
463
464
465
464
463
465
461
456
456
457
458
462
468
470
470
469
473
473
465
457
457
472
492
498
483
465
468
479
484
495
499
497
485
479
481
480
479
477
458
455
470
490
486
482
492
510
529
526
515
513
510
503
498
490
495
513
531
534
523
518
520
526
528
532
527
514
500
499
501
512
517
504
492
488
485
489
501
513
515
512
505
515
514
509
506
500
488
481
478
483
483
474
464
464
466
475
482
479
471
460
454
451
446
449
448
446
457
451
444
444
446
445
454
453
443
438
440
446
446
444
443
439
430
432
442
453
459
448
441
443
442
436
440
440
444
442
447
447
440
432
446
452
445
439
444
450
457
452
449
451
454
452
441
437
429
433
440
445
450
452
457
453
447
444
444
438
434
446
445
435
428
416
420
427
432
421
420
434
453
475
507
541
593
654
694
732
765
802
832
858
883
914
949
964
970
979
990
989
989
989
989
989
959
876
769
684
610
542
459
374
290
205
115
35
17
17
17
17
17
17
17
17
17
53
97
138
168
175
174
185
207
229
247
258
271
273
263
265
278
296
321
349
372
389
401
405
424
437
444
455
465
479
485
487
485
497
513
508
499
502
520
531
532
537
533
529
533
533
525
525
528
535
537
542
539
534
525
525
536
543
547
545
542
541
539
533
528
524
519
529
542
544
543
551
563
575
577
568
553
545
546
546
535
539
557
568
569
570
572
563
559
562
566
565
556
549
549
555
563
570
573
571
573
578
580
575
578
593
591
586
582
583
581
579
581
574
572
576
589
601
600
600
600
599
607
603
606
609
613
608
595
589
580
579
590
612
627
633
641
646
652
650
641
638
639
638
636
637
641
638
644
647
646
652
656
664
666
663
660
659
667
671
666
659
656
654
656
654
645
645
663
672
666
657
650
645
643
653
656
655
650
635
626
630
631
630
628
619
611
603
600
603
603
593
584
576
567
564
565
575
570
559
551
547
538
525
515
506
500
500
495
493
491
482
469
458
446
433
432
436
438
427
419
416
410
399
386
373
365
366
372
393
394
386
381
372
362
363
368
371
374
372
367
357
355
356
356
356
353
352
367
370
369
355
344
341
349
363
366
364
365
374
378
380
378
367
365
366
370
368
356
348
355
369
385
387
382
375
372
369
374
385
393
396
393
384
381
394
405
406
408
410
406
408
411
414
427
432
428
424
411
403
401
400
408
408
412
413
409
410
410
412
414
423
422
413
418
420
423
428
436
438
430
423
422
427
439
443
442
440
431
430
435
436
434
435
443
453
446
440
440
441
432
419
419
423
428
440
450
453
448
453
448
435
438
461
460
455
441
427
430
443
453
464
468
459
458
463
460
459
467
469
464
460
450
452
455
456
465
469
455
452
461
458
455
457
455
440
443
454
460
463
467
467
466
462
460
461
459
464
472
474
473
463
454
452
461
465
460
460
459
456
447
442
451
465
466
464
464
469
465
447
437
447
461
457
454
458
465
464
462
464
465
463
465
466
460
454
454
459
460
469
471
480
485
481
479
470
467
468
467
469
473
470
468
469
463
473
486
490
494
504
505
499
484
482
494
501
499
496
498
499
499
511
520
514
508
504
505
518
520
531
528
520
516
517
519
527
531
520
510
506
510
511
505
496
496
493
497
504
503
503
503
503
509
519
516
512
511
515
514
505
491
482
485
487
479
470
459
457
470
482
490
486
480
478
479
483
489
487
476
457
442
433
421
437
452
447
436
444
452
448
449
448
442
434
433
437
445
443
447
452
448
448
451
447
434
429
439
445
458
469
461
444
427
423
443
457
459
453
453
448
445
457
467
462
449
445
447
447
446
452
462
466
457
452
448
443
442
444
435
420
425
428
428
434
436
437
439
433
427
431
429
424
421
429
438
442
464
496
528
556
592
628
664
699
734
764
787
816
837
855
896
931
952
966
975
984
990
990
985
959
910
824
730
659
592
525
457
391
321
247
164
97
46
18
17
17
17
17
17
17
17
21
46
77
99
132
160
178
200
221
239
253
263
284
296
306
318
321
334
350
371
392
403
409
419
426
461
493
496
497
496
498
512
520
528
520
514
515
517
516
522
520
518
525
520
527
544
551
548
540
524
524
536
548
550
554
550
553
559
554
551
557
550
542
546
549
551
546
552
555
553
549
550
553
547
549
545
546
556
559
555
547
541
539
546
556
560
559
560
555
555
554
557
568
565
573
583
576
575
568
561
566
566
577
588
579
574
572
579
585
584
585
591
593
586
577
581
592
594
597
593
591
591
603
610
607
596
605
612
614
608
609
608
611
614
618
629
642
641
640
636
636
638
637
638
647
654
652
650
661
660
657
657
658
657
658
660
661
660
655
654
641
639
649
647
639
637
634
631
634
650
660
656
647
642
644
643
641
642
640
632
636
634
620
611
620
627
624
613
607
607
599
590
583
574
565
567
573
574
571
557
532
515
510
502
509
509
508
504
502
486
477
474
472
460
447
441
437
431
423
420
421
423
417
410
405
395
391
390
389
383
384
381
373
376
395
395
382
374
370
372
377
375
371
367
366
365
369
381
382
380
379
370
365
362
368
366
366
371
375
381
370
358
355
370
390
395
395
391
389
384
389
394
397
386
379
374
374
380
379
386
388
389
396
402
408
407
410
410
405
398
395
396
403
404
412
421
420
419
419
416
412
414
421
423
419
414
415
427
436
436
440
438
435
433
430
430
436
438
443
449
455
451
448
442
432
432
450
461
463
455
440
435
438
440
450
448
441
441
448
453
455
456
464
458
451
447
454
459
457
448
445
449
451
454
463
475
476
470
466
466
466
461
455
454
456
458
458
463
468
478
484
480
479
464
456
449
453
477
487
478
475
467
450
437
456
480
482
486
490
474
456
456
461
468
480
475
472
471
475
470
466
459
438
437
456
476
485
491
487
479
475
473
472
473
474
469
467
476
479
474
475
476
478
472
463
481
495
504
499
494
493
500
500
485
479
482
478
480
487
481
480
483
492
497
498
501
506
507
507
517
526
529
526
523
524
518
506
499
508
505
507
514
507
500
502
504
507
502
508
514
519
513
508
513
522
529
525
519
505
499
495
497
495
490
478
452
443
471
500
511
515
508
497
501
506
506
494
472
457
457
457
456
460
463
456
451
463
473
473
470
465
463
455
448
451
457
459
453
452
453
456
462
469
469
468
463
458
457
460
463
464
462
462
463
466
463
460
458
458
458
463
467
463
458
456
458
456
463
473
470
465
463
468
467
467
467
459
455
455
454
455
456
453
453
465
471
466
463
461
460
455
462
458
454
453
447
442
444
446
438
443
465
489
512
537
571
608
648
673
703
732
759
789
809
830
868
899
921
938
946
948
953
970
972
940
888
816
742
680
618
557
484
411
343
297
247
199
144
98
58
27
17
17
17
17
38
75
107
125
137
157
183
211
229
237
255
274
288
307
324
344
350
350
357
369
382
390
402
407
418
430
440
456
464
474
479
485
482
479
489
498
500
505
496
490
493
515
557
578
576
567
569
574
569
563
561
564
556
556
553
548
548
532
532
552
569
584
587
578
573
578
578
568
565
562
550
536
543
543
543
550
569
577
572
572
575
590
586
568
562
565
568
573
568
569
572
572
572
571
575
576
563
559
565
581
586
584
582
579
579
575
572
575
576
587
593
596
599
596
590
580
578
586
594
594
596
603
615
619
624
628
622
613
612
615
615
615
614
613
618
634
637
636
644
647
648
643
642
648
654
649
645
649
650
644
638
648
664
672
665
661
655
657
660
656
659
662
679
684
677
668
666
664
658
654
648
642
637
629
635
641
627
620
628
638
658
664
654
642
633
626
622
614
610
599
595
599
597
590
578
569
564
564
563
558
540
528
521
517
510
500
499
495
492
487
472
466
464
457
455
448
438
439
438
439
438
433
424
420
414
408
404
405
397
397
400
402
395
386
383
381
379
380
386
380
375
371
367
372
380
371
362
361
360
364
365
371
376
377
371
362
371
396
405
405
396
383
379
376
371
374
386
387
385
390
403
409
407
405
401
396
391
390
379
387
401
400
393
380
383
397
403
416
424
422
421
419
413
402
390
389
399
416
431
438
430
421
429
431
419
413
417
428
435
427
416
417
434
443
439
423
430
430
419
409
401
402
410
434
453
480
505
501
474
460
461
461
456
449
446
454
459
462
471
479
484
488
482
473
456
452
452
446
456
467
469
473
476
468
477
484
483
490
490
474
460
461
472
476
476
471
462
454
468
484
484
486
484
486
483
471
474
482
485
483
480
475
471
467
466
476
478
474
476
477
477
478
475
466
463
466
469
468
477
479
473
464
454
467
484
499
498
487
491
492
492
484
478
486
499
496
493
488
488
493
493
498
506
501
492
484
483
482
488
490
492
508
528
525
519
518
523
531
532
520
519
533
529
529
513
500
503
507
514
512
509
509
510
514
513
516
526
529
517
503
489
498
516
523
521
510
497
490
486
480
480
479
486
490
495
492
491
487
489
483
485
488
485
481
478
463
452
443
446
455
467
466
461
465
455
442
450
468
480
479
475
472
473
473
466
460
458
452
452
456
446
435
447
459
469
485
489
483
478
480
476
475
472
471
462
459
459
447
439
444
462
470
471
471
476
482
480
477
475
481
482
479
476
473
467
465
457
453
454
451
451
456
461
457
461
474
482
477
462
438
426
426
449
473
481
493
527
569
607
650
685
720
753
784
812
833
850
866
884
900
908
921
932
943
954
955
941
912
852
776
686
608
552
512
456
390
331
267
177
99
39
17
17
17
17
17
17
26
63
97
127
155
186
206
214
225
242
259
271
280
293
306
319
328
330
350
370
381
392
409
425
441
457
465
475
494
509
519
526
524
527
533
535
533
521
525
534
530
538
552
556
550
546
548
553
544
543
545
542
549
553
561
568
564
564
560
553
555
563
568
577
577
572
570
573
574
571
569
568
565
561
558
560
560
559
561
560
562
565
563
563
566
569
573
572
567
567
565
566
566
564
568
573
573
570
568
572
579
587
584
578
575
579
574
569
567
579
587
587
591
597
597
600
601
619
616
604
600
597
598
589
585
587
579
575
584
604
621
626
618
611
611
624
627
641
643
632
632
641
644
637
637
649
646
639
639
637
643
658
670
677
670
659
662
669
665
653
651
655
660
657
652
657
668
671
663
650
643
647
654
655
651
638
627
625
633
636
632
629
622
616
610
610
616
616
613
605
606
610
602
585
580
570
557
541
537
542
546
543
535
524
515
500
503
502
496
485
490
488
479
473
472
469
458
443
434
433
425
413
412
417
411
401
404
399
386
378
378
389
401
401
393
383
372
360
357
368
381
384
375
367
366
370
378
382
381
376
380
380
375
371
373
371
368
379
389
390
387
378
371
366
379
394
395
395
395
393
391
391
388
386
391
400
400
392
394
408
395
389
399
408
414
411
409
410
410
405
399
406
406
405
410
412
403
406
408
413
411
408
425
437
443
444
437
431
421
415
408
404
409
418
420
437
447
443
440
439
444
438
434
443
444
441
440
444
448
450
454
460
467
461
448
446
446
443
442
450
448
433
430
448
458
462
464
471
473
463
463
462
452
454
456
451
456
463
469
464
458
454
462
468
464
461
462
465
466
465
462
471
479
474
468
459
450
452
452
451
451
453
454
453
450
457
468
471
478
479
478
478
480
478
472
473
478
481
476
480
483
487
479
473
466
460
456
460
474
471
480
479
473
475
480
490
486
481
478
476
476
479
481
481
487
484
482
481
469
467
481
488
479
479
491
505
518
522
516
526
539
540
544
537
528
524
524
525
522
514
514
508
506
509
519
524
525
521
514
517
520
519
508
504
507
514
516
509
504
505
507
507
498
493
493
490
492
492
483
490
499
495
490
489
476
460
452
461
469
468
462
462
444
435
438
443
450
468
473
457
454
462
461
461
459
459
459
448
439
449
465
475
468
457
452
452
451
451
442
435
441
454
460
455
454
455
455
450
447
447
450
450
449
449
448
446
451
460
458
455
456
459
460
463
466
469
469
465
462
451
445
448
462
469
461
449
444
444
438
432
429
432
441
445
446
453
450
445
448
469
491
520
553
592
639
675
707
742
770
796
825
875
905
924
935
948
966
990
989
989
989
989
989
986
909
802
696
615
554
496
425
352
278
192
96
26
17
17
17
17
17
17
17
17
17
50
87
120
149
167
180
203
235
242
250
258
265
277
291
300
306
315
327
355
389
418
439
457
473
483
486
488
493
504
507
506
509
515
524
532
544
543
545
543
549
552
546
540
543
551
553
551
549
547
546
541
549
558
556
549
542
539
549
559
566
565
557
557
557
557
555
552
548
554
558
559
563
563
562
562
571
577
572
565
563
553
554
564
564
560
559
559
553
554
559
565
561
563
565
572
582
590
587
576
566
570
581
584
578
577
570
573
584
583
581
583
597
604
598
600
603
598
591
587
584
598
605
598
581
588
606
618
626
636
634
629
625
623
626
637
640
641
640
642
642
640
639
644
652
651
648
651
656
660
659
655
656
666
667
660
656
662
669
674
684
685
685
674
663
650
649
657
661
655
652
656
664
665
656
643
649
656
655
647
642
632
628
628
626
615
606
609
609
604
603
599
591
580
573
577
581
564
556
556
551
543
531
520
514
510
507
518
526
522
501
467
449
449
451
451
440
435
425
409
410
417
415
405
395
398
402
403
405
407
398
395
393
398
399
400
391
378
369
364
352
342
346
349
347
353
369
374
378
375
368
360
369
385
389
393
395
390
372
359
372
365
368
374
394
398
388
378
372
389
391
393
404
403
391
392
410
415
416
414
402
389
377
382
393
397
404
406
407
405
396
402
416
418
408
390
386
395
410
420
420
419
414
414
420
426
420
412
403
409
430
443
437
435
436
437
438
437
435
437
437
441
446
451
454
456
455
445
440
430
424
440
453
463
456
440
441
437
442
449
448
449
448
445
433
437
458
467
463
459
458
462
456
460
478
489
481
474
463
457
458
452
459
469
472
469
469
477
477
469
463
457
454
450
453
465
479
477
465
460
456
459
465
472
471
471
469
470
469
477
482
479
468
467
467
469
466
463
461
465
470
464
463
473
471
471
471
479
487
485
473
479
489
494
494
494
490
495
504
500
499
486
484
481
482
488
490
480
471
466
461
460
462
475
491
512
525
527
532
527
532
536
538
535
531
531
533
529
533
532
524
523
522
520
509
505
503
503
504
502
503
506
495
490
509
520
504
487
485
501
510
511
512
515
517
517
512
502
491
489
485
486
488
485
490
482
480
482
481
474
464
450
443
448
456
452
446
450
445
442
451
466
463
458
452
448
444
452
461
461
456
455
454
448
445
447
453
451
440
437
429
412
422
447
464
484
493
486
477
467
460
467
474
478
473
464
467
463
454
450
458
459
460
466
464
450
444
445
451
461
483
483
472
482
488
488
488
475
455
447
447
452
449
432
422
423
424
426
441
441
444
452
476
504
539
592
632
661
685
723
769
806
829
852
876
887
906
943
984
985
984
986
979
969
943
881
793
705
639
587
524
456
390
324
259
184
121
69
28
17
17
17
17
17
17
18
52
90
124
141
160
178
192
209
228
242
247
258
279
297
312
330
333
331
344
374
411
424
429
437
449
459
467
473
474
479
496
502
506
512
519
525
527
527
523
513
507
527
546
561
567
557
544
554
565
565
558
558
553
554
571
565
547
541
545
545
543
549
556
550
548
553
550
546
553
560
561
557
562
568
568
569
562
559
559
556
558
562
572
579
577
572
567
563
560
559
561
574
583
566
552
556
567
567
577
575
582
590
577
568
565
564
572
580
589
587
585
586
584
579
579
581
571
564
582
618
624
619
616
611
612
615
613
603
601
600
609
611
611
613
615
628
638
637
632
640
640
643
658
661
650
648
652
655
657
658
668
674
673
665
659
655
652
648
653
656
653
652
655
654
656
658
654
641
636
640
645
640
632
627
627
625
623
629
634
630
627
628
634
637
629
620
604
593
589
591
601
603
593
580
566
567
572
567
555
541
528
516
519
525
516
502
493
488
485
474
468
466
459
450
449
441
424
411
417
417
414
395
397
416
417
390
364
336
327
359
389
389
385
381
380
384
382
381
390
390
389
380
381
389
395
389
388
395
399
398
385
377
371
376
384
399
412
412
409
389
368
352
337
314
324
346
372
374
371
378
383
384
384
386
392
384
377
381
382
391
401
396
390
390
394
403
411
406
402
404
412
412
410
405
403
410
415
420
424
419
415
410
416
419
413
412
412
416
426
438
439
443
439
439
449
448
441
435
432
417
422
440
446
442
434
443
452
454
459
466
466
467
455
448
451
461
454
440
420
425
439
453
467
465
473
477
478
475
473
470
467
471
479
479
470
463
462
460
457
452
452
448
448
451
460
462
466
463
457
457
463
462
454
455
460
462
465
463
455
458
466
471
470
475
482
487
485
477
469
470
478
484
483
476
476
477
472
479
474
467
464
475
483
478
476
474
466
459
469
488
487
483
481
494
500
495
500
509
528
546
548
541
534
527
526
526
514
505
494
489
489
496
501
497
488
492
495
498
505
512
514
513
505
490
485
476
465
459
460
471
487
500
496
483
479
498
512
511
506
497
495
490
488
485
477
466
458
454
459
455
450
449
447
442
447
445
437
435
441
437
434
433
440
450
451
447
443
442
457
466
464
459
460
458
448
434
423
424
433
437
437
439
450
456
455
453
457
459
456
458
454
452
459
460
454
453
448
446
458
463
455
449
460
472
476
470
456
444
436
447
454
433
401
367
366
407
441
468
479
480
464
458
461
461
450
439
440
442
456
471
485
510
534
564
582
618
658
701
739
766
789
811
834
851
874
888
896
900
905
907
919
914
873
833
783
718
653
593
533
467
409
350
293
230
163
107
61
22
17
17
17
17
17
17
23
55
89
109
131
163
192
218
240
255
267
277
289
306
327
338
342
345
343
355
379
405
421
427
425
433
455
480
499
507
512
511
517
518
514
502
497
504
518
531
539
546
556
565
561
540
530
534
538
532
529
522
524
523
531
546
562
576
571
572
567
557
554
544
534
514
506
528
549
566
567
562
559
556
553
554
557
559
558
561
563
570
564
559
561
555
553
552
543
547
553
553
549
544
550
571
579
575
573
566
560
563
574
581
591
594
585
578
578
582
581
574
573
581
583
594
599
592
591
592
600
602
606
607
604
604
601
604
600
608
618
619
616
615
622
627
629
619
615
611
619
628
633
644
639
637
643
653
658
656
644
635
630
641
663
685
684
677
670
659
656
658
667
661
655
654
656
657
654
655
648
638
633
639
655
655
637
625
624
620
617
606
591
593
610
607
601
592
576
572
578
572
557
547
541
541
551
545
539
531
530
535
538
530
513
503
498
490
487
481
456
441
430
421
417
416
418
418
415
418
422
422
405
386
365
376
399
412
386
351
342
349
357
358
345
364
378
375
373
375
380
377
365
354
344
355
379
389
381
377
374
374
379
384
380
379
380
378
379
376
373
373
374
379
386
391
387
378
361
345
352
372
388
393
393
389
386
376
383
396
392
387
398
410
420
418
413
415
420
404
397
389
389
395
400
411
414
415
420
421
409
424
442
442
437
435
435
433
432
429
422
424
434
439
440
445
448
448
444
436
442
458
470
473
467
463
458
453
456
464
467
460
456
452
439
426
428
449
463
456
453
443
428
444
464
474
458
440
432
420
426
432
447
454
447
432
436
449
454
445
439
441
442
447
449
453
453
448
452
465
467
468
464
461
455
458
468
467
462
461
464
470
476
486
490
491
482
480
477
464
454
457
456
460
462
459
458
472
485
493
498
496
503
510
507
509
503
501
504
516
514
516
526
531
532
528
527
523
508
495
488
491
498
496
497
501
504
512
517
511
500
487
483
487
501
504
504
504
497
489
488
484
475
469
469
480
486
485
478
474
486
493
485
479
478
461
457
461
461
455
447
436
441
452
455
444
434
424
422
428
454
469
456
432
426
436
449
457
459
450
442
444
451
457
457
453
459
465
464
454
450
450
443
433
421
424
427
439
452
452
453
457
460
453
452
453
457
452
444
441
436
432
443
450
459
468
465
456
455
457
457
447
437
432
433
450
438
435
445
451
455
455
467
450
419
423
448
454
471
504
534
555
577
608
643
672
712
754
792
810
825
838
866
890
916
933
935
918
918
943
948
930
875
806
735
669
601
547
481
404
316
229
161
98
17
17
17
18
17
18
17
17
17
61
101
130
147
161
177
196
211
231
244
253
268
292
317
338
351
347
351
360
374
394
415
436
453
460
475
487
492
507
507
516
515
515
529
539
542
552
544
536
544
559
569
563
556
548
541
533
541
537
531
548
565
571
574
587
597
607
611
600
588
564
541
531
533
545
550
538
544
569
565
573
570
574
573
562
550
555
538
529
529
530
525
527
521
521
536
569
584
563
542
541
552
566
569
565
555
544
545
566
573
568
573
576
575
568
564
573
601
608
590
574
576
586
592
592
582
575
569
567
575
582
592
601
603
605
606
598
589
586
592
605
623
629
626
624
630
628
622
617
613
613
630
649
656
650
648
645
631
625
636
634
635
633
621
632
652
660
660
657
661
671
671
657
645
640
633
638
644
647
645
646
648
652
651
642
637
636
633
628
620
619
616
609
604
604
590
589
598
606
595
570
559
566
565
557
551
544
545
545
547
541
531
521
510
497
492
484
473
466
465
466
471
472
464
451
437
424
430
428
417
416
416
407
405
409
400
383
368
373
380
379
369
358
361
371
380
384
376
367
367
366
364
360
371
376
385
399
402
387
374
373
380
381
357
338
350
371
381
379
372
365
363
371
379
367
355
353
365
373
371
377
381
382
390
394
395
396
399
401
402
399
391
397
403
405
398
384
396
410
411
411
410
413
420
419
413
414
417
414
405
398
408
428
439
432
437
436
423
407
404
426
444
447
441
434
434
433
426
421
428
435
425
411
417
427
434
429
415
428
451
456
455
460
450
442
441
448
459
465
464
461
459
456
448
446
451
455
456
454
452
447
445
444
442
445
448
457
460
468
481
491
495
492
481
467
446
421
429
451
457
454
451
449
450
461
475
471
466
464
466
466
467
471
482
484
482
465
452
448
447
452
469
480
484
482
479
479
480
481
478
472
460
465
477
480
472
463
465
486
498
499
497
487
495
500
498
479
470
474
485
498
506
516
523
530
536
531
527
515
511
510
500
500
502
497
483
478
485
499
513
521
519
510
509
522
529
531
525
527
526
525
502
496
489
481
483
475
468
471
483
493
504
497
490
482
479
493
495
481
475
481
474
454
433
429
432
448
462
457
436
425
425
433
448
467
471
453
446
446
447
453
456
453
451
450
446
442
442
446
440
427
423
431
432
426
427
436
446
457
451
441
435
429
425
432
444
447
442
445
455
459
470
478
484
487
484
474
457
452
452
449
443
437
433
428
436
442
464
466
460
457
447
443
442
447
450
453
457
475
476
469
478
470
481
485
494
504
559
604
640
688
730
769
809
842
869
887
915
922
927
945
968
976
990
989
990
985
924
844
740
652
595
546
479
395
305
220
132
43
17
17
17
17
17
17
17
17
17
17
47
92
126
158
181
192
211
234
250
263
279
288
303
321
333
331
339
353
378
401
413
418
431
448
497
539
548
539
530
526
524
518
496
502
509
510
512
531
535
538
539
518
524
545
541
546
543
528
498
477
491
523
534
558
572
585
607
602
599
594
587
584
589
582
558
555
574
598
575
506
478
503
534
542
561
574
572
542
514
469
464
511
512
543
559
536
541
552
582
613
622
627
635
634
596
556
519
500
531
598
657
668
660
660
635
613
613
607
595
583
603
602
584
570
580
581
581
588
596
603
613
619
617
626
626
626
627
618
619
619
614
605
608
643
658
666
677
682
686
688
651
624
640
650
633
625
627
624
626
645
664
652
647
651
654
643
639
652
665
679
672
646
626
634
644
636
626
623
624
624
640
661
656
653
650
647
643
640
640
643
646
645
641
627
609
597
596
607
600
578
569
589
588
545
541
554
567
572
555
531
526
531
516
508
502
506
512
509
486
462
456
456
462
461
456
448
444
438
428
417
407
412
413
377
314
307
330
334
361
405
431
420
421
429
414
390
369
349
353
356
342
348
364
376
378
369
356
347
343
348
345
342
334
324
335
339
338
344
365
389
393
385
385
393
398
409
406
392
384
382
380
377
385
391
397
406
410
397
390
384
396
417
410
405
388
380
377
375
386
395
400
408
413
415
411
414
415
415
412
414
412
401
404
421
438
438
430
434
433
414
408
424
439
428
424
427
418
416
438
453
455
431
412
421
412
393
395
424
427
446
449
437
426
437
451
458
453
443
449
464
464
459
458
459
457
457
466
488
494
497
480
444
428
443
453
460
464
452
437
424
432
443
440
424
423
447
459
475
469
469
477
476
471
465
446
444
455
463
478
499
504
476
449
430
432
444
455
455
475
480
472
449
453
475
470
454
460
482
483
477
483
493
507
510
494
463
460
472
463
458
459
466
475
489
488
498
521
513
504
510
516
517
517
502
499
508
507
493
498
504
508
515
509
504
518
525
521
508
497
488
505
517
526
526
530
523
508
506
516
535
528
506
495
488
479
482
487
491
493
488
480
479
488
489
492
497
490
484
486
477
468
455
448
439
446
464
472
425
415
439
433
416
422
430
423
423
451
468
460
453
442
432
433
435
441
446
443
438
434
440
457
452
462
478
471
452
427
434
442
443
442
446
448
452
445
441
433
443
458
456
452
448
439
441
438
452
454
448
434
426
431
442
431
426
432
470
488
482
463
451
435
423
408
429
444
434
436
449
449
448
453
451
446
452
484
534
573
616
647
687
708
728
760
795
833
870
897
924
924
922
938
965
989
989
989
990
983
898
790
677
577
515
454
384
314
241
171
90
18
17
17
17
18
18
17
17
17
17
27
55
80
109
134
159
181
194
209
226
241
258
274
299
332
347
353
353
363
382
401
425
442
457
453
459
474
491
497
500
512
530
538
538
534
534
545
552
545
534
550
559
565
569
565
546
545
559
568
563
552
533
527
526
546
564
576
578
583
583
580
577
564
550
540
549
573
581
584
580
571
564
565
567
557
543
541
564
583
585
585
606
595
577
576
572
589
588
585
577
566
552
564
572
569
571
575
572
571
572
582
583
580
584
582
577
574
584
591
586
583
594
600
594
587
582
592
608
619
618
608
599
600
614
622
619
613
615
623
618
620
627
634
634
638
642
644
640
639
636
636
640
644
644
638
645
656
660
650
652
656
663
671
661
646
641
646
655
667
672
663
651
639
636
668
688
698
681
660
653
650
652
658
656
645
628
640
640
631
630
627
625
623
620
627
636
629
623
614
601
601
599
587
564
546
523
527
540
543
545
544
537
528
520
519
517
513
524
521
504
502
496
465
432
412
415
419
434
437
440
432
426
411
404
400
394
386
387
390
388
393
382
370
367
377
383
377
368
367
365
370
373
383
382
376
357
359
363
359
355
367
371
376
372
370
368
369
370
365
359
349
359
374
378
381
391
393
380
373
387
395
390
384
380
382
401
435
452
437
413
400
391
382
373
374
375
378
398
412
392
385
392
409
419
423
420
422
420
411
409
401
412
420
424
445
445
434
419
424
440
445
445
438
425
427
434
436
438
431
433
433
452
449
429
420
432
451
459
458
453
451
446
431
414
422
432
438
444
460
462
459
463
460
454
455
456
451
458
460
454
445
444
454
453
441
444
450
459
467
464
464
471
469
459
451
457
460
461
454
460
473
486
472
469
471
461
448
444
449
453
456
463
467
472
471
478
473
473
472
466
461
467
471
477
486
499
490
480
493
486
469
465
472
477
470
455
450
460
466
480
501
514
517
506
502
513
513
507
521
530
530
526
533
533
522
498
495
494
488
494
535
540
529
516
500
507
509
502
501
505
506
504
506
500
488
480
476
484
488
490
491
492
492
491
485
484
475
475
480
488
494
493
473
456
452
441
442
446
431
424
418
415
426
436
443
448
453
447
432
429
435
438
428
422
436
447
427
419
423
435
444
448
460
465
451
442
436
435
441
442
448
446
450
458
460
454
453
454
460
463
462
457
442
432
432
426
428
455
457
448
452
456
446
434
436
451
455
452
455
452
447
448
448
445
437
421
420
408
427
433
442
454
459
448
436
433
431
443
470
500
538
570
604
630
654
686
727
759
789
820
839
865
879
886
892
899
926
960
958
938
907
855
789
704
630
580
517
458
389
313
251
185
120
61
17
17
17
17
17
17
17
17
17
35
66
94
110
138
166
194
209
235
252
251
249
260
284
307
316
334
349
360
373
383
392
408
433
461
479
491
490
487
494
496
497
493
510
525
520
528
530
529
526
532
544
543
528
524
539
542
538
540
545
546
547
540
530
522
524
534
544
538
522
525
542
542
532
527
538
560
566
553
542
539
569
580
572
565
557
547
546
557
558
553
549
558
569
556
547
551
556
569
576
574
567
555
555
553
551
558
565
560
554
561
563
555
551
569
581
581
576
573
565
561
566
569
576
581
576
573
570
566
559
584
598
602
606
611
620
624
619
618
610
604
604
605
606
606
604
605
604
609
618
624
620
623
628
636
634
626
626
633
640
654
656
649
641
636
632
626
620
611
618
630
624
623
620
628
635
630
626
623
620
619
626
636
632
636
636
623
613
612
605
608
602
598
596
590
585
567
557
555
563
569
562
550
540
533
532
531
518
512
506
490
485
503
501
481
471
465
457
458
460
454
447
442
434
415
389
376
385
411
422
406
389
382
379
373
376
381
389
393
385
365
358
352
347
333
326
330
340
354
361
355
357
358
347
342
343
353
352
352
353
341
342
342
352
351
348
350
347
348
346
354
361
364
367
363
364
361
364
374
379
371
358
353
361
370
371
366
359
358
359
366
373
382
392
396
389
380
387
395
384
383
392
369
369
366
362
393
401
392
398
402
399
397
397
397
401
404
408
406
405
407
410
419
415
406
411
410
407
403
391
374
389
419
435
444
437
430
427
432
433
435
432
430
430
426
421
415
419
419
414
408
430
444
449
443
435
430
433
438
434
428
420
420
432
438
421
409
418
439
442
438
438
429
420
423
433
442
457
456
447
435
431
436
437
439
442
437
439
443
448
462
472
474
469
457
449
453
448
444
445
451
457
466
468
468
476
476
482
485
490
490
480
491
500
504
491
487
496
495
500
496
480
472
474
472
458
447
447
458
442
445
458
465
476
491
497
488
475
460
453
453
449
448
454
453
454
460
454
447
453
459
455
455
452
447
438
427
429
428
426
434
431
412
399
390
396
409
425
426
422
419
413
407
403
398
395
390
394
411
420
416
415
419
420
422
421
415
418
423
428
431
437
426
418
422
421
421
422
423
427
425
416
416
420
421
418
420
424
421
417
418
429
433
429
431
423
416
418
414
404
408
411
420
408
398
401
430
423
422
433
432
431
423
421
431
444
443
436
430
426
420
420
432
461
485
515
551
578
593
638
693
733
755
768
786
803
818
822
837
858
862
865
869
853
811
751
698
638
582
535
473
400
340
290
243
164
85
24
17
17
17
17
17
17
17
17
17
17
40
78
109
128
155
180
198
207
225
242
259
270
284
309
328
338
346
354
365
378
386
404
422
442
467
480
484
488
504
497
505
511
514
508
515
523
531
536
531
522
527
540
549
550
547
533
532
529
513
496
487
511
552
564
557
556
547
531
528
540
547
535
540
542
530
536
553
559
555
551
536
530
526
535
547
550
550
555
557
548
555
562
553
551
564
567
578
580
571
571
558
554
551
550
554
548
546
545
537
548
574
583
582
574
568
565
566
571
584
590
581
565
561
568
568
566
563
569
584
591
598
603
596
600
604
605
597
598
606
611
616
610
600
595
605
610
607
607
613
624
630
627
643
646
637
631
626
630
642
644
644
639
639
635
632
643
648
637
631
638
640
627
622
608
605
617
629
631
628
622
626
618
621
633
629
628
636
638
632
616
604
592
591
585
581
601
606
598
577
574
562
545
536
540
551
538
526
519
512
505
497
488
484
482
475
461
446
455
456
453
451
439
428
412
417
422
417
405
402
405
403
394
386
379
378
381
367
354
355
365
373
371
362
349
345
344
351
357
356
356
360
359
357
358
353
358
365
370
364
351
338
344
361
367
366
371
380
378
370
362
357
363
375
377
371
366
353
349
376
384
386
393
394
402
400
390
395
399
400
407
408
403
400
393
394
400
399
401
398
398
410
415
418
413
401
396
408
412
402
397
406
417
426
437
444
437
428
425
427
429
433
431
431
432
430
435
434
434
433
423
427
435
436
432
433
441
451
454
444
446
445
446
445
440
438
439
445
443
447
452
449
453
458
449
445
450
447
433
439
452
458
466
466
455
449
456
459
452
452
458
452
441
439
458
478
479
472
468
468
471
476
478
477
481
482
484
483
474
468
455
461
472
483
488
479
462
463
473
475
477
479
478
477
473
473
484
490
504
510
515
532
526
506
508
514
512
505
511
523
529
514
508
510
511
508
501
497
497
503
506
518
523
511
503
501
506
505
493
488
486
495
499
495
482
465
460
457
462
468
486
506
508
515
511
491
483
486
477
469
463
461
474
463
451
454
452
455
454
449
451
457
455
448
448
445
452
461
461
460
459
448
441
445
451
454
461
454
449
457
471
469
458
436
428
433
443
453
456
457
457
453
450
467
473
466
463
465
468
461
451
454
453
460
466
459
453
455
462
462
460
450
441
446
453
454
464
470
469
467
454
443
436
445
457
481
491
487
470
461
462
456
460
490
516
541
572
606
638
669
699
731
775
805
831
852
869
885
899
910
925
941
949
960
960
950
898
812
727
667
603
548
484
407
331
260
192
127
54
17
17
17
17
17
17
17
17
23
55
82
108
147
179
201
216
229
244
268
279
286
308
330
336
353
371
389
404
417
423
439
463
482
492
490
485
501
515
534
548
545
547
552
569
574
572
567
563
563
569
568
563
561
560
569
572
571
565
565
565
568
565
569
567
556
550
549
563
578
579
578
571
562
559
573
584
588
587
589
589
597
590
582
573
564
564
573
582
591
594
589
588
586
580
579
595
595
590
589
585
583
589
583
581
581
599
612
608
595
596
597
597
598
600
591
586
591
588
596
601
596
596
601
609
613
619
620
617
613
614
623
624
623
627
638
644
640
638
642
646
647
644
654
661
660
655
652
653
647
648
644
641
642
646
652
649
663
670
677
687
688
680
675
681
687
691
689
681
676
669
661
660
666
671
670
671
668
658
661
663
658
650
659
668
661
661
649
640
636
630
629
631
634
638
625
616
595
587
598
609
609
608
602
593
580
565
544
545
548
548
545
539
539
523
509
503
498
494
492
489
491
490
486
477
467
450
439
435
425
403
411
427
426
420
412
405
409
405
400
391
388
393
399
396
389
402
411
400
401
406
398
396
393
386
390
394
398
397
387
387
391
390
384
381
380
379
372
385
394
399
407
406
394
385
383
399
411
426
430
425
420
418
415
417
414
415
413
419
418
414
415
414
417
421
430
447
446
439
434
423
421
432
434
427
433
439
443
446
457
456
444
441
453
457
449
443
441
441
446
454
459
465
462
451
440
446
454
471
472
460
455
458
466
472
471
465
461
464
463
456
451
450
454
464
479
478
468
462
452
455
477
485
478
465
456
464
469
478
486
480
467
466
470
483
489
486
484
478
483
489
497
496
486
481
476
471
474
481
489
495
485
481
474
477
484
482
482
483
481
478
483
482
477
478
476
481
488
488
481
478
478
478
486
498
500
495
493
492
487
490
493
495
497
490
495
498
501
507
511
509
495
489
504
515
503
490
485
484
484
486
490
497
504
511
519
527
536
537
531
529
528
536
538
533
532
528
529
554
558
557
549
542
537
534
530
529
520
517
519
519
528
537
539
552
558
546
543
534
524
520
518
505
513
519
523
515
505
504
511
509
501
505
500
493
492
494
486
484
469
456
451
451
457
470
485
477
462
468
472
475
474
477
479
480
479
468
459
456
452
447
467
478
482
482
479
470
463
468
475
484
477
464
456
463
468
465
464
461
459
460
468
469
460
464
467
470
474
478
480
475
468
468
463
463
469
474
481
475
468
470
476
477
476
465
455
459
464
464
469
475
475
469
455
452
456
448
446
452
471
490
509
535
553
580
622
662
698
739
774
801
833
864
891
924
944
958
971
981
990
990
989
990
989
967
896
800
705
625
568
497
415
347
279
201
111
33
17
17
17
17
17
17
17
17
33
75
110
134
160
175
183
200
226
256
279
288
295
305
310
315
328
344
366
402
423
434
451
468
485
496
497
492
490
510
529
532
529
530
536
540
546
548
548
551
552
554
557
554
556
558
569
586
586
585
590
587
583
576
568
560
566
571
569
576
559
559
570
579
580
577
578
583
587
601
609
590
582
576
569
572
576
581
584
585
590
588
583
583
586
584
576
585
584
580
576
578
577
584
591
590
589
590
587
586
586
603
615
612
608
609
600
588
589
604
618
616
614
617
614
607
597
594
601
616
638
643
630
635
637
631
631
635
631
637
636
635
638
639
643
648
647
645
641
640
645
649
659
667
668
669
666
670
673
666
664
669
675
674
669
662
672
677
683
687
679
677
681
673
658
657
657
658
657
660
662
653
656
662
651
655
658
654
641
649
654
650
657
655
647
641
641
633
615
597
594
612
610
599
581
578
583
579
577
573
562
551
543
539
530
514
501
505
501
497
491
484
484
477
461
451
443
437
434
432
436
439
443
436
426
420
410
405
395
400
404
401
397
394
388
381
381
370
372
381
394
396
388
371
373
386
393
389
374
374
390
399
398
392
376
371
366
363
363
375
392
408
412
400
385
383
400
414
423
417
404
409
409
402
396
415
421
419
415
408
413
413
415
423
424
420
419
418
420
421
419
423
425
426
427
429
433
436
437
436
434
435
435
440
442
438
433
435
447
446
441
443
448
454
454
449
448
443
442
454
459
455
457
453
451
448
440
436
436
448
464
482
483
485
475
470
472
469
465
472
482
471
465
465
467
478
471
443
434
444
466
483
497
493
478
468
469
475
475
473
470
470
466
459
472
475
477
476
471
470
468
467
471
472
468
467
474
483
477
480
474
462
455
459
467
481
480
476
477
494
500
498
491
477
467
468
483
479
469
470
469
471
479
483
483
479
479
489
491
482
475
473
476
485
487
480
465
459
472
477
480
493
496
492
490
484
493
496
487
487
490
490
493
499
501
503
502
496
497
495
495
494
492
489
473
480
496
519
517
507
503
503
516
538
544
546
532
516
518
529
552
559
552
559
554
536
529
529
521
520
521
520
522
526
526
516
517
524
520
518
527
540
538
536
529
520
516
514
509
506
501
500
509
516
509
506
497
494
493
488
485
494
490
473
461
459
461
454
448
441
438
437
451
464
470
467
463
459
458
452
459
457
450
457
458
459
468
469
464
454
465
469
465
467
469
463
459
459
460
461
460
459
456
460
454
454
452
459
461
466
467
462
472
478
469
460
456
451
445
450
468
481
482
471
458
451
446
449
463
477
480
471
468
459
459
455
451
447
448
450
447
446
448
449
452
469
493
521
561
593
630
667
696
716
760
805
835
863
887
912
930
942
951
952
968
983
986
973
959
911
842
749
665
591
530
464
394
322
246
162
103
55
22
17
17
17
17
17
17
17
39
73
88
107
143
183
193
216
269
283
296
306
308
309
316
320
329
343
354
383
413
428
440
451
456
469
483
481
477
485
491
503
515
526
540
546
547
545
532
533
545
555
561
569
561
562
570
578
572
566
565
562
560
555
559
557
545
547
559
564
565
561
565
575
579
567
556
556
549
551
558
556
570
579
573
557
545
550
563
579
591
592
593
595
585
571
564
562
566
579
583
583
580
573
568
578
582
593
591
582
574
567
569
563
566
586
598
595
593
602
596
589
591
598
597
593
607
620
618
614
613
618
617
616
631
637
626
616
615
617
616
613
613
609
609
615
619
631
640
637
644
652
661
671
668
657
655
662
660
661
664
668
672
668
660
658
660
660
663
654
651
658
657
657
654
646
635
644
660
659
656
651
638
626
632
639
637
636
635
644
638
640
640
634
624
616
617
623
614
597
580
578
584
595
585
566
543
523
521
533
545
559
558
538
534
532
530
526
519
497
481
