506
504
505
509
511
506
510
511
517
523
530
530
530
532
533
533
532
530
529
527
524
520
519
519
520
520
523
523
529
533
537
536
538
534
536
536
534
533
531
528
525
522
522
522
520
521
522
524
529
533
535
536
538
538
538
539
536
535
534
530
526
523
522
522
523
523
524
527
531
536
538
539
539
538
539
541
537
537
533
532
527
523
521
522
523
524
526
529
532
537
537
537
538
539
537
540
536
537
534
532
527
525
522
522
523
524
524
527
531
535
537
538
539
538
540
539
538
539
536
532
526
524
525
525
526
525
528
529
532
535
539
540
540
541
541
539
539
539
535
532
528
525
525
526
525
523
527
528
533
534
537
539
540
540
542
539
539
537
536
530
526
526
523
524
522
524
527
529
532
536
539
539
538
540
541
540
539
539
536
531
528
525
526
527
526
528
530
534
536
538
542
545
544
544
545
544
543
541
537
532
528
527
527
528
525
526
531
534
538
537
541
542
542
540
540
541
539
536
533
528
525
525
524
524
523
525
528
528
531
534
538
540
540
539
539
539
539
537
532
528
528
526
524
525
523
525
527
530
530
535
539
541
543
542
541
543
543
541
538
536
532
533
532
533
531
533
536
537
540
543
549
549
552
551
552
552
552
549
545
542
539
537
538
537
538
540
542
541
543
547
552
554
555
552
556
552
551
547
544
540
536
535
535
535
537
538
540
540
544
548
549
550
552
550
553
553
551
547
543
541
537
535
533
533
532
534
536
537
540
544
546
548
547
548
549
548
544
540
537
532
531
530
528
530
530
532
533
533
536
539
542
543
543
545
546
543
540
539
535
530
526
527
527
528
529
530
528
530
533
536
540
540
539
539
541
539
534
533
530
527
524
523
522
524
524
523
523
525
528
530
534
534
534
534
536
535
531
529
525
523
520
517
517
518
517
518
516
518
521
523
528
528
528
526
526
523
519
516
512
507
503
498
498
497
495
490
488
489
491
494
495
494
495
496
495
495
491
489
486
485
482
480
483
484
484
485
485
491
493
497
501
504
508
511
511
509
510
510
510
510
506
506
508
512
512
513
516
521
525
529
531
534
538
539
539
538
537
535
532
532
528
527
531
533
529
529
531
534
539
545
548
549
552
550
552
550
547
543
542
539
534
534
533
536
532
530
528
532
535
536
539
543
542
542
538
537
537
534
532
528
524
524
523
523
519
522
524
525
528
531
536
538
540
540
539
539
543
539
536
534
530
532
533
535
531
533
534
536
540
542
548
549
551
548
549
546
546
542
540
536
536
534
534
533
529
531
533
534
537
540
545
547
546
543
545
544
543
540
539
534
533
534
532
530
529
528
529
532
535
537
541
543
544
541
542
541
539
538
535
531
527
528
527
526
523
524
524
527
530
533
538
539
538
535
537
537
536
533
531
529
527
527
525
524
521
523
523
527
527
534
536
538
537
535
536
535
534
533
529
529
527
526
523
524
522
523
525
528
531
536
539
538
536
535
538
536
536
535
533
531
529
528
525
526
524
525
528
528
531
535
539
539
539
540
542
539
539
537
533
531
526
526
523
523
521
525
524
528
536
537
539
537
535
533
534
529
528
524
521
517
512
512
511
511
507
512
513
517
524
530
533
532
531
528
529
525
524
523
522
519
514
510
511
513
511
515
518
523
530
537
538
535
536
534
535
532
530
528
523
519
516
516
516
520
517
520
522
527
532
539
539
538
536
533
533
530
524
521
518
513
508
509
512
513
512
516
518
525
532
537
537
537
537
535
538
535
533
530
527
523
519
518
523
526
525
527
527
533
541
543
543
542
540
536
537
534
532
527
521
517
514
512
515
517
513
517
520
527
532
536
538
535
535
535
538
536
535
531
525
521
519
519
521
524
524
527
531
536
540
546
547
546
544
542
546
538
536
532
527
521
520
520
520
521
519
523
527
531
535
540
541
537
535
534
536
529
530
525
523
516
514
514
516
516
517
520
525
529
535
539
540
540
539
537
539
535
534
530
525
522
520
520
523
524
524
526
530
533
538
543
542
543
541
537
541
539
534
529
523
519
515
517
520
521
518
522
526
530
533
537
538
538
536
533
534
531
530
524
519
515
514
516
518
520
519
524
525
531
537
541
543
542
539
540
542
537
534
529
526
521
521
521
521
524
522
527
528
533
538
543
543
544
541
538
540
537
534
529
524
521
517
517
519
521
523
526
528
530
536
541
542
542
541
539
541
537
533
529
523
520
520
521
521
523
523
528
529
533
538
543
543
545
541
539
542
538
535
530
526
523
522
521
522
522
522
527
527
533
538
544
544
545
541
538
540
537
534
530
526
523
521
519
521
522
524
527
529
532
538
543
543
542
541
542
542
536
532
528
526
520
519
521
521
522
522
525
528
532
538
543
542
542
538
538
539
535
531
528
524
519
518
517
519
523
521
525
526
531
538
543
543
541
541
542
541
537
535
530
525
522
520
520
523
522
520
526
527
533
539
544
544
543
542
542
540
537
534
528
525
522
520
521
522
522
521
524
525
529
536
542
542
539
541
540
539
536
533
529
526
522
522
519
523
521
522
525
528
533
537
542
544
542
541
542
542
537
534
529
525
524
522
522
525
524
524
526
531
535
541
546
544
545
544
544
543
541
537
531
529
526
524
522
525
525
524
527
528
535
540
546
544
545
544
544
542
538
536
530
526
521
520
523
524
525
525
527
529
533
540
545
543
546
543
544
543
537
535
531
527
520
519
521
523
522
525
527
530
535
540
543
543
543
543
544
542
538
536
532
529
524
523
521
523
522
527
532
540
556
572
586
596
610
26
26
26
26
26
26
26
26
26
26
26
26
23
987
969
969
969
970
970
970
969
970
974
976
975
975
987
991
797
711
673
650
642
638
636
635
635
635
630
627
622
619
615
612
605
602
597
592
591
587
587
582
581
584
585
587
590
593
590
585
581
579
576
572
566
560
554
547
547
544
546
544
541
543
545
548
551
552
547
543
535
536
531
525
519
512
508
505
501
501
501
501
504
506
511
518
523
529
525
525
521
522
520
517
512
508
503
500
502
501
503
502
504
507
511
515
522
525
526
526
522
524
522
520
514
510
506
501
501
501
505
505
507
508
510
519
523
528
524
526
521
524
521
517
517
511
507
503
503
503
506
504
506
509
512
518
522
527
524
524
522
526
524
519
517
511
508
503
504
503
505
504
504
509
511
516
524
530
529
529
525
526
525
519
518
514
511
506
505
505
506
504
506
509
515
521
527
531
529
528
527
529
526
524
519
516
515
510
507
505
511
511
513
516
519
524
531
536
533
532
532
533
532
530
527
522
517
512
511
512
514
513
515
518
522
529
534
536
535
537
533
534
533
529
525
521
516
514
511
512
517
513
519
521
523
530
533
538
536
537
534
536
534
531
528
524
522
517
517
517
519
516
519
522
526
532
538
539
538
538
536
539
537
534
529
525
521
517
518
516
519
515
518
523
527
532
537
540
539
538
535
539
536
534
529
527
522
518
519
520
520
518
519
522
527
534
539
541
540
540
538
542
537
534
529
524
521
517
517
518
519
517
521
524
527
536
537
541
540
539
537
540
537
533
529
524
520
518
516
516
519
518
522
524
530
534
537
541
540
539
537
540
536
534
530
526
522
518
518
520
522
519
523
526
530
535
539
542
542
543
539
540
537
534
530
526
522
519
519
520
521
519
523
525
529
536
540
543
541
540
536
540
537
534
529
523
520
518
517
518
522
518
523
526
530
534
539
542
541
541
537
541
538
535
531
526
522
519
518
517
520
518
522
525
530
536
539
542
542
542
538
540
537
536
532
526
522
519
519
520
521
519
524
525
530
535
541
543
541
542
539
540
538
536
531
526
522
520
520
519
522
519
523
525
530
532
537
543
541
542
538
541
537
535
531
525
522
518
518
519
520
520
525
525
527
535
540
542
541
542
540
543
540
537
532
527
520
519
520
518
520
520
525
527
532
537
543
546
545
542
538
540
537
533
529
525
519
517
518
519
522
520
523
524
530
536
540
543
543
541
538
540
537
535
529
526
522
519
521
520
523
519
524
526
530
536
542
544
543
541
538
544
539
536
531
527
524
521
521
520
525
521
524
524
529
536
543
544
542
541
539
544
537
534
532
525
521
518
518
521
523
521
524
524
529
536
542
545
540
541
539
541
536
535
531
527
524
522
522
520
523
521
525
527
531
537
540
543
542
543
541
542
535
534
530
527
525
518
518
521
522
520
524
527
530
536
540
544
543
542
540
540
537
533
530
524
521
519
518
519
522
520
523
524
530
536
541
543
541
540
538
541
536
533
529
525
522
519
518
519
521
518
523
527
529
537
543
544
543
542
539
539
535
535
530
525
521
519
519
519
520
520
524
525
529
536
540
543
542
540
539
541
538
535
528
525
522
518
518
520
524
521
524
527
532
537
542
544
545
543
540
541
536
534
530
525
520
518
519
521
522
520
525
525
529
535
539
542
544
543
541
542
538
536
530
526
520
520
518
521
521
520
522
525
531
536
541
544
543
542
539
541
537
534
530
527
523
521
520
520
520
520
524
526
530
537
541
544
542
540
539
542
538
535
531
525
521
520
521
521
522
521
526
528
533
539
543
541
542
542
539
540
535
532
529
524
521
518
518
519
520
521
524
525
530
536
543
544
544
543
539
538
535
533
530
525
522
520
519
519
519
521
523
525
533
538
542
543
543
540
539
539
537
535
530
527
524
519
519
520
521
519
524
527
532
539
543
543
543
542
540
539
535
534
529
525
520
520
521
519
519
521
523
524
530
535
542
543
543
540
540
539
536
534
530
527
520
519
519
520
522
522
524
527
531
538
544
545
543
541
541
542
539
533
531
527
521
518
518
521
523
522
525
528
534
538
543
542
541
539
540
541
538
533
527
524
520
517
518
520
520
522
527
527
533
539
544
544
542
540
539
540
536
533
531
526
522
520
518
520
521
523
525
526
534
537
543
544
542
540
539
539
536
533
527
526
519
518
518
521
521
523
524
526
532
536
543
543
542
540
540
541
537
531
529
525
522
520
519
521
522
522
527
528
534
537
542
541
543
541
542
541
536
533
529
524
520
518
520
522
521
521
524
528
534
538
545
544
544
541
542
542
538
534
531
527
519
519
519
521
521
523
525
527
533
538
542
542
543
541
541
540
537
535
530
527
521
520
518
521
521
521
522
529
534
539
544
544
541
543
542
540
536
532
530
525
519
519
519
522
523
524
528
529
537
542
543
543
543
540
539
538
536
532
529
525
521
519
519
521
520
523
526
529
533
536
540
541
540
539
539
539
537
534
531
525
523
520
519
520
520
521
526
529
536
539
542
543
544
541
541
542
539
533
527
525
522
519
518
521
522
523
526
529
535
539
542
544
545
542
541
539
536
533
527
524
520
521
520
523
521
522
525
530
534
539
543
545
545
541
542
538
537
533
529
523
518
518
518
523
520
522
525
528
534
540
542
542
542
539
540
539
537
533
530
525
520
518
518
521
520
521
526
527
534
538
542
539
544
542
543
540
536
534
529
524
520
519
519
522
522
523
526
529
534
538
542
541
541
538
540
538
537
534
527
525
521
519
519
523
1459
466
470
466
454
442
436
441
464
465
460
6
449
455
457
457
456
453
452
452
450
447
446
453
459
460
459
466
470
466
454
442
436
441
464
465
460
458
9
455
457
457
456
453
452
452
450
447
446
453
459
460
459
466
470
466
454
442
436
441
464
465
460
458
454
457
463
466
461
451
458
458
462
470
468
462
458
460
462
464
464
460
462
472
480
480
472
470
464
458
452
455
454
457
457
457
450
454
453
462
470
470
463
460
459
454
452
454
457
452
458
470
473
473
467
465
464
464
468
474
474
464
456
456
459
455
454
461
464
468
468
462
464
467
476
482
494
495
495
489
488
484
477
480
481
487
492
491
489
482
470
471
472
466
472
480
483
489
493
500
505
510
515
517
525
531
531
529
526
521
515
509
505
505
504
506
513
522
524
520
523
527
525
520
515
517
518
509
500
497
491
491
502
505
503
500
504
508
509
503
498
489
492
498
495
489
491
484
474
462
451
449
450
450
452
453
450
453
454
448
440
447
454
456
459
463
460
445
433
434
440
451
456
457
452
452
450
447
445
441
438
445
453
462
460
453
457
466
469
467
454
452
462
465
466
462
450
444
441
445
451
449
448
447
447
450
453
455
460
458
456
457
460
466
466
459
452
453
452
450
455
453
447
448
446
450
443
438
432
435
444
478
518
552
584
627
662
695
731
765
803
836
859
867
898
934
959
976
983
989
989
989
989
990
971
903
804
704
626
571
507
432
362
290
209
132
68
19
17
17
17
17
17
17
17
17
35
72
104
133
156
167
177
201
218
234
253
269
273
278
294
312
325
337
349
367
389
407
416
429
447
473
490
492
481
478
483
493
501
508
518
528
542
545
544
544
542
536
535
536
536
539
544
548
551
546
543
534
532
533
532
538
540
544
551
555
560
563
558
551
550
549
551
552
551
555
557
554
546
548
556
567
572
570
562
556
555
548
554
556
557
556
561
562
561
560
557
549
553
571
583
595
596
588
578
575
567
562
560
558
560
564
569
575
582
581
571
564
573
586
591
592
591
597
602
604
605
606
607
609
608
604
615
626
627
621
616
613
613
614
618
616
611
618
632
643
648
641
646
648
648
649
649
643
641
643
649
656
666
668
663
659
658
660
654
652
649
649
650
648
649
645
639
639
646
657
655
654
649
650
646
642
639
640
641
633
623
619
623
634
626
622
613
607
598
596
599
593
581
568
555
551
557
562
561
557
548
539
531
528
522
509
506
503
501
497
488
479
473
468
466
461
454
446
435
426
423
418
418
415
412
407
404
402
405
407
407
396
389
386
378
375
379
387
376
366
359
353
358
369
376
375
375
378
383
380
368
367
369
369
370
371
367
366
370
374
374
378
386
390
389
388
388
389
393
396
393
390
385
381
382
383
386
394
393
391
390
390
395
396
399
406
408
402
394
395
399
398
400
405
413
412
413
424
423
424
427
432
432
426
418
416
415
418
426
433
438
433
427
429
434
429
426
425
422
428
431
439
444
442
443
449
449
452
458
453
444
446
449
449
449
454
457
457
452
437
438
447
446
441
443
448
451
448
448
461
465
462
459
464
463
462
457
455
448
448
448
457
460
462
462
459
456
463
470
465
464
466
462
460
458
453
458
467
466
466
462
455
459
463
464
472
474
475
474
468
453
446
455
449
443
453
462
467
473
483
484
472
462
453
456
456
450
451
457
457
452
449
452
454
448
441
451
455
458
458
459
467
471
477
483
482
475
473
486
494
498
497
490
484
482
478
478
480
478
472
472
476
482
492
494
489
482
484
488
484
479
479
492
502
512
518
522
526
527
522
520
518
521
521
518
514
509
501
493
492
498
507
512
511
505
505
504
500
502
505
504
503
506
509
510
501
496
493
492
493
490
487
489
493
493
498
506
503
492
485
475
466
460
458
456
443
449
454
456
459
454
448
443
441
440
440
438
440
446
449
450
461
470
471
464
449
440
443
451
458
452
448
448
454
460
462
456
451
448
453
460
456
448
448
444
442
444
449
447
444
445
448
450
446
445
448
450
455
452
449
447
448
450
462
467
466
462
460
456
456
450
445
442
439
432
424
424
430
431
431
435
438
435
441
464
497
526
560
591
619
651
680
705
731
757
788
820
850
874
884
895
917
930
941
950
950
933
906
854
783
707
637
572
505
437
375
310
238
163
95
35
17
17
17
17
17
17
17
17
17
26
56
89
115
145
177
194
212
227
236
247
261
277
291
307
327
342
359
373
382
394
411
424
435
457
472
478
486
494
498
505
518
523
523
530
540
554
551
547
547
544
546
553
552
555
557
553
558
554
556
557
554
553
554
552
551
560
568
570
562
551
547
552
559
565
569
565
558
553
552
550
551
552
553
562
567
567
565
566
567
573
578
572
569
568
569
572
573
576
581
576
568
570
573
574
569
568
575
581
579
573
575
584
586
585
588
592
592
587
586
586
588
591
591
595
601
602
601
605
605
608
612
624
626
622
615
601
598
606
612
614
612
615
628
630
625
627
636
645
645
642
648
649
648
644
641
647
655
650
646
643
644
646
652
659
656
654
660
670
674
674
674
671
663
657
648
647
652
650
647
642
642
649
652
647
640
638
639
629
625
626
623
619
620
619
622
628
628
616
601
592
587
576
563
561
563
560
555
551
548
542
534
525
522
520
520
501
491
484
483
481
474
469
460
456
452
443
435
427
426
421
413
403
398
393
389
384
384
384
380
374
376
381
388
387
378
376
375
369
367
363
367
366
364
361
361
366
371
374
374
369
374
384
382
373
370
369
370
376
380
377
376
383
388
399
400
385
373
367
364
366
375
385
390
390
385
384
384
386
394
401
404
402
402
405
407
401
402
401
399
402
409
413
408
407
416
416
411
407
410
420
429
426
421
415
414
412
417
422
422
425
424
423
425
427
433
439
441
444
445
443
442
440
438
435
431
429
432
440
455
457
448
444
442
439
440
444
444
444
457
467
467
461
446
438
439
442
444
447
448
442
440
443
449
462
466
462
459
457
453
456
461
464
468
464
458
459
460
458
455
456
457
460
460
459
461
466
467
466
465
465
464
460
455
446
448
456
462
467
466
468
469
465
463
461
458
459
459
459
461
460
461
465
466
462
453
450
454
458
456
449
445
451
459
467
471
475
476
474
470
467
465
461
460
458
466
473
474
476
471
467
466
465
464
466
466
468
474
477
476
477
474
478
477
481
481
480
484
490
490
486
483
475
471
465
465
474
485
494
496
494
499
511
527
532
530
539
542
543
534
525
514
510
506
507
507
499
494
495
493
498
503
501
500
504
504
509
513
513
505
501
502
503
504
503
505
498
492
494
498
501
499
499
500
507
502
490
482
471
460
449
444
445
448
451
448
443
447
450
450
447
446
450
454
452
452
462
469
466
459
453
455
457
455
458
458
465
458
448
439
435
438
440
442
450
453
455
454
452
458
462
454
448
446
449
462
467
460
452
451
451
447
445
448
452
453
457
462
468
465
457
449
448
447
450
451
448
453
454
447
438
439
450
455
451
445
437
433
437
445
455
484
511
538
568
602
640
669
697
726
769
799
833
862
880
896
910
920
942
973
990
990
990
990
987
940
862
771
689
620
560
493
414
329
251
170
76
17
17
17
17
17
17
17
17
17
20
43
74
107
136
153
164
185
206
221
234
248
259
280
298
312
326
341
355
368
382
393
413
432
456
466
468
474
486
496
504
503
508
511
508
508
512
518
530
540
544
544
550
551
549
543
542
541
548
556
558
558
555
555
553
547
545
545
553
556
554
552
553
553
552
552
549
543
545
552
552
552
550
542
538
544
557
561
567
572
578
571
557
552
550
550
551
560
574
572
575
573
569
563
564
564
562
567
566
568
570
568
575
578
577
579
580
583
583
587
585
581
578
578
582
586
591
592
591
592
594
592
593
596
602
608
606
609
603
594
593
600
603
613
635
636
629
627
633
636
636
638
632
627
628
633
641
645
657
660
654
649
644
644
644
650
652
652
653
651
651
651
654
655
655
649
648
642
641
639
637
634
641
642
638
633
632
637
638
634
629
627
630
628
625
620
615
610
606
602
603
596
593
590
592
586
574
563
556
550
545
534
525
513
505
506
506
503
501
505
496
490
479
473
463
453
452
451
446
436
434
426
423
424
425
425
420
420
420
402
382
380
378
379
383
382
379
382
380
381
380
374
370
369
366
367
367
369
371
377
377
377
379
378
377
375
371
369
370
381
387
387
377
359
353
363
382
395
400
393
390
396
402
406
406
402
397
398
396
393
387
388
388
392
393
395
404
410
412
417
414
413
414
413
416
416
410
405
402
401
404
406
414
420
423
424
432
434
434
439
442
440
439
438
438
428
419
420
425
432
439
438
433
438
445
443
441
438
440
447
447
442
445
446
445
444
448
449
445
449
456
465
465
459
451
448
451
455
458
454
449
452
453
451
448
451
457
461
463
467
463
459
459
457
459
461
461
458
459
461
458
459
458
461
466
472
470
470
468
463
472
479
475
468
460
455
454
456
455
453
453
453
458
463
468
468
468
471
466
459
458
461
470
471
463
459
461
468
474
481
482
481
480
478
469
470
476
476
477
476
479
481
481
481
480
483
483
482
476
475
475
477
476
476
477
474
471
472
485
495
506
510
511
521
528
532
530
528
524
513
508
509
503
493
487
489
496
505
511
517
517
518
522
526
521
514
508
505
506
507
502
494
492
493
500
509
511
506
498
494
496
495
500
504
504
500
483
478
476
474
474
470
457
448
447
447
445
442
444
444
447
446
448
451
450
449
452
456
454
449
449
450
446
443
442
448
454
457
455
449
443
446
443
453
461
453
449
456
457
451
445
447
446
448
447
447
444
440
438
440
448
455
452
445
446
457
459
457
461
465
471
476
475
469
466
465
462
459
456
452
451
446
449
447
452
453
446
438
434
441
447
459
478
502
535
570
603
638
669
698
731
772
812
841
868
892
917
929
941
967
985
985
990
990
990
974
925
846
742
650
579
523
456
379
299
221
156
80
17
17
17
17
17
17
17
17
17
17
44
74
103
132
145
157
179
206
224
241
258
275
296
313
320
327
341
363
383
399
413
427
442
457
465
473
484
495
499
507
515
520
526
524
523
528
532
532
532
538
548
550
550
550
553
548
546
543
543
548
554
558
555
548
545
548
550
548
555
558
559
561
559
559
559
565
568
565
567
564
559
554
556
564
561
560
555
550
553
560
561
559
554
556
565
569
569
572
570
569
564
565
572
576
569
562
557
560
566
566
569
573
580
587
585
585
588
589
589
589
596
594
601
604
593
586
585
586
589
596
604
607
607
608
609
610
617
622
623
630
636
638
632
622
617
620
621
618
623
632
637
639
638
641
644
644
650
656
659
663
665
661
651
649
644
650
663
665
662
663
663
658
657
656
655
658
651
657
657
657
654
650
641
638
643
645
639
633
628
621
614
616
622
628
634
629
618
608
599
593
592
591
589
587
577
566
553
544
539
533
535
543
538
534
523
510
502
499
495
482
473
462
453
447
439
432
425
429
436
437
437
435
421
402
397
396
393
391
391
390
392
398
399
398
391
383
379
372
368
373
380
382
379
371
364
363
366
368
372
373
369
376
380
386
389
387
378
373
374
373
369
365
368
370
387
395
397
404
414
413
402
396
394
398
395
387
385
395
400
401
396
391
391
386
388
396
398
407
414
416
407
391
386
390
400
408
416
420
420
425
428
425
422
418
418
420
422
423
426
429
427
428
428
435
437
438
441
444
439
438
436
436
440
444
445
445
443
437
436
440
441
445
451
454
453
450
450
454
451
448
446
443
447
446
447
452
461
471
474
470
462
456
455
462
471
467
460
458
459
457
464
468
469
465
468
465
459
454
456
456
452
448
451
455
446
441
449
461
461
462
463
461
462
462
459
457
464
472
478
477
476
477
474
470
461
460
464
460
460
463
470
472
471
469
468
466
463
462
466
474
472
468
471
474
473
468
467
466
466
464
462
460
458
458
461
461
462
471
471
467
469
480
481
474
469
470
475
477
479
480
471
470
468
465
460
462
471
481
490
493
492
489
488
488
494
493
479
471
471
478
487
488
494
501
500
500
509
511
515
517
523
529
531
529
522
516
516
522
524
522
519
518
520
516
513
516
517
518
523
522
521
524
525
525
515
507
503
507
507
505
501
494
488
489
494
499
505
509
506
503
500
499
498
498
488
473
459
449
447
447
444
435
439
444
453
453
451
446
449
445
443
445
445
453
459
459
455
449
444
443
446
447
450
448
451
464
471
471
472
469
466
464
461
456
455
451
456
463
463
461
460
462
465
462
460
463
457
453
450
449
448
452
465
475
475
466
455
455
455
455
455
451
444
441
443
448
447
445
451
459
463
456
453
460
463
471
493
525
552
577
610
646
681
719
758
795
825
849
861
885
909
922
938
965
982
989
990
989
990
967
899
800
702
623
560
498
426
356
287
210
122
43
17
17
17
17
17
17
17
17
17
20
46
75
116
137
146
158
176
196
222
240
259
279
300
317
332
349
353
355
373
395
417
434
443
459
475
486
495
496
497
501
506
514
520
524
528
535
533
528
540
553
560
559
556
550
547
545
553
559
558
554
548
548
554
561
562
559
553
553
553
553
549
546
550
559
560
560
557
553
549
547
549
549
552
558
566
570
575
577
574
570
570
569
575
577
580
582
575
571
582
589
587
589
585
576
568
568
576
579
577
578
573
571
569
569
571
577
583
588
593
591
585
587
591
593
588
589
601
614
622
622
615
608
605
605
609
613
615
618
622
628
633
633
638
637
632
630
631
635
636
637
639
636
637
645
652
653
652
649
643
637
641
653
664
674
676
670
670
672
675
678
669
661
659
654
648
650
653
648
650
654
659
661
655
644
634
630
627
631
636
637
635
634
633
631
629
626
621
621
618
609
602
601
595
588
584
581
578
573
563
559
550
535
525
520
521
520
520
512
507
498
481
473
475
473
457
447
439
437
439
431
427
423
417
410
405
404
400
387
377
378
382
388
387
380
376
374
372
374
376
378
380
377
375
381
386
386
382
377
378
382
375
372
374
375
378
372
373
376
375
370
368
374
381
382
378
375
377
381
382
383
390
394
387
377
376
381
384
388
394
393
394
396
395
396
399
399
402
407
407
409
409
412
411
410
413
422
429
422
420
416
414
421
424
423
420
418
421
420
428
443
446
437
430
430
432
440
443
437
424
417
418
425
434
439
437
431
426
425
427
431
442
453
462
466
468
468
471
471
461
452
442
444
454
457
449
443
439
444
453
450
445
452
464
471
460
460
464
460
458
453
447
448
456
460
465
466
457
452
460
468
476
480
479
470
467
463
470
482
474
461
451
443
443
447
453
465
470
475
484
489
484
485
486
479
462
451
446
448
455
464
472
476
478
474
462
455
456
453
451
452
460
467
472
472
471
469
460
456
462
471
469
454
444
443
444
448
457
467
476
475
474
475
477
475
472
467
458
452
454
454
462
468
475
476
473
469
467
466
467
470
473
474
480
486
489
473
461
456
447
451
463
480
485
483
483
485
491
497
494
491
488
494
489
486
490
488
485
479
474
473
474
478
481
479
480
482
490
502
503
504
514
523
531
532
524
524
527
526
524
528
530
529
529
527
515
522
534
537
531
524
517
521
527
530
526
525
527
518
504
501
504
507
510
514
515
517
519
521
522
515
511
518
515
512
503
492
485
479
479
475
467
466
463
454
449
446
447
453
457
461
462
459
457
459
463
469
473
469
464
459
456
459
464
462
459
463
462
463
462
461
463
456
448
446
445
452
453
454
457
457
462
469
464
456
455
454
451
451
451
453
459
467
467
463
463
464
464
464
467
475
480
480
479
474
464
456
450
454
456
453
436
432
420
421
430
433
442
447
448
454
466
478
498
525
562
605
646
679
710
748
784
816
843
868
889
910
931
946
967
990
990
990
989
989
989
957
878
776
690
617
544
465
390
318
250
173
91
29
17
17
17
17
17
17
17
17
17
43
81
104
133
157
173
198
219
233
246
250
261
275
291
301
315
331
354
378
395
409
424
436
453
469
471
479
491
503
514
519
519
521
520
519
522
527
536
547
549
549
555
559
559
555
556
558
554
553
557
558
559
557
558
558
556
551
549
554
562
567
568
574
574
573
567
561
556
557
560
558
558
564
569
570
570
564
563
565
567
568
564
555
552
554
560
564
569
571
575
578
578
574
573
577
576
573
569
565
571
578
591
599
598
598
595
588
581
579
583
591
591
589
588
589
589
589
594
606
614
612
607
602
599
608
617
618
620
623
626
630
634
634
635
637
636
640
640
641
649
652
651
642
639
643
651
652
646
645
648
655
657
661
666
668
674
672
663
660
661
665
665
670
675
678
671
661
662
664
663
647
636
636
643
647
658
661
652
638
626
613
618
628
629
627
622
621
618
610
601
600
598
593
594
592
584
571
561
558
555
559
553
538
529
528
527
524
516
515
506
496
491
488
486
471
454
449
444
439
435
433
427
420
418
419
414
403
400
398
394
392
397
400
400
391
379
379
380
373
364
363
367
379
384
386
379
374
372
379
388
386
383
389
390
382
382
380
375
373
375
372
374
377
382
387
389
389
391
389
389
390
390
389
390
385
380
373
375
387
396
403
408
410
409
411
414
410
406
404
408
412
416
415
419
423
415
406
403
408
417
426
435
436
431
433
433
438
437
435
436
436
431
424
421
420
422
423
427
434
440
440
435
441
438
440
441
449
452
453
451
446
435
427
422
435
445
446
454
463
471
473
469
466
469
472
471
468
460
455
455
456
456
456
460
456
449
451
454
454
458
455
450
450
454
455
455
458
462
468
475
474
474
470
464
467
460
450
452
460
463
474
485
487
487
497
498
480
461
457
459
455
450
452
455
458
463
466
467
472
477
472
463
456
450
447
445
443
447
454
464
466
467
465
467
473
480
476
479
479
476
475
481
482
475
467
466
461
453
457
464
470
472
476
480
482
481
469
457
455
455
457
462
469
475
480
479
473
470
467
467
467
468
472
477
476
474
475
467
460
463
464
461
457
458
465
474
477
479
479
479
480
484
483
483
484
484
487
490
491
489
490
499
496
484
487
494
493
489
491
491
488
488
494
500
505
510
512
515
524
524
527
536
540
538
530
523
521
522
520
519
521
525
520
519
519
520
518
514
512
514
515
519
525
527
512
500
509
521
531
534
527
516
512
505
497
491
493
500
498
499
498
500
501
496
488
484
483
476
467
460
452
445
449
458
456
453
449
449
446
446
451
460
466
475
473
464
450
443
441
446
442
443
458
469
467
458
450
454
466
475
470
461
444
444
450
456
460
462
461
462
463
470
472
476
472
464
459
456
447
444
443
442
450
457
463
466
465
460
460
461
455
444
439
440
438
442
444
445
450
457
457
451
448
443
446
443
435
445
470
503
536
575
611
643
669
693
723
765
806
836
862
890
914
929
943
953
965
979
987
990
977
938
887
801
709
634
564
495
441
379
312
242
161
96
42
17
17
17
17
17
17
17
17
20
49
84
115
143
177
198
213
236
255
265
260
258
270
310
343
351
345
342
350
376
400
415
431
445
458
467
475
482
486
490
498
506
505
515
528
542
547
546
545
541
540
541
547
551
554
549
543
543
550
560
567
568
568
569
568
564
563
560
553
553
553
546
554
560
561
558
558
568
571
563
556
563
569
567
567
565
562
564
571
574
569
560
554
555
557
560
563
566
568
571
576
577
572
569
573
578
579
580
585
584
575
570
570
575
574
574
583
590
592
591
598
599
595
599
602
594
587
587
587
594
600
600
601
606
617
618
610
603
611
619
620
619
623
624
624
621
622
633
640
644
647
645
645
647
643
646
650
659
661
659
659
660
664
665
664
675
676
678
674
661
650
643
647
657
670
672
667
660
657
655
653
649
646
639
636
636
635
639
644
647
645
638
631
628
634
636
631
623
617
605
590
578
562
556
562
567
567
557
545
534
527
520
519
521
525
521
517
512
507
503
497
475
457
449
446
440
437
432
432
428
418
409
403
404
398
390
383
380
379
383
390
392
392
388
389
390
390
390
392
382
376
365
355
353
361
379
386
387
378
375
372
379
381
368
361
371
385
391
397
394
390
388
386
388
388
391
384
374
366
361
362
368
377
383
386
392
395
393
394
398
394
390
393
397
412
418
417
422
417
410
405
397
386
380
379
388
399
412
414
414
414
414
410
408
412
416
416
426
433
436
438
433
422
425
430
429
422
420
428
441
444
441
432
426
423
426
430
429
430
437
441
449
454
460
457
460
466
472
469
462
448
449
443
438
440
451
458
451
443
445
449
455
460
460
459
457
457
461
468
466
464
460
459
459
462
460
459
466
477
480
482
473
470
468
458
453
452
443
446
455
456
455
456
458
458
454
455
458
465
470
477
479
475
470
464
461
460
457
454
456
460
456
456
462
462
461
465
462
459
457
463
468
464
461
463
470
470
469
465
460
464
464
460
457
456
458
461
470
475
475
467
454
453
461
473
478
477
473
471
468
469
469
465
468
465
461
457
454
456
461
465
467
470
463
460
476
486
487
489
487
476
468
465
468
477
482
484
487
487
482
485
490
483
476
473
472
467
465
469
474
474
476
479
493
503
502
503
509
520
532
533
530
518
510
510
515
513
508
504
507
514
515
512
509
516
520
517
518
516
522
530
526
525
518
507
505
509
507
501
504
506
510
511
505
503
505
504
503
503
494
490
493
496
494
486
471
462
457
452
452
450
443
440
440
444
446
453
452
446
447
451
455
456
451
445
445
444
444
444
447
452
456
454
452
457
458
456
452
450
451
449
453
456
457
447
446
455
461
463
458
456
463
468
470
464
455
458
448
434
430
437
441
449
458
466
465
459
456
463
463
450
448
452
448
440
438
440
445
451
456
463
458
455
454
446
437
450
471
502
524
538
572
625
670
699
733
773
810
839
868
888
911
937
950
960
976
990
989
989
989
989
975
902
799
701
622
563
492
413
335
263
192
108
29
17
17
17
17
18
17
17
17
17
31
67
101
129
152
173
192
208
214
223
236
253
271
289
305
314
325
349
371
387
401
417
435
455
470
477
489
502
500
490
483
488
504
510
520
528
536
537
534
529
527
527
527
528
528
532
533
534
535
540
539
540
551
556
560
561
556
553
550
548
553
559
563
559
553
557
557
554
552
548
546
550
557
556
557
559
560
559
555
552
554
556
554
554
556
556
555
558
564
572
572
576
579
575
576
578
576
566
555
546
551
564
573
577
580
583
588
589
584
587
590
596
597
593
580
579
579
580
583
583
579
573
580
593
605
611
606
602
599
606
610
621
638
645
646
648
647
642
641
635
632
631
634
636
632
629
633
642
651
655
658
669
673
672
669
659
656
660
661
662
664
658
648
649
654
655
652
650
643
639
634
633
641
650
652
647
642
635
630
630
633
639
636
624
616
617
619
617
616
610
605
602
590
582
582
574
564
557
549
537
524
527
527
525
522
515
506
502
492
473
468
471
465
463
456
451
447
436
430
424
422
418
415
413
417
415
406
407
400
393
392
388
382
376
374
370
361
361
361
369
373
372
371
368
375
378
371
371
373
377
374
368
364
373
380
382
384
387
387
384
379
378
379
376
373
377
382
377
370
375
388
384
374
371
375
378
383
394
401
402
392
386
381
378
385
394
399
400
402
402
397
398
403
405
405
412
411
406
409
406
410
411
413
421
426
424
420
415
416
417
417
422
426
428
436
439
438
436
438
441
442
439
440
433
424
427
434
438
440
443
438
445
450
450
447
446
446
449
454
446
442
441
442
443
443
443
446
451
455
460
461
463
462
453
442
448
460
462
459
457
462
470
475
467
458
447
444
450
454
456
452
444
448
456
462
462
464
467
470
471
469
460
456
454
460
470
471
467
468
466
462
463
465
467
467
469
467
463
458
459
456
458
458
462
456
453
455
461
462
468
477
482
485
480
468
463
449
444
453
456
456
458
462
463
461
457
460
469
471
473
470
465
465
468
470
468
465
460
467
470
475
478
477
478
480
464
458
466
472
478
477
484
486
479
475
475
474
469
470
475
480
477
477
477
479
478
485
493
497
484
486
496
500
500
508
517
520
523
523
518
515
527
531
519
512
513
515
513
505
498
494
504
519
524
518
511
512
516
520
527
528
520
516
511
511
511
508
506
506
508
512
512
506
497
499
503
504
499
488
483
489
497
498
491
484
482
479
469
456
443
436
441
450
458
461
456
450
446
433
425
428
434
440
447
446
450
450
450
454
463
462
452
450
456
461
464
462
453
448
450
461
458
448
453
460
459
452
442
441
442
446
446
444
447
458
460
458
451
444
446
447
446
450
451
451
451
451
459
460
463
462
461
459
458
451
437
442
448
447
444
439
446
456
451
445
447
452
473
501
531
557
577
614
652
699
740
770
803
830
856
883
909
931
953
976
990
989
989
989
989
989
990
938
831
708
613
551
490
418
348
279
207
123
50
17
17
17
17
17
18
18
17
17
17
41
71
105
130
147
169
188
200
209
226
240
259
278
293
310
326
347
361
373
388
415
436
453
462
465
472
485
490
488
491
499
508
520
533
534
531
530
530
534
541
537
538
545
552
554
548
551
556
555
554
551
547
544
542
540
539
536
540
540
539
535
537
546
554
555
557
557
556
561
563
560
554
557
563
563
560
567
575
575
569
563
551
555
555
562
565
559
561
565
567
573
571
556
548
552
564
562
564
568
568
571
577
590
589
584
576
575
585
584
584
586
585
584
585
587
586
585
582
577
581
588
599
605
606
611
618
617
616
620
624
629
625
622
627
626
624
629
638
649
651
646
641
645
638
638
643
650
658
659
656
650
651
658
664
661
656
660
671
672
668
660
651
653
656
656
660
659
658
658
658
656
656
653
649
641
639
639
637
641
634
631
630
630
633
634
627
614
604
599
597
593
594
586
575
573
573
567
561
556
552
545
530
514
500
492
481
480
479
478
475
478
477
474
466
465
462
451
439
432
428
422
415
409
402
393
384
379
380
385
386
385
383
383
378
372
371
371
370
371
373
370
366
366
359
350
347
344
341
336
344
359
368
368
376
382
381
383
382
384
382
376
381
379
376
378
385
390
388
379
379
383
386
389
383
377
380
384
390
394
396
398
396
389
386
384
382
384
390
393
402
407
409
407
411
416
417
411
401
398
404
407
409
412
412
414
414
415
417
423
426
424
422
423
425
432
434
428
426
424
425
428
435
445
450
449
444
444
449
444
436
440
445
442
438
434
433
428
431
437
439
442
451
449
441
438
448
455
456
456
456
460
464
469
468
459
453
450
449
458
459
446
436
441
451
458
463
467
468
462
454
449
442
449
455
462
470
475
475
475
467
461
459
461
467
472
478
475
468
461
464
465
463
457
457
460
452
446
444
452
461
468
474
472
466
464
469
473
473
472
471
462
461
468
476
483
488
485
479
467
466
475
475
472
464
460
467
479
488
483
480
475
458
435
438
440
446
456
466
478
483
483
478
472
465
450
435
438
443
456
471
474
473
475
473
470
469
467
467
472
479
468
461
465
474
484
483
478
485
496
499
497
487
479
472
468
470
475
479
482
480
473
465
463
466
470
471
471
478
483
481
481
479
474
469
473
473
484
494
501
507
508
509
511
499
491
493
504
513
516
515
507
497
490
480
486
497
505
506
506
506
514
522
521
521
523
531
542
547
552
555
550
547
546
543
542
542
542
541
538
541
541
543
547
547
543
532
519
521
525
529
525
521
517
511
513
512
506
498
495
496
497
495
494
503
507
503
497
492
488
487
489
484
474
474
468
463
461
463
462
458
456
452
450
452
452
453
454
454
457
463
465
466
465
468
466
461
459
453
446
444
446
447
446
452
461
469
471
469
464
455
453
453
459
465
467
468
471
465
464
456
456
468
469
462
459
452
453
455
467
474
461
455
454
456
465
470
473
468
455
443
438
439
446
448
441
437
436
440
450
461
465
466
484
517
545
572
600
638
677
717
758
799
830
845
877
906
941
969
986
990
989
989
990
989
989
989
984
905
807
715
637
572
489
400
326
263
193
116
40
17
17
17
17
17
17
17
17
17
19
50
85
124
143
162
184
200
218
224
227
245
275
302
311
323
334
351
374
396
412
427
440
450
462
476
493
496
492
496
498
502
506
517
522
525
531
539
539
537
541
551
553
553
555
554
552
556
564
568
562
555
553
550
556
558
556
554
551
549
553
562
568
572
568
562
561
565
565
569
574
574
569
563
563
563
565
563
558
559
562
561
562
574
590
587
580
576
572
575
583
577
566
566
569
571
571
566
572
581
593
602
600
588
583
585
594
599
595
589
586
591
598
600
603
608
600
593
593
595
593
602
611
615
617
621
624
624
618
611
612
619
626
628
629
631
634
639
639
640
645
653
654
654
655
657
667
670
671
668
665
663
665
672
675
676
680
681
677
684
681
674
670
667
664
655
653
661
670
670
668
670
668
659
656
656
659
661
659
665
659
648
646
644
643
637
624
615
611
607
612
616
619
610
597
590
586
576
579
571
561
558
556
549
540
530
523
520
515
511
507
494
496
496
496
488
474
459
446
436
426
419
422
428
426
418
407
397
395
387
386
393
401
400
398
393
391
389
384
381
381
386
390
392
389
387
392
402
401
391
380
372
364
361
361
373
384
387
386
389
386
388
390
394
394
393
389
385
381
381
383
388
391
391
397
404
401
398
393
384
382
377
372
374
385
399
406
402
401
402
404
411
420
427
426
423
424
429
430
430
424
422
415
417
420
420
423
424
428
430
434
433
429
432
434
440
443
446
442
439
441
439
441
433
427
431
434
433
437
444
455
457
456
462
464
451
451
451
456
461
466
474
475
479
474
457
444
444
459
479
483
470
463
458
453
459
455
457
459
463
460
456
458
455
455
456
458
461
469
472
473
474
474
475
475
481
479
482
483
482
480
481
483
477
476
482
486
481
475
470
464
464
471
478
480
483
479
474
472
466
465
466
466
468
472
480
488
488
485
482
478
481
485
477
467
459
452
456
451
454
467
473
481
481
476
472
471
472
476
482
484
488
489
488
483
477
474
470
473
476
471
467
467
468
474
480
488
491
483
475
467
464
473
476
476
478
482
485
486
475
468
467
468
471
474
469
474
484
482
476
477
481
481
478
484
485
485
488
501
501
491
492
506
503
490
492
493
498
505
503
498
499
504
505
494
484
479
485
492
510
529
539
539
532
531
541
544
538
542
542
534
522
518
525
532
533
535
529
522
513
518
527
538
543
540
536
535
522
510
509
514
522
524
524
521
526
523
509
517
520
523
534
530
527
527
521
513
505
505
495
485
479
472
463
459
457
452
453
456
456
450
445
444
448
457
458
453
453
464
468
461
462
468
463
460
458
455
453
456
458
462
461
464
459
455
457
459
455
446
446
454
460
460
463
464
464
465
470
476
479
478
473
471
470
468
464
446
435
441
455
465
470
477
484
488
484
471
462
457
452
450
451
452
451
449
443
444
449
452
446
444
449
457
468
480
491
516
547
586
626
658
687
720
760
800
836
866
892
914
931
949
968
985
990
989
989
989
990
964
897
801
713
640
581
518
463
396
325
245
159
95
49
18
17
17
17
17
17
17
17
39
72
105
130
152
176
199
214
225
233
244
258
273
292
302
311
322
338
360
384
395
397
400
423
445
461
475
478
481
487
494
504
511
517
519
523
528
539
547
555
564
566
561
558
556
544
541
548
550
550
547
545
549
557
562
560
557
548
550
556
559
563
558
552
550
547
552
556
556
548
555
560
558
557
557
560
570
577
575
571
565
562
559
561
563
567
567
569
571
574
573
572
572
579
582
583
585
592
593
589
578
569
565
561
561
563
563
569
576
584
585
580
576
576
583
592
599
599
595
598
614
624
617
615
616
612
610
612
616
618
616
617
619
620
624
630
636
637
640
643
651
656
660
658
661
670
676
673
668
663
663
668
667
667
664
664
666
664
664
666
663
657
661
671
674
672
665
660
665
671
672
672
663
658
654
645
640
644
640
631
631
634
637
642
645
639
631
625
625
617
607
594
583
571
565
560
557
554
554
551
547
541
532
527
522
515
509
495
485
481
476
475
477
473
468
469
466
453
441
433
426
423
422
422
413
402
395
394
393
391
391
387
387
387
385
378
377
379
376
374
372
372
363
356
363
368
363
362
372
384
381
384
388
387
376
370
371
368
370
367
362
363
366
372
375
371
367
366
371
381
385
389
399
406
402
388
370
375
384
389
390
391
391
393
391
393
395
398
399
398
397
398
401
409
414
406
402
409
412
412
415
411
413
421
420
416
412
407
412
426
436
438
434
430
424
424
431
429
428
431
427
424
427
435
438
440
441
438
442
451
455
459
454
449
447
450
461
457
456
450
438
426
426
435
445
449
450
450
455
460
461
456
455
455
457
459
452
449
442
437
444
455
458
461
463
463
458
458
456
460
462
463
469
471
469
470
472
475
469
467
470
475
478
473
465
467
474
480
474
466
461
459
455
458
462
462
465
465
467
475
475
476
472
464
457
464
472
473
472
473
473
470
467
469
471
476
470
461
458
461
466
469
467
467
463
457
456
463
472
477
479
481
478
476
472
466
465
470
471
463
461
457
458
464
466
461
451
452
461
470
470
469
472
477
477
478
480
484
485
484
482
484
483
480
478
470
475
486
491
481
478
481
490
495
489
481
481
481
477
474
475
478
479
474
480
482
481
479
483
494
507
513
514
515
519
517
514
514
520
525
529
531
528
519
515
509
508
513
518
520
522
522
524
523
521
517
515
514
515
517
523
521
512
510
504
500
500
504
509
505
499
492
499
508
512
502
493
488
482
480
469
462
452
441
436
435
438
447
459
467
463
453
446
450
454
460
461
460
455
450
449
453
455
456
458
457
455
462
463
458
459
454
456
454
458
460
458
453
449
451
454
458
456
453
452
455
457
456
459
460
466
467
462
464
464
461
460
461
464
464
464
463
456
452
453
451
455
449
450
450
455
462
459
456
459
467
469
462
454
448
448
455
461
476
502
534
571
613
651
686
720
755
788
819
836
854
881
909
927
945
958
973
990
990
990
990
963
907
818
725
646
580
516
445
381
313
244
161
82
23
17
17
17
17
17
17
17
17
33
66
101
133
162
184
197
204
209
215
227
245
270
293
309
329
342
352
360
379
396
409
418
433
449
463
478
485
485
484
493
506
512
519
525
525
524
524
523
524
524
528
535
538
541
546
546
550
562
563
555
548
549
548
547
548
552
551
547
541
540
547
549
543
540
551
555
553
558
559
554
549
550
552
554
560
562
563
555
552
559
561
564
561
557
548
551
556
561
561
563
566
565
566
564
564
568
570
570
568
569
570
573
575
579
579
582
579
584
590
593
592
589
583
576
573
572
578
585
585
590
594
596
602
606
608
611
612
607
607
614
620
611
607
614
624
629
632
636
640
647
647
641
640
639
643
644
644
643
641
646
655
660
663
665
662
655
650
655
659
659
655
653
652
652
653
653
652
653
656
659
657
651
650
649
645
645
646
648
647
642
637
630
621
612
605
604
605
610
613
609
598
592
592
585
575
570
568
556
546
547
551
550
539
528
519
511
500
493
489
488
483
471
461
449
446
442
436
433
431
436
437
420
408
402
405
405
407
398
391
391
392
387
378
370
367
361
361
364
368
372
374
377
376
374
370
369
368
366
364
367
367
370
377
378
371
368
366
368
367
365
367
374
383
384
376
380
384
381
382
382
387
390
388
390
395
397
395
389
389
391
390
392
396
401
406
408
408
408
408
407
398
392
394
400
408
405
400
402
404
403
404
408
414
416
415
417
416
415
415
419
417
418
424
429
436
435
434
432
434
431
426
425
431
432
433
427
428
422
422
432
434
435
447
454
451
445
443
446
445
450
458
458
452
446
444
450
451
447
443
442
452
461
457
456
453
448
446
450
456
460
463
465
460
454
452
449
444
443
440
443
454
461
460
462
466
470
471
470
466
458
461
466
470
473
476
474
468
467
469
467
458
459
464
462
465
461
455
454
454
454
463
469
470
472
474
473
469
468
471
466
464
463
464
467
469
466
464
468
468
466
462
462
462
455
458
462
465
468
470
464
461
461
464
469
469
466
467
465
460
458
462
465
463
469
470
469
471
475
475
470
467
464
467
470
469
461
458
466
469
457
459
467
465
469
473
473
475
478
483
487
486
479
470
466
466
468
467
473
482
488
485
478
472
477
484
488
487
486
486
487
489
494
490
487
484
482
479
476
474
476
484
491
489
488
490
490
496
504
509
512
517
525
536
535
531
528
527
516
505
501
507
511
522
523
527
530
530
528
526
531
531
528
532
530
525
518
516
511
501
500
505
509
508
502
498
500
496
487
481
483
495
496
498
498
494
493
484
477
468
462
458
442
428
429
436
453
463
473
467
456
447
435
431
426
429
449
473
488
490
488
482
472
461
454
453
450
445
444
447
450
454
453
456
455
454
460
460
461
457
457
453
456
457
457
454
460
461
463
455
446
445
446
450
451
450
448
446
446
445
447
452
454
453
452
459
463
465
464
460
458
450
442
442
442
445
449
448
452
459
473
498
522
547
576
610
647
690
729
765
807
841
865
892
911
920
928
947
967
987
990
989
989
989
990
935
846
747
664
597
544
474
399
327
253
167
80
18
17
17
17
17
17
17
17
17
17
31
62
91
121
147
171
191
207
220
235
252
265
277
291
301
314
330
348
367
381
398
415
433
451
461
468
476
490
495
497
497
500
506
508
515
527
533
543
541
538
539
540
547
550
551
559
563
554
549
547
546
538
530
527
530
538
544
545
543
538
535
537
533
530
543
557
564
566
567
564
561
561
562
560
559
558
557
555
556
557
558
562
565
557
551
552
561
566
562
561
561
559
558
563
564
566
569
571
575
573
568
566
569
575
577
577
589
592
578
565
564
573
583
589
592
590
585
581
580
584
588
579
580
588
595
601
607
624
631
624
617
611
612
625
630
630
628
625
624
628
637
644
652
654
654
654
653
652
648
647
651
659
663
662
658
658
657
659
667
672
675
682
673
657
651
651
659
666
667
659
657
656
647
643
650
651
651
640
629
627
630
625
621
615
615
609
602
604
608
606
601
590
586
589
590
589
581
570
563
558
554
551
548
543
531
515
498
489
492
489
481
473
469
467
461
453
446
445
442
441
434
425
420
414
413
419
413
406
400
391
386
380
378
382
380
377
372
374
372
374
376
372
363
359
367
366
366
371
379
376
371
375
370
364
364
366
360
359
361
366
365
362
365
377
383
384
385
385
383
383
386
386
385
383
387
396
395
384
378
381
386
393
399
397
394
392
387
391
396
398
397
403
407
412
414
408
399
396
395
399
410
415
418
420
421
423
431
432
425
416
410
413
418
423
426
428
435
437
436
434
430
428
426
425
428
432
436
435
432
433
431
432
436
440
448
450
450
443
436
437
437
440
440
440
442
447
448
451
452
450
448
448
451
450
450
453
451
455
462
454
447
442
444
455
462
461
455
451
454
453
458
462
460
459
456
457
461
467
470
466
459
450
451
455
460
460
463
471
474
475
474
471
468
456
456
458
461
460
459
461
464
472
476
474
473
469
462
456
458
464
467
468
467
463
468
469
469
465
460
463
467
470
473
475
481
484
491
487
470
454
445
439
443
451
453
457
461
459
464
473
480
473
464
464
465
469
474
472
469
462
458
466
470
471
469
463
457
456
453
457
464
465
460
454
457
464
469
472
471
470
472
476
477
475
473
474
478
483
485
482
475
465
455
448
450
458
466
473
470
469
470
456
441
435
442
459
474
479
478
483
479
480
489
500
508
509
507
506
504
502
493
486
494
499
499
493
488
485
486
488
491
495
494
493
493
504
517
525
529
531
526
518
522
524
527
532
537
536
530
527
525
517
507
509
512
512
507
505
510
519
527
527
527
532
532
535
538
531
523
523
518
514
507
499
495
494
497
500
500
497
497
496
498
499
490
485
479
471
466
467
464
465
465
463
457
456
460
461
448
435
435
442
444
443
439
444
449
458
461
460
452
445
444
442
446
449
447
447
455
460
456
452
445
436
440
454
461
460
456
453
454
457
460
462
462
456
453
454
458
461
457
449
446
449
454
455
453
451
449
454
459
462
461
457
452
454
459
450
448
451
450
450
449
446
447
450
451
445
456
485
527
573
615
647
663
683
717
760
797
830
862
893
916
932
940
955
984
990
989
989
989
989
977
915
826
726
640
571
500
426
360
292
222
135
54
17
17
17
18
17
18
17
17
17
29
67
85
99
126
146
163
180
197
213
229
243
264
278
289
310
323
335
354
379
391
400
414
432
456
466
470
475
487
496
503
507
516
517
527
534
535
531
531
541
543
541
541
539
542
545
543
543
540
537
539
543
547
552
557
558
555
552
552
552
545
539
538
545
555
557
554
552
553
552
550
553
559
566
562
561
566
569
569
566
563
562
568
573
565
557
559
566
573
578
578
578
572
562
554
551
552
558
565
568
568
573
579
583
576
565
566
572
565
564
562
556
561
573
575
583
596
598
606
611
615
616
611
592
595
603
603
603
604
607
607
608
605
604
611
621
626
633
641
647
649
650
657
654
652
649
644
645
651
654
653
653
654
653
650
655
658
658
659
664
668
668
662
663
664
664
667
664
655
646
649
650
647
647
642
648
658
661
657
659
656
644
632
627
630
625
614
603
599
599
608
611
607
596
593
593
587
574
569
569
567
563
560
551
542
530
517
507
498
491
489
487
482
475
464
454
452
450
443
428
432
441
445
447
438
427
414
398
393
398
400
396
392
393
382
363
349
355
371
377
379
383
379
377
375
368
363
356
354
355
359
364
372
378
375
372
375
379
383
380
379
375
367
367
373
376
378
376
381
382
381
390
405
411
409
397
385
380
369
371
385
389
388
387
385
390
393
390
390
399
410
422
424
415
406
402
402
405
406
406
411
420
423
421
425
426
422
423
422
419
423
429
426
419
416
419
421
418
417
421
427
434
440
443
438
435
439
437
441
439
437
438
436
431
434
441
445
447
445
442
441
447
450
452
449
446
447
455
464
460
451
453
456
459
461
456
454
462
458
456
459
455
452
451
457
463
466
466
471
471
477
482
480
480
486
491
496
497
485
469
462
462
458
459
464
465
460
460
461
453
451
449
455
461
467
471
467
462
460
468
470
470
468
466
460
451
447
441
441
447
447
450
451
453
456
453
452
455
453
454
453
452
456
460
465
472
472
471
467
465
465
470
472
466
464
465
468
468
467
468
467
465
469
472
473
465
456
463
466
470
470
463
458
457
464
474
472
468
473
486
492
477
464
459
461
464
466
467
470
481
489
486
480
481
483
486
489
487
490
492
485
486
484
480
475
473
473
473
481
494
502
510
513
506
511
519
527
530
532
530
529
528
522
522
522
522
515
510
512
520
530
527
518
519
524
526
524
519
512
512
517
528
523
509
510
518
518
508
505
510
501
491
488
492
491
491
486
484
490
495
492
487
475
467
457
447
441
447
455
460
458
456
457
455
442
439
442
441
448
458
466
467
461
463
464
457
451
445
445
447
447
450
450
449
452
458
459
463
465
462
462
468
474
469
462
460
452
444
446
451
457
461
460
454
448
450
455
457
459
460
454
452
451
456
457
458
453
451
449
454
461
463
464
462
458
454
453
447
450
448
447
446
447
451
457
463
480
506
540
578
619
657
688
719
757
792
820
849
881
910
930
942
960
984
990
990
990
990
987
954
899
810
718
644
592
531
458
381
310
237
160
95
34
17
17
17
17
17
17
17
17
26
65
106
134
156
178
194
205
218
225
235
253
265
269
280
298
311
329
345
360
380
403
422
439
451
456
465
474
487
485
483
492
501
508
513
519
531
541
546
549
547
546
546
551
552
548
544
538
531
530
534
535
542
545
540
535
538
546
552
558
571
580
561
539
533
543
554
553
552
555
552
549
546
548
549
553
558
560
553
553
562
567
570
572
572
570
572
565
555
551
554
556
567
578
584
584
580
571
569
569
567
567
572
573
572
572
571
573
577
578
576
576
578
583
588
592
593
593
594
600
607
611
610
607
610
604
598
604
610
614
615
616
620
624
628
633
634
630
626
634
644
646
645
647
651
647
645
647
645
645
644
652
662
668
675
676
670
665
661
659
657
652
650
651
655
661
668
674
681
677
668
656
650
644
635
631
625
624
631
635
633
633
634
633
632
626
619
616
614
610
606
605
599
596
590
581
569
563
560
553
552
551
547
541
533
522
513
509
505
500
491
478
472
466
451
443
441
438
440
439
432
426
427
425
414
407
402
398
401
401
389
374
367
374
382
384
376
373
364
362
358
360
366
372
372
368
362
360
363
362
368
374
378
375
373
369
364
360
355
358
364
370
374
375
375
382
388
388
384
382
382
379
375
373
373
376
384
390
391
387
389
393
393
392
397
400
400
401
392
380
384
394
401
402
405
404
406
406
406
408
409
412
413
419
420
425
426
425
421
418
417
413
414
414
417
423
428
431
421
423
425
424
420
420
430
440
448
453
451
442
441
434
433
442
447
447
437
432
429
431
438
444
438
435
434
435
444
449
450
448
449
453
454
452
455
457
455
451
453
456
458
465
468
467
465
462
457
453
457
463
467
464
456
449
448
446
446
452
459
466
469
472
470
461
456
455
463
470
469
465
465
461
461
460
462
458
453
452
456
464
476
476
474
473
468
460
458
466
473
471
468
470
473
477
478
470
462
450
449
454
460
458
453
450
447
445
444
447
450
447
447
449
453
460
466
470
470
470
464
465
471
481
485
486
483
480
476
475
477
477
477
480
487
491
490
479
469
466
465
468
476
481
477
479
482
486
488
489
488
490
496
495
497
502
507
508
511
514
517
523
529
529
526
530
528
522
508
500
493
492
497
502
507
511
515
515
511
513
511
513
521
525
525
520
511
506
503
497
491
488
486
484
485
485
484
485
484
485
489
493
493
494
494
492
483
467
449
437
436
442
453
455
449
444
447
449
455
457
454
447
442
439
443
446
448
453
457
458
457
457
452
446
448
453
449
444
441
442
449
452
449
443
443
449
452
455
452
449
452
457
462
464
459
451
442
442
442
450
456
454
447
445
449
459
468
468
465
469
477
477
469
459
448
446
446
442
440
439
435
438
446
450
441
429
433
434
437
456
484
517
554
592
627
657
683
710
741
772
797
824
847
874
898
916
940
963
974
980
989
990
971
920
845
762
683
618
560
495
427
360
292
220
143
79
30
17
17
17
17
17
17
17
17
19
62
98
117
143
172
191
199
213
226
236
251
272
290
305
317
333
354
369
379
392
413
431
438
449
465
472
470
471
479
493
503
507
506
517
531
538
542
538
535
537
541
540
537
540
546
545
542
541
547
553
558
561
553
549
552
554
551
548
552
553
546
549
556
556
549
541
543
550
554
557
563
567
567
568
562
554
554
560
558
556
562
563
558
556
558
560
563
566
561
560
566
571
572
566
555
552
554
563
572
580
585
584
582
583
583
585
589
595
593
591
593
597
600
594
584
574
575
575
581
583
585
591
594
598
606
614
615
613
610
607
609
615
624
627
627
634
644
655
655
641
630
634
640
639
642
645
642
639
638
641
647
654
658
661
661
662
662
663
664
669
670
661
657
661
656
648
652
651
652
659
661
658
658
658
655
657
658
652
647
644
637
630
616
605
602
611
619
615
607
604
597
590
582
575
576
573
566
556
551
546
544
545
542
535
518
508
502
492
483
474
471
467
457
443
442
458
464
457
448
435
419
414
420
421
418
415
399
383
370
368
369
371
376
381
379
363
357
345
351
356
364
374
373
365
363
364
364
363
365
369
370
373
380
382
378
375
378
380
373
369
369
372
377
380
382
381
377
382
384
386
387
384
382
384
387
391
399
407
404
402
396
389
383
383
387
387
392
400
403
409
413
414
412
411
413
411
404
399
400
401
401
399
403
408
410
419
431
429
412
407
407
409
420
428
429
434
440
438
435
434
432
431
427
424
424
424
427
433
429
433
438
443
449
456
461
455
451
453
453
445
435
433
441
454
452
450
448
448
455
456
450
447
448
452
460
464
463
466
463
461
464
457
454
449
445
448
455
461
464
463
463
461
464
467
468
472
477
469
467
463
457
452
449
447
450
458
464
460
458
457
463
468
468
470
465
463
464
460
458
460
460
458
451
450
460
472
479
480
475
471
472
465
460
457
456
453
455
454
458
464
465
461
465
462
459
462
465
471
475
475
472
466
457
458
460
464
466
467
475
482
486
480
477
482
480
477
474
473
471
475
479
479
487
486
492
499
493
486
478
474
471
474
475
463
464
469
474
480
483
487
492
506
511
514
511
510
513
520
525
528
528
524
520
516
521
515
509
505
504
510
513
515
516
512
515
518
519
518
520
517
519
514
503
491
487
493
495
496
499
508
507
506
510
514
513
510
507
502
489
480
479
480
472
460
453
449
447
452
463
466
462
463
464
465
459
452
449
448
454
458
456
449
441
438
438
442
449
458
465
467
468
464
452
443
445
447
445
447
451
459
461
451
447
442
438
439
444
451
445
449
451
454
457
460
460
457
449
447
455
464
467
460
452
450
453
456
458
454
450
452
451
446
439
449
453
454
454
454
455
454
454
451
461
470
480
479
474
486
521
554
591
633
670
702
738
778
809
831
856
883
904
918
942
958
968
982
990
989
989
990
977
910
813
718
639
577
508
435
358
284
207
111
33
17
17
17
17
17
17
17
17
17
34
63
95
125
137
150
176
203
221
234
245
258
281
297
307
317
332
351
373
386
406
425
441
455
459
459
469
481
496
508
514
519
515
509
515
516
522
520
518
524
523
527
535
536
534
537
544
548
546
543
535
535
536
534
532
534
539
541
546
556
559
557
552
548
537
544
555
556
556
556
550
549
555
559
562
561
566
567
569
567
569
573
568
566
566
570
569
563
560
563
567
567
559
555
552
553
552
554
554
558
563
567
575
581
589
587
579
572
572
568
567
571
573
577
587
593
594
596
593
589
588
594
603
601
604
610
616
614
610
611
618
623
629
631
628
628
628
634
643
641
633
631
634
638
643
651
651
652
650
648
652
657
651
643
647
650
650
650
653
655
660
662
656
656
652
658
664
663
654
645
645
651
649
646
648
651
651
655
654
647
642
638
637
630
623
621
627
622
609
593
581
575
579
582
582
587
589
584
574
557
547
541
534
531
534
529
523
515
507
500
492
484
474
469
469
467
456
449
438
427
422
420
415
409
411
409
403
401
396
390
391
388
386
384
383
383
380
375
370
371
372
372
367
363
371
380
381
373
362
359
362
366
370
371
373
379
375
372
373
369
369
374
382
382
376
369
371
378
382
383
384
385
394
404
400
393
388
386
381
379
382
383
382
384
393
401
402
400
382
381
396
411
414
412
410
408
404
406
406
408
411
416
417
422
424
424
433
435
433
425
420
421
421
425
430
436
438
445
442
430
417
413
413
419
424
431
435
438
440
444
443
448
450
448
451
457
457
459
453
447
445
441
445
451
451
448
454
453
456
454
455
452
443
442
451
449
445
446
448
453
448
445
444
447
446
450
454
458
459
455
462
456
450
450
453
461
470
475
476
473
472
468
467
467
464
462
466
464
462
461
461
460
462
467
470
469
468
468
469
470
469
474
478
479
469
460
451
453
465
470
466
469
466
468
470
470
466
471
473
472
470
468
462
461
462
462
459
457
459
461
466
467
470
468
464
461
460
469
471
469
472
464
459
468
473
477
479
478
475
469
456
452
454
462
458
452
451
459
472
483
481
471
463
464
464
455
454
460
461
467
481
489
491
489
482
484
491
494
489
479
471
467
467
484
497
500
496
492
493
483
476
483
479
471
476
482
486
483
484
486
476
474
472
478
483
492
499
506
514
522
525
520
520
524
532
537
541
543
537
527
517
520
525
529
531
528
525
525
520
510
502
510
514
520
525
525
519
519
522
517
512
513
512
509
503
501
500
497
497
496
500
500
498
499
497
485
475
468
464
461
453
449
453
459
457
454
452
453
453
457
462
463
462
465
465
461
460
461
451
448
441
445
458
462
462
458
451
449
443
441
444
448
451
460
463
466
472
469
463
459
454
453
453
455
468
477
472
463
458
452
452
461
466
461
451
444
449
449
454
452
454
455
458
459
457
458
462
465
461
450
440
438
438
442
448
451
457
460
462
461
465
474
479
496
528
565
599
640
690
725
753
785
808
832
861
891
917
936
949
968
985
989
989
989
989
989
985
926
835
740
663
602
541
473
402
324
241
150
71
17
17
17
17
17
17
17
17
17
36
64
93
121
148
165
178
199
217
235
245
258
271
286
292
293
302
320
340
360
379
399
419
438
452
472
486
493
497
502
501
487
482
488
501
513
525
534
543
548
549
543
541
546
549
546
539
538
539
548
555
552
549
535
527
529
533
537
546
549
552
551
553
559
558
553
552
558
562
554
550
551
553
553
547
546
550
556
563
570
563
560
572
582
588
581
574
564
560
558
555
564
563
559
559
555
549
554
566
572
570
563
556
557
566
572
578
583
589
590
590
588
592
587
580
582
582
587
593
599
598
595
596
599
610
620
621
615
605
607
615
622
618
611
616
624
630
636
634
635
636
641
647
655
652
650
655
657
660
662
661
652
649
649
653
663
672
677
680
675
669
662
656
659
667
667
659
648
651
653
651
658
662
658
661
664
655
646
647
647
646
641
638
639
636
634
635
634
635
632
624
615
607
596
585
577
574
576
580
577
570
561
550
546
537
533
526
512
500
488
487
484
478
471
467
469
465
456
449
445
441
424
413
414
419
423
421
422
417
410
403
404
399
396
394
392
384
385
386
377
376
370
368
366
367
378
385
387
386
386
384
376
375
382
380
371
365
364
364
373
375
375
370
366
367
369
373
374
384
389
393
395
400
402
409
420
405
386
381
383
387
396
400
403
394
383
384
393
401
405
404
396
395
403
398
392
399
408
407
406
405
407
411
415
416
415
408
405
417
439
441
442
440
431
427
428
429
430
430
432
436
440
443
446
446
440
430
432
442
446
448
454
449
438
431
432
432
436
445
451
452
450
446
446
452
451
448
447
453
460
468
471
468
467
457
452
452
461
468
470
465
457
460
459
448
451
457
460
464
469
474
473
473
471
463
454
454
458
463
460
459
463
459
463
469
480
483
472
463
458
464
479
482
474
463
461
454
449
452
450
450
454
464
468
469
470
472
479
482
475
466
466
469
474
471
466
465
467
465
464
457
455
456
462
464
471
477
486
486
483
478
475
477
478
481
485
487
486
487
485
490
491
492
495
494
490
488
492
490
485
485
491
506
519
527
522
516
519
520
526
530
531
530
525
520
520
518
517
519
515
508
499
500
508
514
521
525
516
507
511
515
506
503
514
525
530
525
511
504
499
500
502
500
490
492
496
496
494
495
498
497
496
490
478
470
470
467
461
456
456
450
437
434
437
443
445
451
456
464
465
459
452
451
454
457
459
460
455
454
454
456
456
451
447
450
454
454
454
456
456
454
449
454
464
468
463
458
458
459
464
466
468
459
447
441
441
445
447
453
454
450
452
457
459
457
455
452
452
458
467
467
460
454
454
461
467
462
450
440
440
445
447
453
457
458
458
456
448
441
448
461
490
525
558
598
636
667
691
722
757
791
824
851
880
904
927
942
953
962
973
983
985
976
946
891
814
732
664
606
541
474
410
351
292
221
152
92
46
18
17
17
17
17
17
17
23
51
74
104
130
156
177
193
211
230
248
260
276
290
297
305
319
338
359
369
377
386
402
423
440
448
455
468
483
496
505
508
515
518
517
520
521
523
526
528
531
530
528
530
536
536
541
542
545
545
552
553
552
551
547
542
547
552
552
554
558
560
561
559
561
566
566
563
566
571
576
578
576
560
549
546
547
547
546
544
549
554
556
551
546
553
561
559
564
571
582
583
585
580
576
575
571
566
567
569
571
574
579
586
591
591
586
587
586
586
587
585
588
591
594
591
589
592
594
597
601
605
608
612
613
613
612
610
608
617
625
621
618
622
621
623
631
637
643
647
647
644
639
643
646
647
649
651
651
653
661
674
681
683
682
674
671
666
667
672
671
661
651
646
650
654
657
653
655
666
664
655
654
657
657
651
645
643
645
647
645
644
643
637
633
623
614
609
607
612
617
616
607
595
589
590
586
578
568
559
546
539
536
532
530
527
523
513
506
497
491
479
456
451
448
452
457
455
445
435
424
416
414
412
412
408
403
401
404
401
386
375
372
374
379
383
378
363
357
358
359
359
357
363
367
369
369
371
363
368
372
370
370
367
363
362
364
367
368
371
374
381
384
382
381
381
383
384
384
385
383
384
387
392
396
398
397
393
388
387
382
378
379
384
384
382
382
382
391
396
400
406
408
406
405
414
417
411
415
422
425
422
420
421
425
428
427
428
421
417
415
416
417
415
415
416
420
428
431
434
439
438
444
445
439
437
438
443
446
442
439
437
442
444
439
432
429
434
440
447
449
448
447
448
454
454
453
448
446
448
459
458
453
450
450
449
451
456
458
461
465
456
456
461
466
467
470
469
464
461
462
464
461
465
468
462
457
451
459
465
477
480
473
469
470
469
466
464
457
454
453
449
447
452
456
463
471
474
473
473
474
468
463
459
457
458
462
463
464
463
463
462
467
468
460
457
456
462
464
466
465
460
455
461
473
481
473
472
477
482
479
477
480
484
478
467
460
450
455
465
465
469
472
474
477
478
484
485
476
471
475
479
486
485
482
476
477
484
480
477
478
482
485
482
477
477
476
474
476
481
482
485
494
502
510
513
515
518
527
532
534
528
519
511
519
524
522
518
509
506
506
506
508
506
499
510
506
501
506
511
517
520
525
527
520
512
505
500
499
502
503
501
499
503
500
496
499
505
510
517
520
515
504
495
489
478
471
466
461
458
455
448
445
441
443
445
444
446
443
442
443
445
450
464
473
466
459
463
470
471
463
453
448
446
442
445
453
460
462
464
463
461
466
464
463
462
461
457
454
449
458
458
460
452
444
444
447
456
458
453
452
452
455
454
456
457
455
457
458
459
463
465
464
458
458
464
466
458
453
451
443
442
443
445
447
455
454
455
455
465
490
520
557
596
632
659
688
725
765
801
831
856
886
903
912
931
947
968
980
989
989
989
989
982
918
833
736
659
598
538
468
395
324
246
157
68
17
17
17
17
17
17
17
17
17
23
55
86
116
139
157
176
200
218
234
245
250
263
287
307
317
327
340
357
376
391
407
427
447
457
464
476
487
495
500
505
515
518
520
520
517
515
520
526
532
535
534
535
540
541
541
537
543
549
556
554
555
546
543
544
544
545
539
543
546
535
525
521
524
531
536
541
541
541
547
550
545
549
560
565
570
570
571
563
560
559
559
560
571
585
589
575
565
563
569
564
551
550
560
564
569
570
573
578
576
578
572
568
574
577
577
577
570
570
566
576
580
582
585
587
589
585
581
588
585
586
588
587
589
590
591
592
597
610
614
615
615
622
634
637
632
631
631
631
632
631
637
642
642
641
643
639
640
656
662
658
653
655
666
664
658
656
657
664
671
667
667
658
654
652
651
649
649
655
660
658
651
637
628
631
633
642
650
656
660
660
653
641
636
636
628
620
622
620
618
610
601
593
589
589
592
587
575
563
556
556
556
553
545
532
520
512
504
495
491
493
493
489
479
464
465
453
441
449
453
455
444
425
413
411
413
410
404
405
404
399
397
398
389
384
380
374
363
357
357
358
366
375
385
383
375
373
375
375
371
372
373
369
368
374
382
385
381
365
352
353
359
365
367
375
382
381
378
377
381
386
396
400
394
394
394
389
387
392
391
387
385
383
388
391
404
407
407
407
411
411
409
403
403
408
412
410
406
409
411
417
425
430
428
424
421
422
422
417
419
422
416
411
419
423
428
435
445
449
451
455
451
439
431
426
426
433
435
429
433
434
425
424
428
433
439
442
441
443
447
447
442
446
454
459
468
469
464
460
450
442
440
436
432
439
449
458
459
458
457
458
458
457
461
462
465
466
469
471
467
468
474
475
466
455
452
457
463
472
471
467
471
470
462
453
454
461
467
470
470
475
479
479
467
458
459
464
464
460
464
465
465
463
464
466
465
451
444
446
449
453
452
456
468
473
471
470
473
479
476
470
464
465
470
476
476
470
475
473
473
475
478
478
473
463
455
458
468
477
475
473
472
471
473
478
484
484
481
474
477
487
490
489
484
479
479
484
488
490
489
486
491
490
494
507
511
503
507
512
524
526
527
532
534
532
528
529
529
532
532
523
514
502
499
507
524
529
523
510
504
509
512
524
524
520
514
508
513
519
518
511
505
502
504
498
494
488
486
485
487
489
489
486
486
489
487
484
473
459
449
444
436
437
446
450
456
463
467
464
448
438
437
438
438
437
438
443
447
446
448
452
456
455
453
457
456
456
457
448
447
443
443
443
441
442
444
445
450
449
449
447
449
454
459
467
470
464
458
452
452
454
455
453
452
456
460
463
459
454
455
458
457
455
454
453
449
447
451
453
459
461
447
440
445
455
458
454
451
452
452
464
490
518
543
573
622
669
700
722
759
802
827
851
878
904
932
954
973
986
990
989
989
989
989
990
973
884
776
671
600
541
470
400
324
245
153
63
17
17
17
17
17
17
17
17
17
17
42
63
86
122
151
174
194
205
218
239
264
278
282
292
301
315
333
354
377
397
406
416
428
443
455
460
467
478
491
499
499
500
506
509
518
533
541
545
545
544
550
551
550
560
561
558
552
539
525
528
531
537
541
549
558
562
560
549
542
540
544
546
542
534
533
544
552
553
551
548
552
558
564
566
565
560
556
556
560
550
545
544
549
551
553
555
560
558
553
557
564
579
581
580
578
580
581
578
584
584
574
570
562
562
575
577
581
575
571
573
581
590
588
582
580
585
589
592
599
603
606
605
610
615
620
616
617
619
626
632
636
636
632
623
620
630
640
639
634
634
634
636
636
644
650
648
648
654
658
659
655
656
658
658
659
661
664
666
667
666
671
666
662
657
653
657
657
650
644
648
654
651
657
666
664
658
656
650
647
647
641
634
632
626
618
614
613
609
607
609
603
601
599
595
592
591
584
572
569
562
551
542
533
527
524
520
517
506
498
496
490
483
470
462
461
462
461
456
443
436
425
413
404
406
405
400
399
401
407
399
393
390
381
371
361
356
363
363
371
376
366
355
356
361
360
364
379
387
384
380
372
366
356
360
365
365
371
377
376
370
367
366
366
365
370
371
374
379
386
390
383
387
398
392
387
376
374
377
387
398
403
406
408
407
410
411
417
413
403
395
395
391
389
388
398
410
409
405
409
408
406
408
403
400
397
401
408
417
424
431
432
431
428
430
429
427
427
424
420
425
430
429
434
440
439
431
424
426
436
449
452
454
449
432
430
430
438
448
456
461
472
477
470
468
461
446
438
454
471
477
478
469
457
442
438
445
455
453
448
441
443
449
456
466
469
468
462
457
451
447
445
441
441
451
452
448
456
459
456
455
454
452
453
451
454
449
451
455
464
474
482
485
479
473
461
457
447
442
446
450
456
461
451
454
463
469
466
450
437
442
455
467
467
469
476
485
491
479
473
474
476
482
485
471
452
439
434
430
436
444
449
457
461
460
459
464
462
464
466
476
477
484
487
484
480
478
477
472
477
483
485
488
487
486
480
476
475
481
478
471
477
482
484
492
503
506
510
516
520
522
528
532
529
522
521
525
523
515
507
499
497
502
508
509
510
504
503
503
506
503
504
508
506
497
486
488
496
494
492
496
496
498
496
493
498
495
490
487
482
487
488
484
482
481
466
458
457
455
449
444
451
456
453
443
439
443
448
448
446
441
433
435
441
436
436
441
449
457
461
463
460
452
441
437
436
436
442
442
438
436
438
438
436
437
446
457
462
457
457
461
447
442
441
446
451
457
447
446
448
442
445
453
459
457
451
449
453
456
454
456
457
459
453
449
451
451
448
446
438
429
425
425
427
423
418
425
431
441
463
486
511
540
579
622
663
691
719
756
792
820
837
856
877
894
913
938
957
974
989
989
990
971
928
865
778
698
629
572
512
448
386
323
240
163
92
33
17
17
17
17
17
17
17
17
28
62
85
101
129
155
171
188
207
220
230
247
273
295
308
317
327
339
349
358
364
373
390
408
422
439
454
465
478
487
487
493
502
508
504
507
513
523
526
524
515
513
518
525
528
530
528
531
530
528
529
532
538
539
542
532
522
527
535
534
525
517
521
526
534
542
547
557
554
544
554
563
564
558
554
551
548
546
543
535
537
542
546
548
547
545
545
546
536
536
543
547
552
555
557
561
559
554
553
550
546
543
544
552
561
567
562
564
565
570
581
586
587
589
584
575
572
571
569
565
562
571
590
596
593
595
601
609
598
581
575
581
589
597
599
609
620
626
627
629
632
634
642
646
641
638
635
630
631
641
648
658
667
664
660
654
652
644
642
644
644
646
650
648
648
647
651
658
659
655
647
639
637
639
636
627
622
626
628
628
628
625
619
615
614
612
609
607
604
602
600
592
586
575
569
574
579
573
550
537
533
523
518
514
508
505
501
500
491
475
458
446
442
443
444
441
430
424
417
409
407
412
418
421
412
400
390
381
376
375
375
370
366
367
369
366
363
356
348
348
353
359
363
362
365
368
369
359
353
353
353
353
351
350
349
355
360
360
359
358
356
357
366
370
373
367
366
374
377
379
374
371
373
376
376
374
379
381
381
376
372
369
376
381
379
384
387
392
391
387
383
380
372
370
382
389
394
404
413
415
406
404
407
409
408
405
407
408
413
409
400
391
397
408
417
417
415
415
414
414
412
414
418
427
430
432
435
432
428
430
431
430
429
423
425
429
429
426
423
432
443
445
439
436
439
445
447
444
433
434
443
449
448
450
453
446
438
438
438
448
456
457
460
459
455
452
449
448
453
457
459
452
440
431
433
449
461
463
460
455
453
447
443
448
443
442
451
461
455
445
440
438
441
447
451
463
465
460
458
458
455
449
448
454
460
464
466
469
468
463
461
462
459
458
461
470
475
472
466
469
473
477
481
483
482
478
469
468
474
478
482
481
478
475
476
476
477
480
479
481
489
497
499
496
496
506
520
524
515
514
507
495
484
486
492
499
500
495
496
498
502
512
517
515
513
505
505
511
513
508
502
503
502
498
491
490
486
484
483
479
478
481
486
488
491
497
502
491
476
472
477
479
476
470
463
453
444
442
446
450
449
432
419
422
435
445
451
448
440
438
442
445
440
442
447
451
452
448
446
443
445
450
446
439
437
442
442
440
440
449
455
454
454
454
457
456
457
450
443
442
447
447
440
437
434
434
440
444
442
439
434
445
456
460
457
454
454
449
434
432
437
443
449
454
452
447
445
446
447
452
451
450
448
443
446
454
462
474
482
500
526
558
598
640
670
695
722
753
781
809
834
863
893
910
926
946
959
965
975
974
966
936
882
802
714
637
577
524
462
388
312
239
156
84
28
17
17
17
17
17
17
17
17
17
49
83
107
140
170
184
198
215
229
240
251
268
287
299
313
327
341
359
375
387
401
414
432
450
464
473
481
494
508
515
517
520
521
510
507
511
517
524
533
536
536
539
541
537
539
550
556
554
549
545
546
553
554
552
552
552
554
557
563
560
559
566
566
562
555
550
555
558
556
554
551
553
560
563
562
561
555
553
554
562
569
574
569
568
567
565
569
571
571
572
571
563
567
567
567
563
563
565
568
571
574
577
582
584
582
581
580
577
579
578
578
585
592
596
597
597
594
590
596
601
606
617
621
614
613
616
611
605
604
608
610
612
616
626
631
628
632
637
638
644
646
644
641
642
636
636
644
655
662
662
662
663
665
673
680
685
676
665
659
655
657
660
675
681
678
671
673
679
677
669
663
658
656
652
651
649
640
634
639
646
643
631
621
614
611
615
612
607
607
601
598
599
599
590
583
575
565
565
564
551
540
533
527
524
523
522
513
505
495
485
475
465
458
446
451
452
444
438
433
430
431
428
413
400
398
397
387
385
383
386
388
391
392
378
376
375
371
366
368
364
374
385
380
381
373
366
359
359
372
382
385
384
377
376
381
378
377
379
379
374
370
375
376
382
383
384
391
393
391
388
388
393
400
407
412
405
396
395
400
400
390
385
390
395
397
405
410
412
412
406
394
394
401
403
397
395
404
410
419
430
432
432
425
425
423
424
426
422
433
439
439
440
438
442
441
434
429
426
430
433
443
440
439
445
445
445
447
444
439
442
439
431
433
437
445
447
446
454
459
461
460
462
467
469
460
456
455
459
459
455
456
466
472
472
465
457
452
448
453
457
455
449
445
448
460
462
467
474
471
469
468
467
469
466
464
466
468
471
480
479
472
470
474
475
475
473
464
467
469
470
468
473
476
475
470
473
468
470
466
464
463
457
448
450
453
455
457
460
473
484
491
490
479
472
481
485
477
466
464
469
470
470
469
473
483
486
488
486
482
481
484
482
481
476
482
492
492
488
484
481
487
486
486
486
486
484
489
498
497
495
493
486
483
479
483
486
488
492
499
501
506
516
525
543
540
540
539
541
539
540
543
543
535
528
530
528
524
514
510
513
520
524
523
517
518
526
530
532
529
519
512
508
501
499
502
505
508
507
509
505
505
513
515
505
499
493
494
495
491
498
493
477
467
460
449
445
445
444
445
445
453
462
459
463
463
458
454
455
453
448
447
446
442
443
437
441
450
447
451
456
464
472
471
469
462
462
464
465
463
464
464
464
463
460
460
463
464
468
473
468
459
454
451
449
446
449
446
449
454
459
468
471
475
476
468
459
457
456
454
456
457
455
452
450
449
445
439
445
449
456
465
463
462
463
462
482
516
559
603
644
679
713
749
785
823
849
870
907
933
954
962
982
990
989
989
989
989
989
990
972
890
787
693
616
553
479
400
324
250
161
72
17
17
17
17
17
17
17
17
17
28
57
83
108
140
159
175
193
204
209
223
242
257
272
286
303
333
344
350
372
391
403
416
434
449
456
463
471
475
484
499
510
521
529
535
533
533
533
537
545
548
542
537
537
542
545
540
538
541
545
549
555
560
556
550
538
535
543
557
562
560
553
546
550
550
549
550
550
552
554
552
553
558
560
557
556
550
552
559
559
563
569
576
577
573
565
567
566
563
571
572
577
582
575
569
569
568
571
572
579
581
577
570
573
580
587
584
583
583
583
583
588
592
593
595
588
584
583
587
593
605
612
611
610
608
603
605
609
615
621
623
627
635
634
635
638
640
634
635
648
657
666
671
662
644
637
641
653
661
663
660
658
657
663
667
668
667
666
669
670
668
667
663
662
663
678
686
679
673
660
654
658
661
665
671
674
677
672
660
652
646
645
638
629
632
632
627
617
610
606
605
603
598
597
595
590
583
577
573
574
571
563
556
550
531
520
518
515
510
509
506
501
495
487
481
478
463
448
438
439
442
439
428
425
419
410
395
373
364
383
397
393
386
381
379
381
385
389
394
392
383
378
378
381
380
366
357
368
370
369
368
376
376
369
367
369
370
371
377
382
379
377
375
377
378
378
375
380
379
379
381
386
394
397
397
401
402
395
393
395
398
397
395
390
394
395
395
396
403
407
407
406
410
415
415
417
417
414
417
424
428
426
423
422
424
427
435
438
430
425
433
439
438
437
431
429
428
428
424
427
426
426
429
430
433
441
447
452
458
457
458
449
441
439
440
439
438
439
445
453
459
455
450
442
441
450
458
463
462
461
463
463
464
465
462
457
448
449
452
458
464
470
473
475
478
479
481
484
476
467
459
458
463
468
466
465
464
460
460
461
467
473
484
493
492
484
478
485
485
481
476
463
452
443
435
440
447
449
457
463
464
466
467
474
478
482
480
477
480
484
485
483
477
474
473
469
462
460
464
462
466
473
479
479
478
480
486
485
480
468
468
467
469
479
484
479
473
469
468
468
469
473
472
471
476
482
481
478
473
467
461
462
467
475
477
473
474
487
497
502
502
495
501
507
492
482
486
495
495
496
496
494
493
491
498
505
504
504
497
490
490
490
494
502
508
505
503
507
515
529
541
538
531
521
516
519
528
528
524
523
522
522
526
528
530
538
534
528
523
515
511
520
533
538
527
517
515
514
513
513
515
519
510
508
514
515
516
520
514
510
503
498
494
492
484
476
472
458
445
447
450
451
456
459
456
448
447
449
452
454
452
458
465
471
474
471
471
466
461
459
464
470
466
450
445
447
452
454
452
456
457
459
459
460
459
459
452
444
446
456
463
466
472
474
473
478
479
474
461
459
468
470
470
466
465
466
465
457
463
468
467
464
461
468
468
451
444
443
444
443
437
436
445
457
462
467
464
467
485
517
551
584
615
646
680
714
751
796
837
865
888
913
945
970
984
988
990
990
989
989
989
989
990
921
819
731
654
588
531
465
393
315
235
150
91
43
17
17
17
17
17
17
17
18
51
76
96
128
161
182
201
218
234
249
260
268
286
301
314
326
333
345
360
379
400
414
432
438
447
463
472
479
486
491
499
501
498
508
522
531
537
539
537
545
546
540
538
540
546
548
546
544
540
536
541
545
544
549
563
576
575
565
562
557
549
542
535
533
538
545
550
549
547
548
551
548
552
549
554
566
562
557
554
552
553
554
553
555
554
553
555
561
568
573
580
581
583
584
581
571
576
586
577
577
575
576
575
576
577
578
590
591
585
587
591
592
589
590
595
597
595
588
590
592
598
605
606
614
620
620
614
607
609
614
618
623
621
622
626
637
644
646
647
644
641
642
644
651
652
651
656
666
665
661
660
661
666
671
670
660
660
661
663
664
662
658
657
663
664
660
658
659
656
652
648
645
654
655
652
652
650
649
642
640
638
632
632
632
636
635
631
623
614
610
611
605
597
593
587
581
570
562
565
574
571
567
566
551
536
529
527
527
517
504
491
483
483
489
490
483
467
451
439
434
434
432
431
424
419
420
417
412
399
391
393
403
408
399
393
396
386
375
360
352
351
355
365
369
368
368
372
374
379
381
379
379
379
377
384
385
386
383
379
386
383
379
371
371
376
381
385
392
389
390
391
392
394
392
392
393
398
397
398
394
395
388
392
401
412
414
412
410
406
403
411
415
418
427
429
429
430
426
413
409
410
414
412
411
416
412
410
415
423
425
427
427
424
417
415
424
437
440
439
440
436
439
445
452
459
453
446
448
452
443
427
433
445
446
438
431
429
434
436
431
432
449
454
454
453
459
466
474
474
471
467
465
464
464
464
468
472
463
460
461
462
460
463
465
459
454
462
474
475
462
457
457
461
467
470
473
473
464
459
467
468
462
471
481
480
467
462
463
460
463
465
462
469
476
473
466
466
467
470
475
477
484
482
468
458
457
459
461
461
465
477
479
478
477
480
481
478
475
479
485
490
491
488
489
494
488
480
479
482
475
475
485
494
491
477
475
479
480
486
492
497
505
512
513
514
520
527
535
544
540
539
533
523
517
521
524
517
511
510
514
513
510
505
504
508
511
510
506
509
513
519
512
505
496
495
493
493
497
502
503
499
497
496
490
489
487
493
494
497
500
492
476
467
465
463
461
451
442
436
440
443
450
459
461
459
461
464
465
463
463
456
454
450
453
454
450
451
452
452
460
462
460
461
458
452
448
444
450
459
456
447
441
442
445
458
468
471
467
471
470
464
458
449
447
452
459
462
461
458
451
451
451
457
454
453
454
453
453
450
447
451
454
459
456
456
458
456
447
441
437
431
428
430
438
441
445
446
446
456
483
512
535
558
586
617
644
670
702
741
773
810
839
865
891
912
920
938
955
966
974
982
984
966
917
846
764
689
626
571
506
446
383
318
245
173
116
71
40
17
17
17
17
17
17
21
48
80
106
129
149
179
204
228
238
246
260
269
281
296
315
328
332
344
357
369
382
397
414
425
438
451
466
476
481
488
491
497
501
497
497
499
511
519
529
531
534
539
536
540
546
547
546
545
542
541
544
550
551
541
539
540
541
537
543
551
551
545
543
539
541
544
546
548
552
555
562
566
565
559
551
555
557
557
558
556
559
567
560
541
529
522
523
538
548
552
559
565
565
565
561
565
567
565
557
558
566
579
585
586
582
575
567
564
560
562
567
570
571
579
589
596
597
600
606
610
604
600
603
609
602
597
598
605
611
611
609
616
623
627
632
628
621
624
635
640
644
645
643
644
642
645
645
645
654
659
657
650
654
661
667
667
661
649
654
660
660
660
662
666
669
672
666
662
660
657
651
642
637
641
647
644
645
639
628
623
628
627
625
626
625
623
618
612
607
602
600
590
579
574
570
566
564
559
554
547
543
540
534
522
512
505
499
496
494
495
483
466
461
455
443
439
434
435
429
425
415
405
397
390
387
386
390
392
390
384
380
381
393
400
394
388
386
381
370
364
362
363
365
362
357
353
350
359
373
377
376
374
378
380
376
377
378
380
389
389
384
382
381
370
372
375
374
368
364
362
361
367
366
375
382
387
386
390
395
399
402
400
392
390
385
387
389
393
393
391
394
391
391
396
399
399
400
404
408
407
411
403
405
406
405
409
416
425
427
429
429
426
429
430
434
437
439
439
433
426
419
408
409
414
424
436
433
434
433
436
436
432
429
425
427
432
436
438
443
456
458
466
465
460
449
447
440
445
450
447
448
451
446
446
451
451
446
441
445
446
450
459
465
465
454
446
444
446
455
462
457
450
455
458
460
460
454
452
461
474
479
474
467
464
459
454
449
452
458
459
458
460
463
458
462
469
473
467
468
472
477
477
472
465
460
462
461
466
471
476
481
483
478
470
466
468
470
475
474
475
478
483
484
475
467
467
473
483
492
496
492
495
495
494
499
504
508
513
517
511
505
504
510
517
516
512
514
513
510
509
514
516
513
510
505
500
496
494
501
502
499
494
493
496
497
501
491
480
480
474
470
471
475
479
486
487
483
475
466
458
459
466
470
472
470
470
457
448
452
450
447
444
441
439
438
441
444
443
440
442
442
441
440
443
440
434
434
438
441
444
447
449
450
453
463
467
457
445
444
446
446
444
439
435
436
435
434
443
451
452
451
454
461
460
454
456
465
462
461
462
461
453
441
430
428
426
430
439
450
452
452
450
452
451
444
441
442
437
436
436
437
438
438
442
447
452
462
488
520
541
564
601
637
668
700
732
764
794
823
843
864
886
899
908
923
935
945
962
973
964
935
875
799
711
635
576
521
452
383
319
256
180
99
34
17
17
17
17
18
17
17
17
26
68
106
140
164
176
185
197
216
235
245
246
250
266
283
296
316
334
347
370
385
401
416
425
432
448
461
472
477
476
478
483
488
496
505
514
522
530
532
539
544
544
544
544
546
544
542
535
525
522
525
527
530
535
533
530
533
536
540
539
540
540
533
537
552
556
555
550
543
538
536
540
540
544
543
540
536
534
537
542
545
543
549
554
552
552
553
551
553
560
564
569
569
561
556
557
560
559
559
554
551
551
552
548
554
564
571
579
579
571
565
563
564
567
567
566
572
572
579
586
600
604
598
591
590
593
599
602
599
596
597
606
615
621
622
615
614
614
611
614
618
621
628
632
631
641
648
651
641
635
641
641
652
654
652
652
655
658
661
657
649
648
645
644
640
630
626
626
630
643
650
652
647
640
633
630
629
626
621
616
620
620
618
616
615
616
608
608
608
608
602
587
582
580
582
582
572
561
551
538
532
525
518
512
511
508
502
499
498
486
471
466
460
455
454
452
450
448
445
443
429
412
403
395
395
394
392
385
383
380
379
380
380
374
366
366
364
357
359
371
375
370
366
364
367
367
364
368
370
371
371
370
361
355
360
363
367
365
361
359
360
362
368
372
376
372
366
375
382
381
378
374
370
373
378
386
394
399
402
401
400
397
394
392
396
399
399
400
402
396
385
380
393
406
402
400
404
408
409
403
403
406
415
415
415
417
415
413
415
419
416
422
430
426
414
406
400
406
409
416
422
425
427
428
437
442
439
439
435
432
426
422
426
431
432
426
422
419
420
424
426
432
444
452
454
451
443
444
460
466
468
461
452
449
449
448
447
447
443
441
441
441
446
449
448
446
447
453
445
441
443
444
443
445
453
453
457
460
463
464
469
466
457
455
461
463
459
459
464
469
469
465
459
450
449
452
456
455
450
452
461
460
459
459
464
462
463
455
451
459
465
470
464
454
448
449
456
458
455
456
463
460
461
465
471
476
473
468
469
474
482
479
479
486
487
484
482
482
481
480
485
486
485
477
474
468
461
463
471
477
497
517
514
506
511
517
519
523
525
522
524
529
523
513
507
506
509
499
498
505
513
510
507
507
504
495
492
501
510
507
498
489
484
480
470
489
500
497
479
485
488
489
491
498
502
505
512
505
488
474
469
467
469
455
443
433
426
422
424
421
420
426
434
444
445
450
455
443
439
450
459
457
452
444
441
443
442
438
438
442
446
446
449
456
460
459
449
442
441
441
441
446
446
451
451
450
452
447
444
445
446
453
453
450
444
443
440
440
438
437
436
435
441
450
457
460
460
459
452
448
449
447
447
443
440
439
436
433
432
434
438
439
442
448
449
458
479
506
541
578
620
652
681
715
750
790
825
852
878
908
930
945
961
979
990
989
989
989
990
990
942
858
765
688
619
551
467
380
314
247
159
67
17
17
17
17
17
17
17
17
17
22
48
73
103
134
164
185
198
203
217
234
251
258
268
277
286
301
323
346
372
395
412
431
443
451
459
468
474
479
481
487
490
487
490
499
511
517
519
524
530
533
531
530
533
535
534
534
540
543
547
550
544
540
541
536
542
549
551
550
546
543
537
537
539
540
544
543
543
546
549
553
557
558
562
558
548
547
545
540
537
542
547
547
551
558
554
547
544
548
553
563
566
565
562
563
562
565
571
572
566
566
573
580
582
582
583
578
572
567
565
565
568
580
586
586
589
590
590
592
599
605
604
597
593
592
597
604
609
606
607
609
614
618
620
614
608
613
619
627
632
634
638
646
655
658
655
633
632
637
641
641
648
655
663
671
674
676
661
657
663
668
661
647
647
626
636
654
659
661
655
660
666
656
660
678
672
658
653
650
642
633
644
652
647
633
623
620
622
622
615
611
606
596
592
591
578
575
567
560
551
539
536
536
532
534
527
525
521
514
505
495
482
476
478
470
453
441
431
431
429
419
425
424
417
414
406
401
403
394
395
391
384
389
393
385
372
365
369
364
361
356
363
372
374
364
362
360
353
353
359
369
377
381
373
360
354
357
370
370
370
380
385
384
377
364
365
377
373
373
380
388
393
391
386
383
392
403
405
401
400
396
387
384
389
392
393
392
393
389
388
391
403
419
424
423
427
426
423
418
413
403
409
419
420
422
421
402
398
406
423
431
440
441
426
419
423
424
424
427
437
438
429
424
423
432
433
432
439
437
435
440
439
442
446
442
439
439
437
432
429
431
433
441
449
449
452
453
449
440
440
448
454
455
453
460
458
458
460
464
461
460
464
462
458
459
465
465
465
468
471
466
465
458
449
449
450
454
455
458
466
467
471
473
474
466
451
445
443
446
451
457
464
471
477
474
463
455
468
478
475
470
472
475
472
461
453
457
463
464
466
468
471
474
475
470
468
458
457
465
463
464
465
465
472
471
467
464
464
462
470
477
484
484
475
474
488
495
488
486
482
483
481
483
485
484
478
474
472
475
479
478
482
489
497
502
509
512
511
518
526
530
534
539
535
533
519
507
504
506
508
502
506
517
515
514
507
499
507
515
518
515
517
521
521
517
514
519
521
515
509
497
490
490
494
497
500
504
502
498
501
504
507
513
508
498
492
476
462
458
452
445
445
449
450
450
450
451
453
460
461
459
456
459
459
454
454
449
442
447
446
448
459
459
445
441
447
457
463
463
465
469
469
459
466
465
457
462
463
452
457
463
472
472
463
452
445
444
446
444
436
436
450
459
461
456
450
444
446
455
460
456
452
456
461
468
466
462
463
457
457
467
465
459
459
457
455
444
437
434
435
438
459
487
510
541
583
624
668
708
740
775
800
814
834
853
887
933
955
969
990
990
990
990
989
989
971
928
853
756
673
608
556
499
433
372
310
223
143
80
25
17
17
17
17
17
17
18
52
89
128
155
163
164
174
190
207
217
222
225
238
251
275
302
329
348
362
381
398
412
416
426
444
462
468
476
494
506
502
483
470
471
490
506
517
527
533
530
528
529
529
537
545
546
541
538
535
540
550
553
554
551
551
557
551
542
544
554
559
563
555
554
548
540
535
537
543
548
546
547
545
543
551
563
561
559
554
558
566
570
568
563
555
549
552
560
559
556
561
556
559
564
568
569
569
567
561
562
566
567
570
575
582
591
597
588
579
582
589
597
598
594
600
594
583
590
598
611
613
607
597
596
592
587
593
600
599
600
604
606
616
620
615
610
620
631
643
647
640
630
625
633
647
654
641
637
653
665
667
671
669
665
662
663
663
659
665
671
672
670
663
653
645
640
641
652
660
669
674
680
681
670
647
630
634
641
638
636
646
658
658
661
659
646
628
614
604
596
594
593
596
597
588
585
571
563
560
558
553
543
536
537
526
511
502
504
500
498
495
490
484
473
471
468
463
456
444
435
423
419
424
427
425
414
416
420
413
402
403
400
396
392
382
384
382
380
376
378
381
385
388
392
382
372
376
377
375
378
386
400
411
407
397
381
365
361
368
389
400
394
382
374
361
359
363
367
367
382
405
410
409
410
402
390
387
388
389
401
402
396
399
402
389
389
400
409
405
400
398
410
412
415
415
413
407
405
412
423
424
424
417
412
405
413
417
417
414
414
419
417
423
430
432
439
454
459
449
444
447
450
435
434
442
434
433
439
445
455
457
459
472
481
482
468
457
445
429
430
445
455
450
447
454
468
474
475
479
473
467
466
465
468
476
473
464
465
464
459
457
463
478
480
478
472
462
451
448
455
462
468
460
455
457
464
472
479
473
460
451
454
458
457
459
470
478
477
468
460
467
467
469
473
485
491
485
471
461
464
468
474
479
491
491
486
482
489
488
488
494
492
491
494
495
489
483
484
479
476
470
471
477
481
482
483
489
489
496
512
516
512
516
526
536
541
543
534
532
534
535
526
519
523
527
522
516
512
508
499
495
498
502
510
518
523
529
527
519
513
510
509
502
501
502
504
506
497
492
486
488
490
496
504
501
493
490
495
496
490
478
471
468
460
455
452
449
449
450
461
467
461
453
455
453
448
449
451
453
454
451
447
448
456
459
457
458
463
466
460
448
443
445
448
447
449
457
461
466
467
465
460
456
459
463
463
452
450
457
458
462
469
463
464
463
469
468
463
458
462
465
463
454
449
451
456
460
455
454
454
462
462
459
459
457
458
454
452
449
448
452
448
444
442
440
432
433
453
484
515
545
574
613
649
685
720
752
787
820
841
870
896
916
933
941
947
946
957
965
959
929
875
802
730
669
614
552
483
421
356
289
223
168
112
67
36
17
17
17
17
17
22
54
87
111
124
149
178
209
224
233
236
241
256
278
286
290
304
323
339
348
359
367
376
387
401
417
429
436
443
453
465
479
491
500
506
510
506
506
515
525
528
526
534
536
539
539
539
537
534
536
532
523
514
518
526
530
538
548
562
572
574
569
555
548
546
547
544
544
545
550
556
565
574
576
572
568
572
575
579
580
576
572
571
575
577
578
578
576
574
566
560
557
559
564
560
556
554
559
561
564
566
569
569
570
568
568
573
575
577
576
573
573
575
571
564
562
564
570
586
596
601
602
601
597
594
604
607
607
603
611
621
628
632
627
628
633
648
660
656
647
633
623
623
636
650
658
663
665
665
666
665
659
658
653
656
654
649
653
662
663
665
660
660
667
672
675
673
672
673
661
649
640
635
639
639
629
630
634
639
648
657
655
645
638
635
631
628
622
615
606
597
591
589
587
584
583
578
575
573
562
552
544
542
543
541
532
515
504
501
499
492
476
467
469
472
468
460
453
449
445
440
438
433
421
406
399
396
394
398
394
384
375
371
372
376
379
379
376
375
376
377
382
383
381
385
387
382
369
354
349
351
356
356
361
365
378
385
384
377
375
381
379
379
381
388
390
386
386
386
380
372
365
368
382
395
396
390
391
395
397
399
402
399
394
391
394
397
394
392
380
387
404
414
415
415
421
421
422
419
418
410
405
401
400
402
414
421
426
427
424
423
424
426
426
429
429
425
430
433
432
433
435
439
447
448
442
439
444
447
444
442
443
440
446
449
441
437
435
436
435
439
444
447
453
458
462
460
462
462
461
457
453
448
446
449
454
455
459
462
464
465
462
467
464
464
466
468
464
461
461
464
465
465
463
462
463
460
458
459
462
458
455
460
465
466
469
471
473
472
468
471
475
478
472
464
459
459
470
480
484
484
480
480
486
488
491
496
503
509
508
500
496
491
477
468
461
467
482
489
488
492
496
496
500
502
509
525
540
540
529
522
522
518
517
518
515
514
515
515
521
525
524
516
508
505
503
501
500
499
503
505
502
501
498
492
484
475
469
466
464
478
489
492
496
499
500
507
503
498
492
488
484
479
465
459
457
449
441
436
433
436
444
438
434
436
440
453
459
456
461
463
460
452
453
454
452
450
450
444
440
438
441
444
448
451
455
452
450
451
450
445
439
443
448
450
453
455
456
458
461
453
442
435
433
427
425
435
442
449
456
457
454
452
453
457
457
458
460
463
462
463
470
463
459
453
448
445
445
446
443
444
442
443
437
435
434
440
460
489
519
555
598
642
683
717
748
783
811
836
855
870
885
901
926
943
957
972
978
987
987
973
933
866
772
686
615
558
501
433
364
286
212
133
62
17
17
17
17
17
17
17
17
27
68
102
126
151
174
182
189
206
226
241
250
259
272
288
297
310
329
350
364
376
388
397
401
415
439
458
467
471
484
501
513
518
523
523
524
529
532
535
538
535
540
552
547
539
546
552
551
551
551
547
525
511
522
529
534
544
547
548
552
557
556
548
549
539
531
531
531
533
543
545
544
549
549
555
561
565
561
558
550
546
556
556
555
553
558
567
563
559
560
562
562
559
562
560
565
565
564
563
558
561
568
562
565
562
554
560
568
575
577
573
574
573
574
577
581
581
588
594
595
600
606
608
606
605
603
608
605
598
600
602
610
615
616
616
622
625
625
630
641
647
650
654
652
639
627
627
632
636
624
628
637
649
657
659
654
648
649
651
654
660
661
659
658
657
655
650
646
645
651
653
650
644
637
634
637
639
642
641
635
626
623
627
628
617
609
606
609
607
602
600
599
593
582
574
565
561
557
552
546
536
532
532
534
531
524
506
497
495
489
489
487
477
460
457
457
446
435
434
427
421
420
417
411
405
400
397
398
404
406
398
390
385
380
373
372
371
365
361
357
361
361
360
365
369
369
369
367
363
367
374
378
371
368
367
366
365
361
361
365
366
375
380
383
387
392
397
400
394
384
386
387
392
389
383
385
388
395
398
400
397
399
397
396
397
397
399
396
398
406
410
406
398
397
395
393
396
406
419
420
415
414
416
413
407
403
403
410
421
419
418
425
426
430
429
431
435
436
438
444
439
439
449
458
458
455
457
452
449
429
424
428
426
428
429
434
437
440
445
446
442
441
438
442
447
447
448
445
446
453
457
461
469
468
460
455
451
447
451
453
454
451
452
457
463
453
442
438
445
462
469
473
471
463
462
461
452
447
446
446
454
459
459
455
457
462
469
478
475
471
469
468
469
467
462
454
465
481
482
485
491
496
491
493
494
500
507
503
507
509
502
504
498
491
482
481
475
471
473
476
473
474
473
471
474
478
484
489
500
509
520
523
521
513
514
513
504
496
495
496
500
510
507
501
496
496
505
512
511
497
496
503
501
499
502
510
513
510
513
504
498
499
501
505
501
494
490
484
480
481
484
487
485
483
481
479
475
469
458
457
458
451
445
445
443
445
450
449
444
439
437
439
443
438
437
436
433
439
443
444
443
440
439
445
448
456
462
462
461
463
463
457
453
449
445
448
454
458
454
437
428
431
442
447
450
458
460
456
453
450
453
453
454
449
445
447
453
459
459
458
454
454
455
454
455
459
463
466
467
471
469
461
448
435
437
444
447
450
454
456
454
449
451
469
489
520
558
595
631
666
704
741
774
807
844
875
898
920
939
956
973
988
989
989
989
989
989
983
899
796
709
631
559
483
412
344
272
197
107
34
17
17
17
17
17
17
17
17
17
50
80
110
135
159
181
196
208
226
242
251
255
270
285
293
299
305
321
353
385
400
419
442
459
473
483
490
497
502
504
502
494
498
501
499
500
514
533
543
541
543
545
548
554
558
558
546
537
536
539
543
544
542
534
534
540
545
550
549
546
553
554
556
555
548
548
548
543
543
543
544
548
554
558
555
558
553
554
555
555
555
555
553
549
553
557
558
563
570
566
556
556
554
552
559
560
560
558
560
563
563
564
562
562
569
575
575
574
572
571
575
585
591
590
589
577
578
576
578
577
573
571
566
567
563
572
578
585
601
612
618
619
624
623
620
622
615
615
628
641
651
657
659
660
656
651
647
653
667
676
681
685
685
680
677
672
669
670
668
662
661
662
663
659
668
674
672
668
657
651
648
647
648
648
653
656
656
647
636
632
632
629
626
626
619
607
602
606
605
600
596
598
597
593
590
587
578
573
561
550
538
531
531
526
516
508
497
480
475
476
483
485
482
474
466
455
448
441
430
424
417
415
413
409
405
403
400
399
398
396
398
397
394
393
385
382
386
395
396
391
380
368
369
369
373
381
389
387
379
369
360
361
365
369
380
385
384
383
383
389
390
382
375
379
386
378
368
380
395
404
405
404
398
391
386
385
386
387
383
387
396
404
407
400
399
399
401
402
407
417
418
411
411
413
417
421
419
416
416
416
414
413
413
410
417
428
430
431
436
442
440
433
429
430
431
430
430
425
419
429
445
449
438
435
433
429
425
427
434
444
453
456
456
457
464
462
457
454
455
455
457
449
447
451
460
471
460
454
448
439
441
445
453
456
461
470
471
463
464
460
456
454
455
462
472
477
476
469
456
451
453
462
465
469
475
475
474
475
481
483
474
465
462
460
467
478
479
478
475
465
460
458
469
476
483
481
481
467
459
467
481
487
487
482
477
477
478
467
457
452
452
454
459
471
478
486
492
491
492
492
491
491
491
481
464
454
458
462
471
473
472
474
483
500
508
512
502
489
479
478
470
462
462
464
468
474
476
488
496
494
489
489
491
501
508
516
523
526
528
533
535
531
524
521
515
518
519
518
509
508
513
514
520
528
526
527
528
519
511
512
523
522
518
515
520
516
513
513
514
514
509
509
507
504
504
503
504
508
503
495
488
485
485
480
470
460
453
452
449
450
452
464
475
478
481
482
480
467
449
442
439
439
444
444
445
447
437
445
458
461
469
467
462
460
461
468
475
475
466
467
465
470
472
468
456
451
450
449
454
456
457
457
460
467
467
472
468
459
460
475
475
476
480
474
471
474
469
464
463
457
457
458
459
455
461
458
455
457
447
442
440
450
462
463
455
454
463
478
496
518
548
576
603
633
667
714
760
799
835
868
896
911
932
949
973
990
990
989
989
989
989
990
957
873
761
676
619
575
510
438
364
297
213
127
60
17
17
17
17
17
17
17
17
42
74
103
134
161
181
195
215
233
239
246
258
270
283
293
311
332
350
368
388
407
421
422
431
451
463
467
475
481
489
495
501
510
515
513
521
523
532
536
537
544
550
554
558
551
548
543
546
557
569
567
562
554
548
549
553
558
552
549
552
548
545
549
554
539
526
519
523
531
540
546
553
564
567
562
559
561
561
565
571
566
565
564
566
566
565
561
567
566
565
566
567
571
571
572
571
578
583
580
581
578
578
575
571
583
582
584
571
571
575
577
580
582
584
588
597
607
607
600
598
600
605
608
612
612
615
618
619
627
628
617
615
621
622
618
627
635
636
635
633
641
648
651
659
662
666
669
656
640
631
639
643
648
652
654
661
665
667
672
678
675
662
653
649
638
637
641
650
650
652
648
637
639
644
651
653
653
651
646
645
646
652
653
645
645
643
635
627
614
612
610
603
596
592
588
583
583
580
570
565
567
558
545
540
537
532
526
512
507
505
506
500
492
487
483
474
469
467
462
450
441
434
432
433
433
438
433
430
423
409
399
387
381
379
376
379
381
384
384
382
373
375
376
378
379
383
383
384
386
378
368
360
361
366
370
382
386
383
386
383
388
397
402
401
393
391
397
396
390
382
380
380
378
387
402
404
405
404
406
407
407
408
401
401
403
408
418
422
417
422
422
414
413
416
421
423
417
414
415
421
428
431
423
415
417
419
423
425
418
413
416
422
423
422
428
434
431
433
441
447
453
460
459
456
457
461
451
441
437
439
436
437
437
432
436
442
443
443
445
442
447
446
451
455
459
460
466
473
470
468
468
470
476
473
464
464
461
452
458
470
470
471
472
472
465
465
472
477
473
466
461
464
461
460
466
471
466
468
465
470
471
467
466
465
459
458
471
484
484
480
472
459
457
463
472
468
472
482
484
490
489
479
468
476
481
481
478
481
474
472
473
479
485
496
501
496
496
494
492
496
494
491
491
496
505
504
511
505
502
512
528
537
529
530
527
528
523
517
512
505
501
502
495
495
494
502
514
519
517
510
504
508
509
502
500
494
497
500
497
490
488
496
501
498
493
498
496
488
492
491
487
481
478
479
478
474
467
460
448
444
445
446
442
440
438
433
433
437
440
445
449
451
450
449
449
450
456
459
455
447
444
443
448
454
461
460
464
463
460
463
464
461
454
445
436
429
438
456
468
461
461
466
465
468
465
459
447
438
433
430
433
437
437
436
435
437
439
443
447
451
455
454
458
457
459
462
468
456
446
441
436
438
442
443
439
436
439
444
443
447
449
455
470
491
523
560
592
624
655
694
733
772
799
826
847
874
902
920
934
945
954
960
966
962
937
888
819
738
665
605
544
478
421
369
312
240
175
114
69
30
17
17
17
17
17
17
22
41
66
95
124
161
189
207
223
233
235
241
263
290
307
312
318
326
336
350
366
380
392
406
419
437
451
471
483
484
488
491
494
491
492
491
498
500
504
521
533
534
537
537
533
532
532
538
542
537
530
529
526
533
534
534
533
531
539
547
552
558
553
546
543
546
547
545
549
552
554
555
547
543
547
549
545
537
529
533
537
540
541
540
546
549
542
536
535
542
544
556
566
564
563
561
564
565
563
564
565
561
559
561
558
557
553
551
553
556
558
563
568
568
565
570
573
570
570
578
583
584
579
583
594
601
605
607
605
601
598
595
597
603
601
601
602
608
613
616
611
613
613
616
617
621
622
621
623
624
626
635
646
649
645
643
641
643
649
651
646
640
641
648
655
654
649
642
640
638
643
645
648
653
653
645
635
626
627
629
626
614
608
603
596
593
589
578
570
569
566
567
564
558
554
560
561
555
548
535
524
518
507
494
490
492
486
477
473
463
457
451
447
442
438
433
426
416
405
398
391
384
374
372
379
385
386
385
378
368
358
355
351
350
352
346
345
344
342
342
342
340
338
334
331
331
336
345
352
351
346
342
344
352
359
359
352
348
351
355
357
361
368
372
362
355
347
339
339
346
352
359
363
362
365
376
372
366
371
370
368
361
356
362
372
375
370
365
367
371
373
376
378
379
375
371
372
376
380
383
387
391
395
395
392
384
375
376
383
386
383
380
384
391
402
405
399
391
391
399
403
405
406
405
399
395
394
391
398
408
413
414
414
412
419
426
428
420
413
409
406
405
405
406
405
417
428
422
419
425
420
415
415
416
415
410
414
415
411
404
407
410
411
417
424
426
425
429
428
431
426
427
435
436
434
433
431
429
429
426
425
425
428
430
429
428
424
423
423
432
437
436
435
433
438
433
429
432
435
437
440
438
437
438
433
439
442
449
455
451
440
433
426
422
427
438
445
444
439
440
444
450
454
456
456
471
488
491
486
487
489
490
489
482
480
473
464
459
466
467
464
463
463
466
469
464
459
457
456
463
469
457
450
452
457
459
456
448
437
430
428
431
433
438
442
452
461
465
466
463
457
451
446
445
440
438
430
421
407
399
395
392
391
397
397
394
394
388
391
399
403
406
402
402
402
400
398
401
403
405
408
407
402
407
412
410
405
408
407
409
415
418
417
415
417
413
414
414
412
412
410
413
411
404
401
400
401
404
409
413
408
398
398
409
414
415
418
425
422
412
407
406
412
416
425
434
419
398
388
379
374
385
386
385
380
377
377
384
397
412
432
461
486
509
545
592
621
633
663
720
761
774
765
791
850
864
867
864
868
880
894
899
891
864
809
736
658
598
547
490
425
358
292
222
136
52
17
17
17
17
17
17
17
17
17
17
21
44
72
110
143
159
160
168
183
199
218
233
247
259
270
278
291
303
324
342
353
363
377
401
420
432
441
447
453
456
462
463
462
469
465
463
464
469
477
490
493
499
501
494
490
490
487
479
473
470
472
475
475
480
486
488
489
494
497
501
509
509
508
508
507
501
498
495
499
501
506
512
511
510
506
504
504
501
495
494
497
499
492
498
508
510
505
503
508
508
507
505
508
508
504
513
522
527
525
522
519
519
525
523
514
513
515
514
515
525
532
532
535
535
536
537
534
534
538
544
548
555
555
555
556
554
553
553
555
555
556
556
559
562
568
567
566
566
567
570
579
587
592
593
591
587
586
589
598
601
602
607
608
611
603
597
597
597
600
600
599
596
595
601
606
599
591
588
587
588
592
597
602
600
594
584
576
576
570
564
565
565
563
563
562
560
557
560
559
549
539
536
530
526
520
516
508
501
502
498
488
478
475
471
461
458
451
445
436
421
404
392
389
393
389
392
391
383
374
370
364
359
355
350
347
348
348
344
342
339
340
341
339
333
324
319
316
316
316
315
318
321
321
324
326
322
314
317
327
332
332
328
324
322
327
330
326
322
325
319
317
317
319
322
324
325
330
328
327
330
336
338
337
352
359
354
349
352
357
354
354
350
342
335
335
342
353
351
352
359
364
366
371
366
364
363
359
361
359
362
357
358
360
363
371
375
371
369
374
373
371
377
376
370
370
380
389
392
394
393
393
392
394
394
388
384
385
400
418
414
410
411
410
401
393
386
388
394
402
406
401
398
396
403
414
418
410
401
402
405
407
409
410
412
415
415
411
408
406
397
391
407
420
426
422
418
413
413
419
414
414
423
422
416
407
405
413
420
420
424
424
417
414
416
427
436
437
436
434
430
429
428
426
424
431
437
438
440
440
442
445
443
441
439
437
436
437
441
440
429
417
413
420
430
437
443
441
446
455
467
472
463
456
462
471
481
487
489
496
493
488
485
482
474
470
467
468
462
459
460
468
469
466
471
473
470
471
470
474
483
487
483
473
465
459
452
440
433
438
441
435
433
436
447
459
467
454
449
451
452
451
446
437
424
414
415
418
419
414
415
414
413
416
416
414
410
411
415
418
420
423
419
421
431
428
422
417
418
415
409
404
402
403
410
421
420
412
415
422
426
427
420
414
414
420
418
416
419
421
414
408
412
426
433
436
440
446
443
446
442
435
431
426
426
425
431
427
429
430
426
424
413
409
412
420
430
439
439
433
407
404
418
423
415
418
425
431
449
478
507
531
575
627
660
692
723
756
790
823
857
888
910
924
938
947
961
975
990
990
990
973
933
857
760
676
607
544
473
400
321
239
158
60
17
17
18
17
17
17
17
17
17
17
24
61
95
128
149
164
180
200
211
224
238
248
263
283
299
318
326
329
343
358
377
402
421
430
437
449
465
479
485
484
478
485
500
509
509
509
516
508
506
510
515
524
521
520
513
515
518
519
524
521
518
518
523
530
520
523
525
525
530
537
546
536
519
513
512
516
526
530
527
527
522
531
536
534
533
535
541
545
551
558
557
555
555
553
553
551
550
552
552
555
554
557
563
555
548
558
558
546
544
549
556
560
564
568
562
564
571
574
578
583
588
582
578
575
573
568
563
563
573
581
583
578
583
587
594
599
607
605
607
607
602
601
608
615
615
608
611
624
647
650
633
616
612
615
618
622
627
634
641
647
644
641
644
642
644
641
646
652
657
661
656
657
664
668
658
651
641
636
636
639
647
635
622
631
636
641
647
642
637
632
618
616
614
618
615
625
619
608
603
596
589
581
582
595
586
570
563
559
552
543
534
526
521
510
506
502
493
476
471
467
472
462
451
444
440
443
441
429
424
422
418
405
390
384
379
372
363
364
369
367
373
377
378
370
367
365
363
360
358
358
361
366
375
369
364
363
364
364
355
348
345
357
362
362
367
382
390
381
371
363
358
360
365
370
384
390
384
377
376
376
382
385
386
388
397
401
403
396
386
379
380
390
399
402
399
391
395
402
400
400
404
397
392
393
400
406
412
412
405
408
415
411
405
408
411
420
428
429
421
412
408
407
415
420
424
427
426
424
424
431
435
431
420
414
421
430
435
435
432
433
439
436
426
428
439
450
455
449
444
441
441
443
445
445
441
444
450
451
448
444
447
447
450
449
454
461
454
449
447
453
455
457
456
448
451
458
458
462
460
453
452
456
454
449
451
461
470
466
465
459
456
456
455
453
449
450
457
454
452
459
463
468
464
458
461
456
445
444
451
455
460
456
457
464
471
476
463
455
458
457
456
454
460
473
478
474
470
465
462
464
469
469
471
469
466
460
459
465
472
482
487
494
494
490
486
480
466
460
456
459
470
479
485
492
493
481
482
484
485
482
478
480
478
475
481
487
479
475
482
487
493
500
510
524
531
539
539
533
529
526
530
527
516
520
527
528
523
515
512
522
516
505
507
520
526
528
524
525
525
523
524
529
525
513
504
503
504
503
499
498
496
500
501
497
496
497
492
489
486
484
490
486
484
480
469
460
456
451
455
464
470
475
479
465
457
450
442
438
436
441
446
445
447
447
443
441
445
458
462
456
450
449
446
444
439
442
440
437
441
449
448
447
447
452
451
454
458
462
467
470
466
461
462
463
462
462
467
463
463
459
462
469
470
460
453
449
444
447
453
460
465
470
476
480
476
465
451
448
438
433
432
433
439
441
439
446
461
484
514
545
580
624
670
705
739
775
820
860
887
913
930
955
973
989
989
989
989
989
988
989
989
990
911
805
711
641
576
500
419
348
272
178
88
22
17
17
17
17
17
17
17
17
17
32
71
107
134
150
166
185
195
208
226
236
249
269
298
323
331
340
352
373
394
411
420
434
459
476
481
483
487
498
512
523
532
535
531
530
527
521
518
523
529
533
536
538
539
540
545
547
556
558
559
555
546
540
535
536
541
545
549
555
564
568
564
564
564
565
569
567
562
566
565
563
558
559
561
562
564
568
570
568
561
554
557
565
570
573
575
576
570
568
572
574
573
574
578
584
581
578
577
576
579
583
584
584
588
593
597
597
594
588
584
590
593
590
588
587
591
593
597
604
595
589
593
606
614
615
622
628
629
634
643
643
634
634
635
640
648
651
648
651
654
652
653
655
658
659
663
665
667
673
670
667
668
669
667
662
671
675
674
677
677
677
677
677
680
674
673
678
673
668
656
645
644
642
650
653
650
646
645
649
646
650
654
653
651
649
643
642
640
633
622
617
612
614
604
588
580
581
581
576
572
565
554
552
553
545
543
532
523
514
509
506
501
492
485
483
476
469
464
452
446
446
448
438
425
423
427
430
417
401
394
392
394
391
389
389
393
395
390
384
381
385
388
387
384
381
380
388
394
394
388
385
386
384
380
373
365
368
372
372
380
385
386
386
389
394
399
398
396
390
385
388
399
408
404
408
415
410
398
389
394
405
410
413
414
409
412
415
419
417
414
412
415
424
433
436
433
429
426
427
427
427
433
439
447
452
452
449
446
445
441
441
448
461
456
446
451
449
440
432
426
432
439
439
447
457
455
457
460
456
448
454
457
459
462
459
452
451
455
451
452
455
460
462
465
471
470
472
477
480
471
466
467
475
473
464
468
472
471
477
475
474
474
476
482
475
452
457
471
480
479
474
467
473
481
478
473
469
471
478
485
491
486
486
488
475
473
478
482
494
500
494
490
488
480
480
480
478
474
471
466
467
470
478
488
494
494
492
493
480
471
466
471
476
480
485
486
491
494
494
498
488
487
495
494
492
498
506
511
509
501
500
496
502
502
497
490
494
509
518
518
523
531
537
538
540
544
548
540
530
537
540
537
535
532
525
518
513
508
510
528
533
531
531
528
512
505
505
521
533
537
543
540
530
523
524
520
516
511
506
510
511
506
505
511
523
517
510
504
500
503
503
499
492
490
482
477
476
474
471
470
472
477
482
476
468
461
458
465
464
461
463
468
471
475
476
476
477
482
481
469
457
461
464
461
461
468
476
475
478
479
472
472
478
472
475
477
473
474
470
461
462
460
467
476
479
471
467
465
464
471
476
480
478
482
487
485
477
474
469
463
460
461
465
469
474
466
455
451
449
453
459
463
463
464
467
466
477
499
527
548
571
608
649
685
723
769
804
832
857
884
910
942
960
965
981
990
989
989
990
990
982
928
840
748
664
604
544
480
414
352
289
213
149
94
54
23
17
17
17
17
17
24
58
84
106
119
153
184
209
227
240
252
263
271
278
292
312
333
352
366
381
392
402
411
422
439
454
470
487
501
507
508
514
517
520
522
527
540
548
554
559
559
552
549
553
560
565
562
562
556
554
564
566
553
549
553
561
564
568
570
568
566
567
571
578
585
589
593
594
588
581
573
579
587
587
584
579
582
590
592
584
577
578
580
582
587
587
589
588
591
590
586
586
589
587
590
593
592
590
590
590
587
585
585
587
583
579
586
591
590
587
585
589
595
596
593
595
601
605
609
610
610
612
624
632
638
644
644
653
661
647
626
612
619
632
640
641
633
638
649
655
659
663
669
672
675
671
668
664
668
672
673
671
665
665
668
675
675
673
679
684
691
691
691
688
684
679
680
689
695
690
676
670
667
674
678
670
666
671
676
679
663
646
643
639
637
637
640
644
643
639
624
611
604
598
594
590
585
585
582
570
564
558
557
556
552
547
541
525
509
498
490
484
483
483
491
494
499
496
487
469
454
446
432
417
413
414
420
426
421
410
404
406
399
395
391
393
397
400
403
399
397
396
399
401
402
402
398
390
389
390
388
386
386
389
394
395
394
398
399
393
395
399
398
396
398
399
405
411
410
409
405
408
411
417
421
415
411
402
392
383
383
389
399
405
415
424
433
436
427
420
417
421
422
428
434
439
429
418
417
421
430
432
430
435
438
430
429
433
441
446
442
439
436
447
453
446
445
450
452
452
455
454
455
462
472
477
474
466
462
452
451
457
459
457
452
452
458
458
456
463
466
467
463
466
462
460
464
465
471
468
458
450
448
456
464
477
480
479
476
478
483
488
491
494
494
493
481
474
475
477
469
459
455
454
455
460
459
458
463
470
477
473
472
477
482
482
486
492
491
489
486
488
491
488
485
491
494
486
478
476
477
480
486
489
491
493
491
487
490
497
507
507
500
496
491
495
503
507
503
498
492
484
486
489
484
480
481
492
506
514
523
523
520
529
543
550
544
540
544
544
541
539
540
536
529
524
518
516
513
513
511
508
504
501
505
513
513
509
508
513
518
518
521
522
524
527
524
515
508
505
500
496
496
498
502
503
497
499
504
501
499
494
485
479
476
465
460
461
462
470
475
469
465
462
460
461
460
466
472
474
477
470
473
462
459
462
463
466
462
455
454
458
459
465
471
469
465
461
460
453
456
457
460
456
456
457
460
462
460
463
461
453
450
454
463
471
475
474
476
473
468
465
465
468
470
473
478
478
476
471
468
463
462
461
462
464
466
473
472
463
455
451
456
458
460
464
475
493
513
541
569
600
634
670
703
739
780
808
827
845
872
900
920
936
949
961
969
984
990
979
942
887
810
732
670
614
552
489
424
351
276
190
107
40
17
17
17
17
17
17
17
17
34
71
97
121
146
168
191
210
233
246
249
264
280
292
312
331
347
357
361
367
379
394
406
422
448
471
480
484
492
503
510
514
522
529
538
550
553
557
559
564
565
567
564
556
555
557
558
558
561
566
568
571
566
560
558
562
568
568
562
558
556
561
566
568
573
584
587
585
577
569
564
555
550
557
558
555
554
558
563
568
566
561
560
562
569
575
574
574
574
575
581
580
582
584
587
592
597
602
598
593
592
591
585
577
585
593
586
581
578
581
587
593
598
593
590
600
601
600
598
602
611
618
611
608
606
610
619
622
623
627
637
643
642
634
631
633
636
637
641
645
644
647
651
651
647
649
656
664
664
664
671
673
671
668
671
674
665
662
666
667
664
661
665
674
679
680
680
676
674
673
672
673
671
661
647
637
636
645
649
650
647
637
633
630
623
614
610
607
598
598
601
603
601
601
601
597
591
586
576
567
556
548
542
536
525
518
516
511
504
497
487
480
477
469
458
451
442
439
438
433
425
424
425
421
419
417
413
412
406
395
385
380
383
386
385
382
372
370
370
370
374
383
387
393
393
385
377
374
368
367
373
380
388
388
392
391
386
383
384
387
390
387
384
382
386
388
387
390
391
386
389
392
392
392
400
408
412
411
408
406
413
417
414
408
398
392
397
401
406
408
416
421
408
401
398
398
405
407
412
423
428
434
434
428
433
435
443
454
452
446
440
440
443
442
434
426
424
429
434
437
439
443
443
439
438
439
439
442
442
443
445
446
446
445
449
456
453
452
454
457
457
458
459
462
465
464
454
453
458
461
463
462
456
450
450
459
465
470
470
472
475
473
469
466
459
452
452
458
459
458
467
476
472
468
465
466
470
472
468
460
460
465
467
467
471
476
477
478
473
471
468
469
469
470
474
479
475
469
464
459
463
474
481
480
480
496
503
500
493
487
487
491
493
485
478
477
483
490
493
485
477
474
474
473
475
478
484
498
515
521
516
507
509
516
522
525
524
528
526
526
524
519
512
513
510
506
502
508
511
517
524
527
526
521
506
509
513
513
514
511
506
496
488
490
488
482
483
496
500
503
502
503
505
494
486
486
491
491
482
474
473
475
476
468
466
471
469
462
453
448
440
440
448
453
460
471
475
469
466
462
454
452
458
461
457
450
451
452
456
461
459
459
451
451
458
464
458
455
451
448
447
448
453
455
453
455
455
456
459
460
459
460
453
444
447
451
450
454
457
459
462
465
466
461
455
452
454
456
458
456
457
460
464
462
463
464
467
465
465
467
467
460
457
457
465
485
509
538
570
609
651
691
725
759
799
832
862
885
910
939
966
983
990
989
990
989
989
990
977
925
850
763
678
612
554
483
409
342
275
189
91
19
17
17
17
18
18
17
17
17
19
57
91
123
147
165
186
208
223
235
246
261
286
313
322
321
324
328
335
355
379
406
418
423
435
453
465
478
491
501
512
515
514
516
522
529
533
537
542
547
550
549
549
548
542
541
541
542
544
551
544
531
530
537
549
558
556
548
544
542
544
540
533
538
546
553
559
562
568
576
576
569
564
555
553
560
569
571
570
570
571
572
576
583
582
572
555
552
552
557
563
563
562
562
563
570
576
576
571
569
573
577
572
567
572
579
585
587
585
571
574
580
585
588
592
600
605
610
608
604
603
602
600
602
605
606
605
608
609
608
619
629
632
631
629
635
644
648
643
639
638
645
652
649
647
652
661
669
671
668
665
659
653
645
645
641
639
643
643
645
651
654
653
655
662
670
670
664
663
666
672
674
670
660
650
650
650
641
639
639
646
644
640
639
636
626
615
601
599
598
600
597
600
595
587
575
566
560
556
556
551
539
534
535
530
526
521
511
503
492
483
483
478
466
460
447
442
444
443
438
426
412
410
415
414
409
400
397
408
416
414
404
397
383
384
387
378
376
376
375
375
375
377
380
379
379
383
375
362
356
353
352
358
364
370
374
374
373
378
385
384
381
378
370
365
370
379
387
391
385
383
385
385
392
390
384
382
387
394
397
399
404
404
400
399
401
407
411
414
416
415
416
415
413
411
406
412
418
416
415
420
424
427
434
433
430
426
420
417
417
420
424
427
428
423
422
422
420
420
426
432
437
440
445
447
442
442
444
449
453
457
458
461
460
450
444
447
452
450
450
447
449
451
446
445
453
458
455
453
456
454
452
452
448
440
441
452
452
452
454
456
463
459
456
455
457
464
465
465
467
464
458
448
442
446
451
455
458
459
464
469
482
483
470
461
464
470
474
468
465
459
456
459
460
462
469
474
478
478
477
476
472
464
462
458
457
458
457
460
461
465
465
462
461
461
468
470
466
467
475
476
475
469
463
456
456
463
474
481
479
479
484
488
495
493
494
489
484
486
493
488
482
486
485
482
481
479
472
475
477
479
490
503
508
508
509
513
518
520
524
528
532
526
523
528
532
525
513
508
509
507
505
507
510
509
514
522
529
532
538
539
530
525
514
505
495
489
492
497
506
505
503
501
496
489
478
475
481
498
505
504
500
499
498
490
477
468
460
454
446
445
446
450
453
459
455
453
456
457
452
450
450
443
434
436
439
440
443
437
439
449
459
465
468
463
454
452
448
447
452
458
462
456
450
447
455
456
455
453
449
449
453
459
459
457
459
463
463
463
460
459
459
457
456
447
443
440
441
449
463
465
468
472
471
468
462
455
442
434
423
416
419
424
426
431
437
448
457
464
485
517
549
581
614
645
684
724
758
793
830
864
897
920
951
975
988
990
990
989
989
989
989
989
968
887
789
701
625
564
496
414
331
258
174
74
17
17
17
17
17
17
17
17
17
17
36
82
119
151
171
179
190
200
216
230
245
265
283
288
301
315
330
348
370
390
401
416
430
443
450
455
465
484
501
507
510
509
509
516
525
530
534
538
548
551
549
552
550
540
521
517
521
528
535
544
549
547
546
551
557
552
552
551
548
547
552
558
564
559
558
556
557
560
565
565
560
558
555
549
550
559
566
565
560
554
550
544
542
550
557
560
560
563
554
563
569
571
572
573
573
567
570
578
581
577
577
575
570
570
577
590
599
598
588
589
588
598
602
598
596
598
601
596
593
592
596
606
613
614
610
611
617
623
620
607
604
614
626
638
640
645
644
633
625
625
630
634
641
647
656
667
668
663
664
663
659
657
655
659
662
656
648
642
643
645
656
667
668
662
658
666
675
674
669
667
667
664
659
654
649
648
652
653
651
649
647
644
638
632
625
616
612
612
610
608
609
611
605
596
586
580
578
577
572
566
555
543
539
522
513
510
506
500
492
490
489
483
472
461
450
449
446
444
438
430
422
417
414
417
414
407
408
401
392
381
377
380
390
395
395
397
394
394
398
393
389
379
370
368
367
363
358
361
367
380
384
383
379
372
366
360
358
358
372
384
389
386
386
383
379
379
382
383
384
381
386
396
397
403
406
405
412
413
413
411
407
403
396
393
390
395
401
408
416
420
417
412
402
395
395
397
408
413
416
416
418
421
431
441
446
437
430
423
419
423
427
426
417
414
407
410
417
419
420
432
443
443
442
440
445
443
436
432
431
421
420
422
422
431
441
449
447
451
460
467
468
467
470
464
461
461
461
453
452
452
459
460
461
463
468
467
463
461
464
460
453
458
473
476
468
462
464
467
466
459
463
464
465
471
475
473
476
475
470
469
462
466
473
469
467
464
465
468
459
456
458
465
458
458
474
480
478
466
457
456
456
457
458
455
458
457
463
467
469
474
475
471
473
483
479
464
455
458
460
459
461
464
467
462
460
467
472
474
471
474
477
488
488
477
477
486
492
501
501
494
487
484
484
481
482
491
495
493
492
494
496
496
500
511
513
514
519
526
537
540
526
529
524
521
518
518
513
508
499
495
497
499
503
504
514
519
521
517
508
512
514
517
519
520
516
510
507
505
507
509
508
505
500
499
495
483
476
482
480
480
489
495
494
495
490
481
466
453
447
447
447
447
443
437
443
452
451
454
453
449
448
453
458
461
460
454
450
448
450
454
456
459
459
462
463
459
463
464
464
471
473
465
462
457
453
448
443
440
441
447
449
451
455
460
465
472
475
474
468
463
454
455
456
458
464
464
460
457
466
467
466
458
449
446
445
452
455
452
448
441
435
433
434
444
447
443
443
448
461
484
518
542
572
614
653
684
715
744
780
815
848
869
887
911
933
948
962
980
987
990
989
989
990
950
860
753
667
602
532
464
398
329
261
183
114
63
18
17
17
17
17
17
17
17
20
52
88
115
144
167
189
201
215
225
235
248
274
292
305
318
325
333
349
363
381
400
420
439
457
457
452
460
476
484
488
497
505
514
527
533
538
541
546
548
546
541
533
537
546
546
535
532
532
530
535
542
549
553
561
559
561
558
545
541
543
536
547
548
543
544
543
541
554
567
566
560
554
551
556
562
575
580
586
588
575
573
569
554
552
561
564
567
566
562
562
566
569
566
561
564
561
561
570
575
576
577
584
585
580
577
578
577
577
574
579
581
588
589
596
596
584
580
584
589
599
603
610
614
615
619
625
625
620
623
633
634
622
614
612
619
623
628
625
619
622
634
641
647
647
648
645
648
654
659
666
668
658
656
655
649
655
657
655
654
649
644
654
666
676
670
662
663
668
669
666
668
669
663
651
648
646
640
639
634
634
632
631
631
631
627
616
617
621
620
613
600
592
590
587
577
570
566
568
563
553
540
530
521
514
510
504
494
496
487
477
472
467
456
451
452
454
455
450
450
451
446
441
439
437
428
414
408
408
401
393
390
388
388
392
382
373
371
373
379
375
374
381
387
387
383
382
392
390
376
372
373
371
367
366
364
367
374
385
383
386
389
378
375
374
371
376
377
373
381
392
403
411
407
400
397
401
410
402
389
390
396
392
389
398
398
392
385
389
397
399
404
409
410
412
416
415
414
407
404
409
413
417
425
428
424
430
434
439
438
437
434
426
419
424
441
449
447
444
443
444
444
446
434
432
436
448
456
460
467
455
447
446
447
444
448
454
458
451
447
449
449
450
449
452
452
449
452
463
475
476
472
466
461
460
457
451
451
458
461
468
474
472
468
463
460
456
453
456
463
459
459
452
456
460
459
456
455
457
464
466
469
468
466
460
450
454
465
469
472
474
475
470
466
468
464
465
465
467
469
472
471
468
471
476
472
467
471
476
483
490
493
492
492
488
489
491
497
492
484
483
493
500
499
497
499
503
492
481
483
493
503
514
525
529
529
530
532
530
524
519
517
515
512
508
507
514
510
506
509
512
507
504
505
507
508
510
506
505
504
503
496
493
494
501
498
498
494
489
481
477
482
486
488
497
504
505
501
496
486
477
471
457
446
442
448
450
455
454
453
456
460
461
458
450
451
458
459
456
452
447
444
441
442
436
434
437
444
444
444
448
452
459
453
444
441
440
444
440
447
453
455
462
467
468
474
471
460
454
457
455
456
458
460
462
465
467
465
460
458
461
462
460
460
463
463
462
460
453
446
446
452
458
462
464
461
458
460
459
450
438
435
440
445
457
476
500
516
539
575
611
635
667
703
745
785
814
834
849
869
894
919
938
948
953
955
955
945
901
835
758
687
626
573
514
452
394
330
258
183
127
76
44
17
17
17
17
17
17
17
17
50
73
91
118
153
180
200
217
228
236
246
262
280
301
319
336
356
371
384
394
407
419
429
442
460
476
486
495
498
497
499
508
517
519
519
525
531
533
533
546
560
563
561
552
546
544
543
547
548
553
555
560
561
556
553
556
555
550
545
544
543
545
554
561
563
559
559
562
560
563
563
562
562
560
555
550
551
559
569
576
580
582
579
579
567
555
558
560
564
563
565
574
579
570
559
558
559
565
570
570
570
569
576
582
586
590
588
585
579
571
567
568
579
590
603
601
592
582
586
588
590
595
603
608
611
611
603
607
619
627
623
623
625
631
634
636
634
637
643
648
656
657
654
656
657
659
654
651
655
660
662
659
655
656
655
651
650
665
675
676
670
661
657
654
653
653
655
651
653
655
651
646
634
635
640
642
640
634
624
607
601
612
626
634
634
617
611
607
593
586
589
592
585
574
568
562
557
551
548
540
536
535
533
523
514
503
496
494
487
477
464
455
447
442
437
433
429
425
419
413
406
402
403
403
403
398
391
393
390
383
384
388
390
389
376
365
367
373
374
369
366
366
374
381
381
379
375
370
366
364
359
365
374
372
367
370
367
361
363
365
369
374
379
379
377
378
383
381
384
390
386
382
380
373
373
379
383
388
396
402
402
397
395
394
397
400
402
400
399
404
409
408
412
419
418
417
416
415
418
422
422
421
422
424
426
420
414
409
408
421
437
447
434
430
427
424
418
413
412
415
423
427
432
435
442
445
443
439
436
437
443
447
445
444
446
447
451
452
446
444
443
441
447
456
462
461
457
448
443
452
451
443
434
433
433
434
443
451
456
457
458
456
456
454
458
466
467
469
464
460
461
470
472
469
461
461
454
453
462
463
460
457
459
461
465
472
478
482
481
479
474
473
472
470
467
465
459
452
453
459
467
468
469
472
475
