556
554
558
558
556
561
569
573
570
563
558
559
560
564
566
562
555
552
552
556
559
558
560
564
559
556
550
549
555
559
560
559
559
567
574
582
587
580
577
577
579
580
577
576
570
574
575
582
597
605
608
600
598
595
580
577
578
578
587
592
588
577
576
581
586
586
592
604
626
643
641
632
628
634
643
651
658
663
670
671
659
649
644
626
615
616
616
614
622
628
629
629
629
629
629
626
625
631
630
630
633
642
654
662
656
654
651
658
656
649
648
646
650
655
655
643
641
642
642
640
641
636
632
629
621
615
614
610
606
603
605
609
611
612
607
596
587
588
590
589
581
569
555
543
538
537
533
521
514
512
497
478
466
459
453
446
448
450
448
439
432
429
423
413
409
411
409
411
407
394
388
391
389
385
375
371
370
374
375
367
368
369
366
368
363
361
371
374
368
367
366
368
364
363
359
363
363
356
353
359
367
376
376
370
365
370
385
390
398
396
388
379
376
374
380
387
378
380
383
385
385
382
387
389
387
393
396
396
393
393
405
416
414
412
397
378
384
392
391
394
404
412
412
403
401
407
417
409
426
428
417
409
417
421
421
419
418
419
426
424
420
422
428
435
435
431
434
437
441
438
448
446
439
432
431
436
447
453
451
453
450
437
438
449
459
461
467
458
453
464
462
460
457
453
447
449
450
451
444
439
439
439
444
447
451
451
449
451
452
447
451
450
457
463
467
468
464
450
445
450
452
455
457
464
465
464
473
475
471
467
458
446
445
453
465
471
470
475
479
481
479
475
475
477
473
478
481
473
473
478
481
480
479
474
463
462
475
489
499
506
510
511
509
513
521
534
543
543
540
531
531
529
528
522
520
511
503
497
493
491
494
497
500
502
507
504
501
506
517
518
508
501
504
494
485
494
497
495
498
506
508
510
509
503
493
492
493
493
484
476
476
467
459
461
453
441
441
449
443
441
440
450
444
441
444
441
440
444
445
441
444
442
447
449
455
457
449
447
445
438
440
446
453
444
436
436
431
434
443
450
452
452
441
429
424
426
427
430
429
432
432
439
438
435
437
444
449
449
455
458
458
458
451
443
439
446
449
443
440
442
446
446
446
443
440
435
425
420
421
426
429
441
444
454
472
497
534
558
590
626
671
708
743
780
812
829
853
886
917
928
939
957
981
989
989
989
990
990
937
855
749
655
574
505
438
363
288
220
130
34
17
17
17
17
17
17
17
17
17
17
17
43
73
110
140
160
176
187
205
224
241
260
284
303
315
315
326
351
368
387
405
414
432
451
470
484
489
490
492
498
504
510
519
518
521
529
538
548
545
540
540
547
557
558
551
552
559
565
563
555
550
549
550
551
553
551
551
555
551
546
555
560
561
563
564
566
569
577
577
575
575
579
575
566
567
566
567
565
557
551
555
553
554
561
556
555
558
562
566
571
574
575
575
574
580
581
580
581
587
587
588
584
577
578
581
582
581
581
586
591
585
584
587
591
593
592
599
604
607
605
610
618
617
614
617
617
615
616
621
628
631
640
646
637
626
623
625
629
635
643
648
644
638
632
628
639
648
651
660
662
658
659
655
660
665
663
663
658
658
660
662
666
665
667
657
659
657
653
650
646
649
653
653
651
647
645
637
632
627
624
622
623
625
626
623
616
611
609
608
610
604
588
584
577
577
580
580
574
567
559
555
547
536
530
524
511
498
490
492
497
491
481
477
473
464
456
448
436
426
423
422
417
415
408
399
392
391
383
377
378
379
378
383
386
378
370
366
364
366
363
358
362
366
374
380
386
387
367
353
352
351
353
356
353
358
365
366
368
366
362
352
345
351
358
363
373
377
380
380
380
383
389
393
386
383
382
382
382
383
390
399
401
407
404
395
383
386
397
395
393
395
404
413
418
417
413
421
427
429
422
422
423
425
434
438
439
439
430
425
428
432
434
433
428
420
417
416
417
429
436
444
449
450
442
435
437
431
429
435
441
445
448
449
450
450
450
446
441
437
441
449
451
450
448
453
453
451
454
458
464
467
464
460
457
458
458
452
447
445
445
445
453
460
461
467
470
462
456
453
457
457
447
451
450
449
451
458
469
476
476
471
470
473
473
476
476
480
481
482
489
489
490
487
478
477
480
483
482
488
486
483
484
477
475
482
490
497
495
494
502
508
515
522
529
537
534
539
543
537
523
516
514
515
514
512
506
496
498
501
504
507
514
517
522
525
523
513
509
507
499
500
502
494
496
501
498
493
491
485
473
474
479
485
488
481
477
477
481
485
490
486
482
474
465
452
438
441
435
426
421
421
416
418
425
428
434
428
428
432
434
438
443
435
433
434
440
448
450
450
450
454
450
444
442
443
435
435
439
436
431
436
440
441
437
435
431
426
425
432
436
436
437
443
447
450
451
451
443
440
442
443
444
445
446
445
447
449
449
442
442
445
441
435
439
435
437
433
425
424
422
427
436
438
453
483
511
533
565
608
650
684
717
756
795
828
859
886
908
933
956
974
988
990
989
989
989
989
952
866
757
661
582
507
435
364
294
222
133
34
18
17
17
18
18
18
18
17
17
17
17
29
64
95
126
147
164
181
194
210
222
237
261
289
308
325
337
350
366
377
394
410
431
454
473
483
492
500
517
517
515
520
528
528
528
532
539
540
535
540
544
548
552
549
548
551
557
558
556
556
560
560
561
560
561
560
558
551
546
546
554
560
563
559
562
568
568
565
566
564
565
570
570
573
579
581
579
573
578
580
579
574
570
568
566
569
574
572
569
567
570
574
577
580
581
575
573
575
577
577
577
579
586
595
594
590
585
577
583
589
593
598
601
593
596
595
595
595
595
596
602
600
604
611
618
622
619
619
623
627
627
631
635
635
627
623
626
636
643
643
646
647
650
651
648
649
652
654
657
657
654
659
669
676
668
657
652
655
657
659
665
664
655
650
650
658
659
653
652
652
650
647
647
651
650
646
642
636
634
633
633
634
634
632
631
627
625
619
618
612
605
597
592
583
566
556
552
553
550
542
533
523
507
503
496
490
487
479
474
475
474
469
465
457
443
436
441
437
435
432
420
405
400
401
401
401
396
390
390
387
377
365
361
361
357
356
358
350
354
368
373
363
360
367
359
361
364
367
364
360
364
371
374
373
373
367
367
371
367
363
370
370
367
368
369
373
376
380
378
375
373
371
371
377
382
380
378
381
387
389
391
391
392
393
393
394
395
390
391
397
402
403
407
412
412
409
404
405
411
415
418
417
407
405
407
411
423
430
426
422
419
422
425
428
430
433
434
433
431
431
418
418
423
429
430
434
441
448
449
444
440
438
436
438
442
442
441
445
449
447
440
440
443
442
440
444
443
442
444
446
445
450
455
455
451
452
450
447
448
446
450
454
460
457
459
460
457
455
461
467
468
462
461
461
454
449
442
438
439
446
449
454
457
452
452
456
452
453
458
464
466
462
460
467
472
473
476
473
471
470
469
471
478
476
468
463
466
460
453
451
467
486
496
500
501
510
520
524
526
526
535
538
537
538
542
538
530
527
521
516
510
507
502
505
508
507
497
496
497
497
500
505
506
505
502
506
505
498
497
489
489
493
495
490
489
485
481
483
480
484
485
484
479
470
468
472
470
466
465
463
455
448
433
422
427
429
426
430
440
437
443
440
434
431
439
444
444
445
441
436
432
426
425
424
420
425
435
438
438
434
421
417
418
423
426
428
429
433
442
446
443
441
437
437
439
437
438
442
439
438
439
439
438
434
433
435
445
442
445
446
451
455
448
437
432
433
433
433
426
422
418
420
424
427
426
422
419
419
438
461
483
513
541
576
623
670
705
742
777
809
839
868
892
917
938
948
967
986
989
989
989
989
989
959
878
769
668
585
513
434
352
272
196
112
31
17
17
18
18
18
18
18
17
17
17
17
34
64
91
120
133
148
169
186
205
219
242
269
287
301
313
322
336
359
379
396
415
437
455
464
463
468
478
488
497
502
506
512
522
533
538
541
548
558
561
559
553
548
547
545
545
544
547
557
560
565
575
582
577
574
567
555
546
547
553
549
545
549
550
550
552
558
565
569
574
571
569
571
580
584
587
585
581
565
554
554
561
569
570
567
561
562
561
563
568
571
574
579
580
578
569
569
571
568
575
574
574
579
582
587
589
585
587
588
590
594
592
587
587
593
595
598
598
604
606
606
604
604
607
607
610
614
616
617
620
626
630
625
625
625
627
628
632
634
628
629
633
648
654
651
658
663
666
665
657
652
658
670
679
679
679
679
668
654
653
656
658
655
653
654
655
651
647
647
643
641
637
638
643
638
633
634
638
636
633
622
617
615
618
625
623
612
602
596
596
601
596
591
587
583
579
577
571
556
543
535
530
532
530
524
520
509
495
487
486
484
471
462
458
454
449
441
436
429
421
410
402
399
395
391
383
382
381
386
387
380
369
370
379
383
376
373
375
372
365
357
354
356
363
368
368
371
365
356
355
359
364
362
360
360
356
356
361
368
371
368
366
370
369
367
369
374
382
385
384
386
391
383
373
381
384
381
377
380
389
391
395
395
393
396
400
405
402
404
406
409
414
412
403
403
405
408
410
415
418
420
422
414
415
415
416
415
422
421
415
415
419
422
428
427
422
419
426
426
426
433
438
443
440
436
436
441
446
444
436
435
440
446
451
457
453
447
444
446
442
441
447
450
446
444
442
438
444
447
445
449
462
467
462
457
451
448
449
450
452
449
457
460
456
453
456
455
453
451
449
447
449
448
455
455
456
459
468
472
466
458
456
450
451
454
455
461
460
463
468
473
472
468
461
462
466
467
464
469
468
466
468
475
474
479
483
481
476
478
483
482
479
481
485
490
498
506
510
511
518
517
523
530
530
534
538
532
527
526
524
519
514
508
502
496
494
500
504
500
506
517
520
528
531
521
516
516
517
510
504
501
496
495
488
486
492
491
483
484
487
480
477
474
470
471
470
466
463
463
462
456
451
436
429
428
428
430
431
437
441
440
433
435
443
442
443
445
444
442
444
451
449
436
424
427
430
423
420
427
439
443
439
434
431
433
435
433
437
438
434
439
441
448
454
449
439
435
437
439
435
434
434
423
419
431
437
440
441
442
442
437
437
435
442
453
454
453
446
442
439
436
428
427
425
416
410
414
422
425
421
428
456
487
512
543
582
623
660
687
716
758
797
830
861
893
921
947
965
980
990
990
989
989
989
990
967
887
773
666
580
512
443
374
301
217
129
41
17
17
17
17
17
18
18
17
17
17
17
17
36
70
107
135
157
174
191
203
225
244
260
277
295
312
327
343
364
385
404
419
430
441
452
456
471
483
496
506
516
522
522
518
518
524
531
541
546
550
550
550
551
551
550
557
558
560
561
563
563
561
561
560
557
566
571
571
566
570
571
566
567
563
556
560
568
569
564
558
557
556
557
564
573
582
579
571
565
565
562
561
566
568
566
564
572
574
577
578
579
583
583
585
590
590
585
580
592
596
595
593
587
582
583
582
586
602
610
621
626
617
615
624
633
628
621
628
626
628
636
638
634
625
617
617
615
628
639
642
654
668
689
721
742
733
710
688
661
632
612
601
597
599
611
613
599
595
603
609
612
620
641
661
680
6
447
444
2
459
449
445
442
440
444
443
444
455
461
453
462
454
453
455
454
461
448
447
449
449
448
450
447
444
45959
449
445
442
440
444
443
444
455
461
453
462
454
453
455
454
461
448
447
449
449
448
450
447
444
459
451449
445
442
440
444
443
444
455
461
453
462
454
453
455
454
461
448
447
449
449
448
450
447
444
459
451
450
450
447
443
444
447
453
460
456
453
457
457
458
459
461
453
444
448
452
457
458
460
464
467
467
469
460
452
450
448
448
448
448
447
445
442
444
451
455
455
454
447
444
441
440
442
446
450
450
449
450
454
453
453
468
491
526
556
581
609
644
680
716
761
804
840
867
893
917
933
943
958
978
990
989
989
989
989
983
910
803
700
611
543
477
408
339
269
187
91
17
17
17
17
17
17
17
17
17
17
19
52
85
115
142
162
179
196
211
230
246
261
276
295
318
336
348
359
374
391
412
430
441
452
459
467
476
487
498
503
506
516
526
532
533
533
536
541
543
540
539
537
535
536
537
544
550
552
552
557
558
547
543
548
555
565
566
559
555
556
556
554
549
550
555
556
566
567
563
562
563
562
560
561
562
560
566
574
573
574
569
567
566
567
565
569
570
573
573
564
563
563
567
568
569
572
574
579
582
585
586
589
590
586
585
590
586
586
591
599
596
597
594
591
591
601
606
601
600
604
609
616
617
616
617
620
625
626
627
627
627
619
612
610
609
613
626
628
628
633
642
643
642
641
646
651
654
650
645
645
648
647
647
648
654
659
662
661
657
652
650
651
650
654
656
656
659
665
662
655
649
642
637
637
639
642
640
637
633
631
632
631
623
616
607
604
605
612
625
623
609
593
587
589
589
585
573
560
550
541
537
538
534
527
521
514
510
509
499
489
474
467
467
464
464
457
451
451
445
437
429
419
413
411
409
410
406
403
400
398
387
380
380
380
381
384
383
380
374
372
374
376
374
373
372
366
360
354
348
354
361
370
377
378
369
360
363
373
377
372
369
369
373
376
375
373
373
374
374
381
383
385
382
387
385
386
391
392
401
402
395
392
398
400
396
396
397
397
397
399
399
403
404
409
411
413
421
427
434
434
429
425
424
420
415
417
420
423
425
430
433
426
423
422
435
442
444
440
440
439
437
443
449
451
452
453
449
444
440
443
444
443
440
447
448
450
449
450
453
448
447
449
453
460
456
447
444
445
443
443
448
453
454
454
450
449
453
446
445
450
459
464
468
465
459
462
466
466
462
458
456
456
454
458
465
470
467
465
469
469
467
461
458
461
466
469
469
465
464
463
461
459
458
463
471
473
463
459
459
457
458
463
466
463
462
466
472
472
471
474
475
466
456
456
460
467
463
460
459
467
472
471
465
468
471
472
471
470
467
471
472
471
472
468
470
473
474
469
468
467
468
469
467
464
468
478
486
483
481
482
482
488
483
472
471
468
469
477
482
480
476
482
487
488
489
495
500
496
494
500
508
513
513
515
523
527
531
536
533
527
523
517
515
517
520
521
520
516
510
508
513
517
519
519
520
526
525
525
524
520
516
511
510
513
511
507
502
499
506
508
506
505
502
499
502
502
507
501
484
481
476
455
441
438
441
441
448
450
449
449
451
447
451
456
460
464
466
462
456
455
463
469
473
465
451
444
441
438
446
446
441
441
444
447
446
440
440
448
458
460
461
460
460
459
451
447
449
455
460
463
466
469
463
458
457
468
470
464
464
462
456
461
470
473
468
458
458
458
456
457
460
457
456
459
453
442
438
439
441
435
434
436
444
450
477
506
537
575
615
649
675
707
745
785
818
846
875
902
931
947
955
970
986
990
989
989
989
989
949
869
760
665
598
545
481
407
332
256
168
86
26
17
17
17
17
17
17
16
17
20
43
69
101
132
169
188
206
227
242
253
264
285
302
311
327
344
359
368
371
382
401
421
438
456
471
481
489
502
506
502
499
499
504
517
528
529
531
544
551
545
537
535
540
541
536
532
534
543
551
547
546
548
553
551
553
549
552
555
552
552
554
555
558
561
562
561
557
553
555
553
555
568
572
564
561
564
574
572
569
568
570
573
566
558
559
569
575
570
568
568
566
567
567
568
572
575
571
575
574
576
576
583
586
583
588
593
593
591
591
589
592
594
591
585
583
589
596
614
618
612
608
607
613
609
607
605
610
612
615
623
623
621
629
636
634
632
631
626
625
636
637
635
642
654
658
657
656
649
644
647
648
653
653
645
631
622
657
645
654
665
653
632
620
607
587
549
602
648
650
659
670
671
667
665
660
652
644
649
648
640
625
608
600
599
607
608
602
586
593
612
625
633
621
601
590
583
577
573
565
554
550
542
529
515
508
519
519
510
504
492
477
470
465
462
460
459
455
445
428
420
418
415
411
407
403
399
391
386
383
385
384
379
381
382
381
376
379
381
384
381
378
378
375
369
371
374
373
371
377
376
374
374
376
374
376
370
363
360
361
367
374
379
373
373
373
376
371
368
375
383
388
391
386
386
390
388
389
389
393
393
396
404
410
415
403
402
407
408
402
405
415
415
410
411
412
412
414
411
414
417
420
418
423
430
420
416
423
432
429
423
420
421
425
421
414
439
460
460
452
448
447
442
441
444
452
451
450
449
447
440
436
439
444
448
456
462
465
464
463
458
446
446
444
440
441
445
444
437
443
459
458
459
460
465
475
482
480
476
464
459
460
463
463
454
459
468
467
450
442
436
440
446
447
455
458
463
467
463
463
468
466
466
467
463
464
465
462
464
461
471
474
476
474
466
461
460
465
468
464
461
464
469
472
472
473
474
474
479
470
464
460
457
459
464
470
472
474
477
477
477
479
479
479
483
490
488
484
484
482
486
486
486
482
476
483
490
499
506
510
505
497
497
500
506
516
527
530
523
515
513
509
514
522
525
516
508
507
509
509
505
508
511
515
506
488
501
506
502
504
508
508
510
501
501
499
494
488
484
485
488
492
503
508
509
506
500
499
499
493
486
479
468
463
451
442
452
464
465
460
451
448
444
441
448
452
451
450
449
453
448
442
433
432
432
435
442
446
456
464
460
451
452
455
456
461
461
455
452
447
447
449
456
454
454
450
449
450
454
460
466
462
455
455
455
451
451
456
459
463
464
465
468
470
468
465
470
471
463
455
452
452
453
445
435
432
437
429
425
442
446
444
440
438
442
447
467
487
510
543
577
614
647
675
699
725
749
779
810
841
879
897
904
916
923
929
929
934
928
902
853
791
716
646
587
520
444
378
314
252
177
117
62
27
17
17
17
17
17
17
17
17
39
70
97
124
148
181
202
220
232
247
270
287
300
309
324
343
355
367
384
394
408
423
434
448
463
481
496
507
513
518
519
518
514
518
525
521
523
525
530
540
546
550
552
555
559
566
564
565
569
564
561
561
555
553
557
558
560
559
555
558
562
565
569
570
569
569
566
567
573
575
575
575
580
595
572
558
575
588
592
561
556
564
574
582
578
554
552
566
565
563
567
577
582
584
590
581
569
570
572
572
579
589
601
592
577
579
587
595
601
609
609
601
592
584
589
594
602
610
612
610
615
625
628
628
625
627
631
617
612
613
608
615
619
621
625
632
639
648
651
651
657
655
651
656
653
650
653
656
661
660
664
669
676
675
657
652
661
671
678
675
668
667
664
662
659
654
654
656
654
652
651
651
651
649
650
648
647
649
651
643
633
625
620
623
625
624
613
607
602
600
600
597
593
590
577
569
565
559
546
535
530
519
517
511
497
496
497
492
479
467
461
460
454
449
443
441
434
429
430
425
413
402
402
398
389
384
378
377
379
381
385
389
388
384
377
376
380
380
383
386
382
376
370
360
358
357
359
362
360
365
372
373
368
363
362
371
371
372
376
386
390
396
394
391
390
384
384
385
384
384
388
387
384
378
377
380
385
397
400
405
403
406
405
401
394
398
410
420
419
409
408
406
408
420
417
416
422
427
423
419
415
418
415
414
416
420
424
427
430
431
424
423
432
433
430
427
428
429
434
439
445
447
449
448
442
428
433
443
450
454
455
453
454
446
451
443
439
442
444
450
453
455
449
445
444
449
450
449
453
454
456
459
462
457
453
455
456
454
453
455
456
457
458
453
449
457
465
470
477
478
476
476
474
469
468
471
471
473
470
469
468
464
464
465
466
467
462
454
451
457
463
464
459
453
449
449
459
471
482
481
479
478
474
469
466
461
464
473
475
474
472
474
479
483
489
493
494
489
485
481
480
486
488
483
480
479
482
487
498
505
509
509
515
523
527
523
527
526
521
518
510
507
507
500
499
497
496
497
501
504
508
515
515
510
505
502
492
481
495
509
510
507
504
501
493
484
478
473
477
488
492
491
492
496
497
496
490
485
479
471
469
465
461
465
463
455
448
446
447
446
445
443
443
442
444
444
452
458
460
457
457
457
454
452
451
450
449
449
455
456
450
443
440
440
443
448
447
445
446
451
454
452
450
449
450
460
464
459
457
461
461
464
458
461
458
460
468
470
471
473
474
460
453
453
455
461
464
461
453
454
459
461
460
460
460
466
471
469
469
468
469
464
452
470
508
526
545
579
614
647
681
718
755
791
825
851
866
863
842
853
883
899
906
918
919
902
867
807
722
641
579
522
466
401
332
267
202
129
65
20
17
17
17
17
17
17
17
17
45
79
104
110
136
173
203
222
247
264
271
277
291
288
304
325
347
372
388
404
415
428
438
456
475
487
496
506
507
512
519
522
526
529
536
552
564
560
562
566
571
566
557
552
552
559
561
560
550
555
563
570
571
574
577
574
555
543
543
551
563
564
562
561
564
565
566
568
566
567
568
570
571
573
571
566
562
563
563
560
557
568
569
571
572
570
568
570
571
577
577
580
584
583
577
572
592
592
596
597
597
595
583
571
566
577
588
591
592
596
597
598
598
599
599
594
595
599
595
597
601
606
608
608
609
611
610
617
634
645
643
630
618
613
613
617
619
628
637
638
632
628
631
635
639
641
647
651
655
653
650
655
654
652
650
653
659
661
662
662
656
657
658
654
651
654
656
658
654
646
645
645
644
637
639
643
637
630
628
630
630
630
627
623
611
597
591
592
599
597
596
592
583
575
566
560
555
548
542
541
536
529
525
521
511
504
498
496
490
482
475
470
464
462
445
435
430
431
428
422
417
417
415
416
415
414
408
397
387
384
384
382
383
380
373
374
371
365
371
376
374
379
380
377
377
377
378
380
384
379
372
373
376
381
384
384
381
377
378
382
379
377
377
381
385
386
388
391
392
391
396
402
404
405
402
403
408
404
398
391
389
391
389
387
391
397
399
404
410
410
408
407
409
406
404
409
417
419
418
415
418
425
425
424
422
425
432
435
428
418
426
432
435
440
437
433
435
436
440
441
434
440
447
451
452
450
445
445
450
452
450
446
446
450
454
456
455
457
451
449
451
453
452
447
445
448
449
448
450
448
454
461
462
457
454
453
454
456
457
461
465
466
465
463
464
468
474
473
474
470
469
472
477
473
466
458
457
456
457
466
476
483
489
482
478
478
483
484
486
482
485
477
468
469
470
470
467
466
470
472
478
483
486
492
496
497
501
512
517
524
525
525
520
516
519
527
527
524
514
504
503
496
497
501
507
510
508
506
503
505
506
506
508
505
496
490
488
486
492
496
495
491
484
478
475
481
488
492
495
494
485
481
479
477
475
475
475
468
456
448
444
441
440
441
441
445
446
443
441
444
451
459
462
463
460
458
454
445
442
442
440
436
441
441
435
432
434
446
454
453
450
450
456
462
465
457
450
448
450
453
458
453
447
449
443
443
453
457
458
459
461
459
454
446
445
449
451
450
451
448
450
456
461
460
457
455
457
457
454
455
455
456
457
457
455
458
458
455
462
497
529
548
574
608
647
677
714
750
782
807
833
849
856
862
874
890
905
911
917
929
932
918
869
787
691
611
541
481
417
353
291
223
145
57
17
17
17
17
17
17
17
17
17
17
38
86
121
152
180
200
217
229
241
258
278
295
305
317
329
336
354
364
380
401
427
444
458
470
477
485
494
506
510
511
512
520
528
532
540
547
551
548
547
546
549
547
547
552
551
559
567
568
568
569
569
571
561
547
538
543
545
548
552
553
552
560
565
561
563
574
576
565
562
564
566
566
565
560
557
556
558
559
567
568
573
570
575
577
577
579
586
587
574
566
570
573
566
564
571
572
573
572
574
576
580
584
584
585
580
581
584
581
583
589
594
600
603
600
596
596
592
585
584
590
601
605
604
605
612
613
616
612
616
618
626
634
642
639
629
633
638
635
633
637
642
640
637
647
653
660
664
661
660
655
651
645
638
652
652
649
652
657
653
645
644
651
657
660
661
655
656
659
649
650
647
645
640
641
642
634
634
635
637
640
642
633
625
617
609
605
606
599
593
587
580
585
580
572
561
556
546
538
535
533
531
522
514
512
501
488
478
474
475
470
460
456
449
448
442
433
429
423
419
420
414
406
397
388
385
387
381
378
377
374
372
383
387
380
370
362
359
366
370
372
366
358
353
365
375
370
364
361
354
358
368
366
365
362
360
362
365
370
373
373
369
371
386
389
382
378
372
381
384
384
383
383
380
379
390
392
387
383
384
385
387
398
417
409
402
380
371
382
393
407
418
428
424
420
425
423
421
416
412
420
426
422
420
392
363
374
403
424
425
427
427
429
432
442
443
443
435
430
451
464
462
456
455
451
448
449
445
445
447
453
459
456
444
425
409
415
424
429
437
445
446
440
441
444
443
449
453
451
447
444
443
444
449
447
439
439
443
448
451
456
457
454
455
455
456
459
456
453
451
454
460
466
470
469
472
469
468
467
475
483
484
480
479
483
479
479
483
481
478
476
479
477
473
471
476
479
482
484
484
492
497
500
500
505
513
529
535
534
526
523
531
524
513
514
517
520
514
505
503
508
510
509
504
499
500
503
507
512
513
503
504
504
500
500
486
481
487
492
492
490
492
492
491
492
485
476
470
471
473
469
467
469
464
451
444
442
448
449
437
434
441
450
450
447
448
450
451
457
458
451
444
437
433
434
436
440
440
441
444
456
456
441
431
437
435
428
430
433
435
442
447
448
446
449
453
453
442
430
446
449
454
454
453
453
451
449
451
457
459
462
460
452
454
458
455
446
441
448
450
456
453
459
450
441
439
427
418
430
451
451
449
448
445
440
450
472
502
530
557
588
631
663
693
732
769
804
833
865
891
915
931
947
966
981
984
990
989
990
975
917
830
725
643
569
493
406
329
257
189
100
19
17
18
18
18
18
18
18
17
17
17
28
62
95
125
154
176
189
200
211
226
254
280
296
320
335
352
367
384
408
433
448
454
455
462
471
478
484
485
487
508
526
528
537
530
533
545
542
546
558
556
551
531
515
512
526
537
537
552
572
578
580
574
570
568
566
568
574
574
566
555
550
549
557
569
574
572
565
562
571
576
570
565
571
570
570
573
569
577
576
577
575
570
565
565
567
576
567
564
566
573
578
579
581
586
589
581
579
576
579
584
587
593
600
596
594
595
596
593
588
584
587
592
592
596
595
599
604
611
614
614
615
615
613
616
624
622
621
626
629
628
629
630
634
643
652
653
650
642
644
647
641
645
651
666
674
672
667
658
659
667
668
666
664
665
665
668
672
667
666
672
682
677
666
660
657
659
662
662
666
675
672
662
649
641
634
635
640
639
637
637
634
632
630
627
616
608
611
615
613
607
600
595
588
578
571
566
559
550
543
535
535
532
525
513
503
494
486
486
478
474
460
450
448
446
443
435
427
422
422
418
411
401
397
387
382
374
367
361
372
380
375
378
376
370
373
374
374
375
366
356
358
358
361
367
368
362
360
363
364
354
346
349
358
362
368
367
362
360
365
372
379
378
372
359
355
356
353
356
359
362
366
369
372
376
380
380
384
385
386
388
391
395
399
400
400
401
398
393
392
392
399
396
396
397
400
405
412
418
414
407
406
410
416
420
427
429
426
428
431
429
429
430
435
432
422
417
416
416
424
432
433
434
441
444
445
444
439
434
432
429
428
433
431
434
443
443
439
443
443
441
442
446
450
452
452
449
453
454
452
454
452
454
449
448
449
448
448
451
451
450
455
461
460
454
447
445
445
450
453
455
454
452
460
472
471
472
471
470
468
465
462
462
462
461
466
467
463
464
470
473
475
476
472
475
484
482
477
474
471
476
480
480
476
477
487
491
498
501
498
500
503
510
522
530
534
526
523
523
525
525
519
517
510
505
505
509
517
515
512
508
509
511
505
506
511
510
510
513
507
502
494
486
486
489
490
489
491
491
490
486
489
491
489
490
487
487
478
473
472
473
469
468
461
460
465
462
454
450
450
451
453
444
437
431
430
436
437
448
447
438
432
427
421
425
434
445
459
457
452
443
437
436
441
440
443
442
446
456
451
445
443
445
446
449
450
457
458
451
441
439
441
441
444
450
450
447
449
454
453
448
449
448
449
447
446
446
445
443
447
447
446
447
441
431
426
428
429
432
436
430
426
431
439
449
467
494
523
552
586
630
667
693
728
772
805
830
851
867
885
907
927
948
965
983
990
990
990
972
918
836
734
648
575
501
432
370
305
230
145
63
17
17
17
17
17
17
17
17
17
17
28
56
78
107
137
166
193
216
241
261
273
276
279
295
315
328
347
364
375
398
417
426
440
455
473
489
494
498
503
506
511
514
513
516
526
529
534
537
538
540
541
543
550
557
557
563
564
557
556
563
567
569
566
568
569
563
563
569
576
585
591
590
584
583
570
553
547
554
556
557
559
559
564
562
559
563
571
574
572
575
576
571
569
568
571
574
575
573
573
573
575
581
588
591
594
597
591
588
584
580
580
582
582
586
593
599
598
598
605
608
608
604
592
581
587
594
601
598
594
599
610
607
604
619
622
625
626
623
621
626
627
622
618
622
635
644
652
658
653
650
648
646
646
651
650
648
649
656
656
662
663
662
665
671
675
670
668
669
671
674
677
678
671
671
672
666
656
643
645
644
633
632
637
641
645
648
641
637
638
638
636
630
634
636
621
611
610
609
608
608
601
598
595
587
578
571
571
556
543
536
531
527
519
511
500
497
497
495
488
474
459
457
463
462
451
440
433
430
414
408
406
407
416
419
424
409
395
390
384
390
391
383
376
372
362
356
358
360
364
364
374
382
379
372
368
370
370
370
368
358
354
356
358
362
369
368
371
369
373
380
387
389
391
398
399
388
383
385
382
381
386
397
401
400
391
386
388
393
400
399
385
378
380
385
381
382
386
392
390
399
408
413
414
412
421
429
428
426
429
423
421
427
432
433
423
415
411
411
415
416
417
422
418
421
427
429
426
437
442
449
456
459
453
445
437
428
429
439
442
442
441
440
437
436
439
442
441
440
451
456
460
459
449
441
446
452
457
460
458
458
454
451
449
455
455
452
444
440
440
450
466
471
464
453
458
459
459
460
467
473
474
462
451
452
448
451
451
456
464
470
466
464
469
474
474
476
478
475
475
471
472
477
472
469
470
464
459
459
470
477
478
484
487
489
490
489
504
501
501
503
509
518
525
523
522
526
529
527
523
520
514
516
512
503
499
500
504
504
507
517
519
510
499
493
498
504
507
500
493
498
487
477
473
474
473
477
471
464
469
475
478
481
479
479
481
484
487
484
477
475
469
461
459
454
446
446
444
448
452
451
449
452
453
454
450
454
454
456
450
442
439
436
432
436
439
441
447
448
444
440
437
436
440
443
438
432
442
448
444
443
448
453
450
446
440
442
447
449
448
449
448
447
450
452
454
455
452
450
452
454
456
453
454
452
448
449
450
444
440
438
439
441
436
431
430
434
439
446
450
445
436
446
462
480
500
530
572
609
636
660
689
719
751
783
808
833
860
883
901
909
913
919
924
928
920
893
846
786
710
635
571
507
440
376
315
251
176
113
61
29
17
17
17
17
17
17
17
18
43
69
95
118
142
176
200
214
226
238
257
275
284
293
309
335
352
365
379
389
396
408
426
440
452
463
473
480
486
496
505
512
513
512
517
528
539
541
538
538
538
542
548
551
550
548
550
549
550
551
552
554
557
562
566
558
552
550
547
544
545
553
563
568
568
560
559
560
560
559
558
557
559
562
565
567
569
573
568
565
561
559
560
562
561
559
560
566
567
566
569
569
570
576
584
590
588
585
577
571
572
577
574
570
569
576
581
590
592
589
588
587
588
585
585
586
587
589
598
610
617
619
622
626
626
619
614
616
622
628
623
619
617
624
630
634
637
634
639
642
641
641
643
643
647
650
651
658
663
668
664
657
658
660
662
661
662
658
658
661
661
660
661
662
658
655
650
648
649
649
646
649
648
643
640
640
644
641
638
635
631
622
619
618
615
607
600
594
589
582
581
578
568
561
554
551
548
537
528
527
523
517
506
491
486
484
480
479
471
464
464
458
450
446
437
429
423
412
403
400
401
401
399
398
399
398
395
390
384
385
381
381
379
374
373
370
360
354
355
358
357
360
363
363
356
354
355
359
364
367
363
361
361
365
375
380
379
376
376
375
373
371
368
365
364
364
371
377
375
376
380
388
384
386
390
397
400
401
398
391
394
390
380
376
382
389
393
396
400
398
399
402
411
412
413
419
425
424
419
415
414
413
415
419
426
426
422
420
419
419
422
424
431
431
430
437
445
443
436
429
429
431
435
436
437
435
433
433
436
439
442
442
444
445
444
444
445
444
439
438
442
448
451
444
441
439
442
446
445
449
454
459
464
464
460
450
451
454
456
455
453
454
458
460
461
464
464
464
464
463
461
463
465
467
470
473
476
474
468
459
463
473
478
478
475
472
473
476
476
476
474
471
471
468
468
470
468
473
479
482
486
488
496
505
512
520
527
534
537
538
540
538
527
513
507
503
495
494
491
486
485
492
501
506
512
511
506
505
506
505
502
499
494
490
488
489
489
487
484
476
476
482
486
485
484
484
486
487
483
475
465
464
468
469
462
455
451
451
448
443
439
441
443
441
441
442
445
447
448
452
452
449
445
440
440
438
439
442
453
450
445
445
447
444
442
446
453
451
449
450
447
446
442
441
444
448
447
444
441
439
441
445
445
449
452
454
458
459
456
452
451
453
455
454
447
444
443
447
452
457
453
451
452
451
448
445
446
447
444
445
452
451
448
448
446
450
460
481
505
526
555
590
624
653
683
723
756
777
798
824
848
865
876
886
899
909
923
933
922
900
848
769
680
603
531
466
399
330
266
198
124
48
17
17
17
17
17
18
18
17
17
17
45
73
93
120
150
171
187
214
236
253
262
280
302
318
331
351
364
373
392
411
430
441
455
461
469
479
488
495
503
511
523
533
540
545
547
550
554
558
559
557
552
554
557
559
559
559
560
561
561
564
567
568
572
573
577
573
563
558
558
562
566
570
568
567
567
563
560
554
555
562
570
571
572
574
577
572
569
572
576
573
572
572
572
567
562
568
572
574
577
580
579
579
577
572
567
566
573
582
592
594
591
591
593
596
588
588
592
598
597
587
584
587
586
582
583
587
592
597
604
608
606
611
613
614
615
616
613
618
625
629
626
624
624
628
639
649
650
642
636
639
646
648
648
650
655
656
658
659
658
656
664
671
667
658
654
659
659
657
656
652
649
643
644
645
647
655
658
654
647
643
638
639
643
644
639
639
644
637
634
630
628
623
615
609
606
602
595
593
589
585
584
582
579
573
563
552
548
547
542
537
530
523
513
506
502
501
495
486
481
478
473
468
459
453
446
437
428
416
409
406
400
395
390
385
381
379
379
379
370
375
382
378
376
376
372
364
363
364
365
375
382
383
382
381
372
368
374
372
369
369
372
372
371
371
365
366
370
371
371
378
387
389
392
393
390
386
381
380
377
367
362
364
369
379
391
398
398
402
403
401
402
402
398
398
405
407
410
406
405
404
403
409
412
416
416
417
418
421
420
418
418
424
423
422
424
427
433
426
411
415
428
430
432
434
434
438
443
432
424
425
432
435
431
432
437
440
444
444
447
453
454
457
458
453
448
449
456
457
458
457
460
462
459
459
455
444
439
442
444
445
447
455
455
457
454
455
457
459
462
461
459
456
455
459
461
460
461
463
467
469
465
465
463
462
468
468
466
466
467
464
467
471
472
470
469
472
474
476
482
488
486
485
484
481
481
484
479
480
477
473
473
474
476
476
474
477
480
482
486
489
493
503
506
505
510
515
515
521
522
526
529
527
526
529
531
521
514
515
516
520
522
517
514
511
517
513
501
492
497
506
510
510
498
485
482
483
480
476
476
481
489
492
493
490
495
499
498
497
492
486
480
470
464
459
450
438
433
432
440
443
446
443
439
438
449
456
452
452
445
443
443
445
451
448
442
444
443
450
454
446
440
440
446
452
451
446
443
444
449
450
456
465
469
466
461
458
453
445
443
448
447
444
443
446
443
439
444
443
441
442
441
451
460
465
469
470
463
453
447
449
450
453
449
443
444
446
446
445
446
448
451
452
447
444
450
469
490
516
540
579
621
659
694
724
761
800
834
864
884
900
911
926
947
962
980
989
989
990
973
915
825
710
617
551
496
432
352
276
200
119
35
17
17
18
18
18
17
17
17
17
17
18
48
81
117
146
166
191
208
225
240
255
269
295
320
332
344
353
369
387
402
419
442
459
472
480
490
499
506
516
520
515
517
522
533
545
551
551
550
550
555
565
565
562
557
555
552
551
554
558
568
567
562
558
564
571
573
570
568
573
572
568
567
573
575
570
566
567
567
572
579
580
570
568
577
581
576
572
571
578
577
573
574
570
572
577
583
583
585
586
575
561
563
564
564
574
584
591
593
589
586
585
590
593
591
591
584
580
592
601
605
604
597
598
598
595
593
603
609
611
614
619
623
620
618
619
622
623
626
623
624
626
635
648
650
639
631
632
639
646
651
651
647
642
640
642
653
656
658
656
662
664
670
682
681
673
671
679
680
673
661
652
654
655
660
659
664
666
666
664
665
655
648
647
641
645
640
640
638
637
638
644
635
625
619
613
614
611
609
606
611
605
586
573
570
572
566
557
556
545
533
527
522
522
518
510
502
490
489
477
472
470
460
454
453
447
436
421
418
412
407
406
403
399
399
399
395
393
390
385
383
384
377
367
365
369
368
373
374
369
363
363
363
370
373
371
366
362
363
367
372
374
376
376
373
373
365
364
359
354
359
360
360
365
369
371
370
375
379
388
394
387
382
380
377
375
380
385
390
396
401
401
401
400
408
401
396
399
404
412
411
399
403
408
411
413
415
415
416
423
413
409
410
418
425
425
422
414
409
419
427
433
434
427
426
428
436
435
433
438
444
444
447
442
438
443
449
453
453
450
445
439
437
443
444
437
436
438
444
448
461
464
462
456
453
446
448
457
461
466
467
471
470
464
464
469
459
439
434
441
451
458
461
450
444
444
444
445
442
451
459
461
461
465
464
459
457
453
457
458
456
453
462
462
460
464
469
473
472
468
467
468
465
462
469
468
467
462
461
460
460
459
461
464
462
466
467
469
479
479
476
472
461
461
463
460
457
460
464
468
472
472
472
484
486
489
491
490
491
490
489
489
493
486
481
486
488
484
484
489
489
491
496
505
509
507
505
507
516
527
536
541
543
540
534
531
530
530
531
525
518
513
512
516
516
507
505
512
516
519
515
513
514
517
517
512
506
500
498
499
497
492
489
491
495
497
496
497
492
486
486
491
496
495
481
471
471
461
452
447
445
441
438
440
444
447
447
439
437
443
444
438
437
441
442
440
442
449
448
445
439
431
429
435
443
443
446
451
451
448
444
441
446
453
458
456
448
446
448
447
450
448
442
444
448
449
448
450
453
451
449
443
445
450
453
452
448
448
448
450
451
452
451
448
446
443
443
440
436
437
443
445
439
437
434
432
433
442
449
465
494
523
549
571
607
642
676
711
749
789
826
853
877
901
925
949
966
978
981
990
989
989
986
954
896
803
696
603
528
458
385
314
242
165
76
17
17
17
17
18
18
18
17
17
17
17
21
54
84
117
142
163
182
202
222
236
251
274
296
316
332
348
359
375
398
422
436
447
457
465
473
481
491
504
521
527
532
531
535
544
547
546
549
556
559
560
555
557
562
570
578
573
568
567
573
570
563
564
577
575
577
583
575
570
571
575
577
568
563
563
559
557
565
575
571
569
569
565
561
564
573
579
582
584
582
584
589
580
574
572
569
563
565
573
579
582
583
585
585
583
582
585
587
591
596
596
593
589
587
589
588
591
594
606
610
603
607
608
601
602
612
621
621
614
614
614
616
623
626
624
626
626
627
628
636
639
640
642
644
646
638
639
649
660
665
659
652
653
654
656
655
659
661
663
670
674
679
677
677
676
679
680
678
677
674
677
674
669
666
664
655
656
658
662
665
668
665
659
653
647
647
643
643
652
653
649
641
634
622
615
618
623
629
628
620
619
617
600
586
578
574
568
554
544
543
541
537
529
523
515
514
507
507
506
498
491
482
476
470
459
450
445
446
446
442
435
420
411
408
406
404
403
397
397
393
384
376
370
368
367
374
380
382
383
382
376
366
363
366
369
370
371
373
370
371
376
377
379
377
379
380
375
371
369
367
370
370
370
363
363
377
386
382
377
379
384
388
389
391
394
399
396
393
391
388
392
393
397
398
398
401
406
406
407
402
404
409
411
411
410
417
419
416
416
412
412
414
416
415
415
420
432
436
438
448
443
436
436
439
433
431
432
435
435
435
433
435
434
437
443
447
446
444
439
443
447
451
451
443
438
439
447
449
454
455
452
454
444
439
446
454
460
462
463
474
474
466
462
459
456
468
479
483
475
474
477
473
460
454
457
462
466
469
468
465
463
457
453
448
443
444
443
446
451
457
459
461
460
461
456
453
448
456
458
459
454
451
457
462
478
470
459
454
458
461
461
461
467
469
471
465
464
471
479
479
470
468
472
470
477
473
469
476
488
493
494
496
482
481
493
496
492
487
489
488
480
469
459
458
465
473
481
490
499
500
507
515
517
511
514
520
521
519
519
524
525
522
519
517
508
504
503
502
506
505
504
515
525
526
522
520
520
512
508
497
491
490
483
487
492
485
479
477
482
488
493
496
499
498
498
498
497
487
481
476
472
461
450
441
449
457
454
458
450
443
446
451
454
454
451
449
449
446
444
447
452
458
458
455
456
464
463
456
449
448
453
451
447
450
458
454
446
445
457
465
464
460
457
455
456
448
446
449
452
447
448
454
458
462
465
462
463
465
460
453
449
451
450
450
455
460
466
466
459
453
457
456
445
436
434
439
438
436
435
438
443
444
450
469
491
523
562
607
647
675
704
735
767
790
820
853
887
904
919
934
941
952
961
967
963
943
900
843
756
659
591
536
470
401
340
272
191
112
51
17
17
17
17
17
17
17
17
17
27
60
84
103
124
154
185
205
230
246
260
271
286
300
315
325
335
347
360
383
399
419
443
460
469
479
488
497
502
515
511
518
508
521
531
535
543
546
552
558
557
562
561
557
565
576
568
557
549
548
558
564
553
537
542
556
564
570
574
568
563
566
568
574
578
574
576
577
576
572
574
570
563
559
561
561
558
559
560
567
571
578
576
566
568
573
573
579
583
581
582
585
586
579
579
584
579
575
579
576
575
575
576
581
577
576
580
586
592
595
593
588
594
600
600
595
594
595
598
598
596
599
607
613
616
631
640
638
638
640
638
637
631
626
624
625
634
642
643
645
648
652
641
634
641
655
663
661
658
657
664
666
667
664
661
662
663
668
670
668
662
661
658
656
662
666
664
654
646
644
645
649
649
647
653
657
653
643
641
635
629
626
619
610
605
606
604
606
606
599
589
583
577
571
565
561
560
562
560
548
536
526
521
516
504
500
497
494
491
493
493
483
473
462
447
434
426
417
407
402
399
399
400
397
390
389
390
387
385
385
382
378
373
372
375
379
380
380
381
377
369
368
374
372
370
369
371
374
374
376
367
370
370
366
361
357
356
360
368
372
374
376
375
378
375
372
375
382
385
387
388
387
387
386
385
385
387
384
386
390
396
399
403
405
399
401
405
404
405
406
411
415
415
422
430
424
415
408
408
409
415
419
420
421
426
429
430
431
434
437
439
445
440
431
420
414
415
423
433
434
439
436
431
426
425
431
439
441
445
451
453
454
454
446
447
450
449
451
457
460
462
457
450
448
455
458
463
461
456
450
448
453
463
470
468
469
466
461
461
465
465
464
466
468
465
459
456
460
460
459
459
458
460
461
458
457
461
457
458
463
468
468
470
473
472
468
461
458
462
467
467
464
466
469
469
469
471
474
476
476
479
488
489
488
491
495
492
487
484
478
474
474
469
464
469
473
477
487
495
504
512
515
518
525
526
523
523
527
535
537
537
531
515
505
505
513
521
519
513
513
514
514
513
506
497
498
503
506
508
511
508
503
496
492
490
483
482
476
481
490
494
491
487
490
495
498
498
487
477
471
470
464
459
454
445
438
437
441
445
442
434
433
439
444
445
449
455
454
450
449
449
450
451
452
446
441
444
448
451
454
456
450
447
447
450
453
458
458
459
462
458
452
449
440
440
448
456
459
459
461
462
456
452
451
456
462
463
459
458
457
455
453
454
456
456
454
452
451
449
458
454
454
461
460
455
453
448
444
452
462
456
442
431
433
448
469
486
505
526
557
591
618
640
666
697
736
768
796
817
840
858
872
887
899
904
912
918
917
900
854
791
710
630
566
503
433
371
303
228
159
89
31
17
18
17
17
17
17
17
17
17
17
42
82
112
139
170
198
215
226
234
238
252
269
291
314
336
351
366
382
402
420
434
444
456
471
485
497
502
508
512
515
522
529
531
536
542
550
555
557
559
561
566
568
565
561
559
560
561
563
568
570
567
568
571
572
572
573
573
573
574
571
573
583
583
581
578
573
566
563
564
567
569
575
579
581
580
578
578
580
581
579
573
573
575
576
573
572
569
573
579
582
584
584
584
583
578
572
575
584
589
595
599
601
600
598
598
597
594
598
598
597
599
600
601
601
596
594
594
595
597
599
606
610
611
610
612
616
624
637
645
650
650
647
647
645
637
633
635
634
634
638
645
648
652
655
656
651
649
656
661
667
670
669
668
671
675
675
672
669
666
666
668
670
673
675
675
669
665
664
666
658
650
644
635
625
618
625
627
622
621
621
629
632
630
623
612
600
589
592
589
583
574
566
559
558
554
544
544
544
538
531
524
524
520
509
493
484
480
476
469
467
465
461
456
449
444
431
415
409
410
411
407
408
405
399
399
398
395
389
380
372
369
370
373
374
373
368
370
367
363
360
358
354
350
350
354
357
360
367
372
368
369
369
370
368
370
376
380
376
372
369
369
372
377
383
387
388
387
381
377
369
372
376
379
382
378
379
385
385
385
392
396
398
403
408
409
407
405
404
407
411
410
413
411
415
414
407
412
417
425
427
428
427
432
432
430
426
419
415
420
432
428
424
425
430
428
425
423
430
435
431
429
430
436
435
432
442
447
447
452
446
444
447
450
453
452
455
457
450
448
450
451
449
446
452
456
462
464
462
456
453
450
447
444
448
448
452
454
455
454
452
449
448
449
453
460
459
454
452
455
461
462
464
464
465
463
460
460
462
463
460
462
465
468
474
474
471
469
471
473
469
470
467
474
473
471
471
472
471
469
470
477
483
486
488
492
492
489
488
485
478
465
464
461
458
460
465
467
470
474
478
489
498
503
507
518
530
534
531
527
523
515
513
515
515
508
501
502
508
511
509
505
499
494
492
496
499
498
498
502
501
500
501
503
501
496
493
489
487
487
488
485
486
486
490
494
485
480
480
481
478
476
469
466
465
464
459
454
457
454
454
456
452
448
450
454
455
450
446
451
451
451
452
456
462
464
468
468
460
445
431
424
429
434
440
442
438
438
446
452
454
454
453
452
455
455
451
452
447
446
453
462
465
458
462
463
462
464
459
449
441
439
440
442
441
440
435
440
452
460
456
453
457
458
454
450
448
444
441
443
449
457
464
464
460
460
463
474
492
511
545
591
630
661
696
726
761
787
808
838
866
892
914
929
943
959
969
976
979
972
956
904
819
723
634
556
486
406
328
255
189
127
48
17
17
17
17
17
17
17
17
17
17
31
69
100
131
154
180
207
218
229
246
263
282
300
311
324
336
351
367
386
408
429
450
465
478
485
491
495
502
510
518
520
523
526
532
537
544
554
557
557
554
559
562
554
547
538
535
539
546
553
556
557
556
556
560
559
561
566
564
561
564
566
564
558
559
556
555
563
559
558
568
571
571
565
561
559
558
557
557
563
568
570
571
579
578
572
562
563
566
564
571
583
580
573
569
566
565
568
573
578
580
582
579
577
576
581
585
587
584
586
590
590
596
597
591
594
597
602
603
599
603
607
614
614
609
606
615
620
623
625
622
617
622
630
636
634
624
617
626
642
654
658
665
667
663
658
658
656
652
647
646
647
650
647
649
658
674
672
673
669
663
666
663
658
650
651
652
652
657
660
647
641
638
636
635
637
632
628
630
631
633
630
620
618
614
614
615
609
598
590
583
581
576
568
564
562
557
557
557
550
544
537
532
525
513
503
492
488
485
477
464
450
448
454
448
441
431
425
412
403
403
401
395
392
389
388
380
376
382
378
378
373
376
372
365
363
369
368
367
363
360
365
370
372
373
368
373
364
361
362
373
372
369
367
371
369
372
375
370
371
371
373
369
374
378
374
378
374
378
378
374
373
372
377
379
381
381
384
383
383
384
385
390
399
396
387
390
403
412
412
413
409
402
404
405
406
407
413
416
414
412
419
418
416
417
417
417
422
420
420
424
418
417
422
426
428
428
427
425
428
428
431
438
440
436
432
431
432
432
438
433
434
430
435
448
452
452
453
448
446
445
442
440
442
444
444
446
448
450
455
453
454
452
447
453
462
461
457
456
464
464
465
470
466
458
452
447
441
443
447
451
455
455
455
457
458
460
461
461
457
461
462
460
459
458
453
453
460
466
465
463
465
459
451
449
453
456
456
459
455
458
454
446
441
441
451
459
464
465
462
460
461
459
457
461
463
462
460
463
464
462
455
459
466
467
469
472
473
472
470
472
471
465
472
485
489
490
487
491
492
492
486
486
491
497
504
502
488
487
495
497
492
485
490
493
502
510
512
511
514
517
521
520
523
530
531
527
524
517
516
521
522
514
506
508
510
506
504
506
507
512
513
513
515
511
513
521
528
529
521
515
510
504
500
504
505
500
496
492
486
479
476
472
469
466
468
475
477
471
462
464
464
456
448
440
435
431
432
440
448
455
456
447
441
439
440
446
450
445
438
438
446
448
449
444
437
437
431
433
432
434
439
442
446
445
449
449
456
458
458
451
446
445
443
439
440
447
452
449
451
455
454
453
447
442
444
446
448
447
445
443
442
442
444
448
452
453
450
439
437
432
427
426
427
429
427
428
434
443
448
467
490
514
538
571
622
671
705
737
770
798
822
851
879
903
927
944
961
980
990
990
989
989
990
952
883
783
679
596
529
450
369
291
218
140
50
17
17
17
17
18
18
18
17
17
17
19
57
94
122
139
148
157
176
198
221
243
262
284
298
312
331
348
364
383
401
419
439
451
463
470
468
474
485
495
503
512
521
527
531
531
536
541
544
547
549
552
551
550
552
556
556
557
560
561
561
561
566
572
569
568
565
562
557
555
552
552
555
562
567
568
568
560
551
548
550
547
547
554
568
576
575
573
570
570
574
578
574
568
565
567
570
570
569
571
574
575
577
580
581
583
583
585
585
580
585
590
591
591
588
589
587
585
584
580
584
586
592
598
599
595
598
604
608
611
605
604
612
620
622
616
617
630
641
638
636
636
636
641
651
649
648
648
642
643
647
649
649
652
650
653
656
656
658
665
659
656
656
659
667
673
672
664
659
658
654
659
657
663
668
667
660
661
663
665
666
662
657
655
655
653
647
644
647
649
646
636
628
625
616
614
619
618
617
615
606
601
595
589
590
584
571
561
560
555
548
545
535
528
519
513
506
500
493
488
479
475
475
469
465
460
455
442
433
431
432
425
417
413
406
399
393
393
393
389
384
389
402
391
385
380
372
367
364
357
355
360
367
371
366
360
356
362
366
371
381
379
370
366
371
374
378
382
378
368
362
357
356
357
366
374
371
373
375
373
378
376
376
385
393
403
402
400
401
407
413
415
406
400
397
398
395
396
395
399
403
404
406
410
413
414
416
414
413
413
416
419
425
427
427
423
423
430
433
434
435
430
427
425
422
424
422
428
439
445
446
443
443
443
440
439
436
438
442
446
446
442
441
441
444
448
449
449
449
451
456
459
462
459
453
449
444
443
446
447
453
464
469
468
460
456
461
464
463
452
451
460
461
455
455
457
457
457
454
454
456
455
448
450
453
456
459
467
470
469
471
472
481
479
473
472
469
458
452
453
455
459
463
468
476
472
469
466
461
450
449
459
467
469
460
453
452
449
449
455
462
464
457
457
459
461
461
467
474
477
480
476
475
473
471
469
470
477
482
486
484
478
472
467
469
471
477
478
476
480
480
481
485
489
490
488
485
484
482
478
473
474
477
485
490
489
494
509
513
512
515
523
528
530
532
535
534
529
521
523
522
519
515
509
509
509
508
511
517
512
515
519
519
521
527
526
525
524
519
516
506
494
494
497
495
497
505
503
496
497
496
498
499
500
498
484
482
478
473
471
467
458
453
450
445
443
444
448
452
448
445
444
447
445
447
453
453
455
456
460
462
463
461
460
458
451
448
447
454
454
455
456
455
454
452
451
453
452
448
448
449
452
461
463
464
467
468
471
469
468
471
468
468
466
453
449
450
450
453
450
452
454
456
460
458
455
455
457
451
446
444
447
446
446
447
437
434
437
447
449
453
456
456
470
497
523
556
583
609
644
677
709
747
780
811
835
856
884
902
924
946
961
971
983
986
978
951
911
841
746
650
579
516
455
397
328
262
187
120
64
18
17
17
17
17
17
17
17
18
54
91
110
126
155
184
210
234
246
256
264
279
289
305
331
351
369
378
381
388
406
422
437
455
469
479
488
499
504
507
502
498
501
511
521
529
535
544
557
552
544
535
537
539
537
539
548
554
561
563
562
554
551
550
550
550
553
560
559
559
558
554
558
560
554
555
561
569
569
569
574
577
576
572
568
561
555
557
565
568
575
572
571
576
575
572
569
565
568
571
573
571
578
587
589
578
572
568
574
581
589
592
589
592
590
589
586
583
584
585
589
591
593
595
592
591
592
599
604
610
613
613
613
610
611
614
612
615
618
624
628
632
631
631
633
638
637
638
638
644
647
643
648
648
645
645
649
651
652
660
667
664
663
659
660
664
668
670
668
664
659
655
657
664
669
674
670
664
659
656
651
645
642
635
631
633
633
630
625
625
628
628
630
628
620
610
610
612
606
600
593
586
581
577
571
564
556
552
550
540
527
517
514
511
501
494
487
483
485
490
483
468
458
454
452
440
439
441
438
430
426
426
421
412
398
387
382
375
370
369
371
367
363
367
367
370
373
373
370
368
363
356
354
362
366
369
370
369
373
373
370
372
372
374
375
381
383
383
383
377
368
366
368
373
376
380
383
386
393
401
401
393
385
380
380
382
382
378
380
386
388
388
387
390
395
396
398
404
406
409
410
411
412
413
416
417
422
417
412
416
422
432
430
422
414
414
416
415
418
418
417
422
429
430
428
424
427
432
436
438
433
429
435
442
444
441
443
445
450
454
458
459
459
458
452
448
446
452
454
443
449
451
449
444
445
451
456
446
438
438
440
446
445
448
447
450
459
464
468
474
474
474
472
468
463
461
462
464
462
457
454
450
448
449
454
458
459
461
463
464
460
454
452
456
459
462
466
471
473
468
464
465
465
463
465
466
468
466
464
459
463
465
474
479
478
476
479
481
480
478
472
474
476
476
473
472
472
472
472
473
480
495
503
507
508
502
503
514
525
532
540
539
536
531
521
511
509
508
505
499
496
497
496
498
501
500
500
500
497
495
495
504
505
503
502
498
496
494
494
492
489
485
484
479
483
482
479
485
496
504
502
495
484
470
465
462
454
451
455
459
456
450
448
445
436
431
429
435
447
454
452
442
444
446
446
443
444
447
443
445
452
450
450
450
451
445
445
450
450
443
444
441
438
441
447
453
456
452
443
442
445
445
440
441
444
449
455
459
468
471
471
465
464
464
463
462
453
444
440
441
445
449
445
442
444
451
445
444
442
438
440
442
435
433
442
449
452
453
450
448
457
472
491
509
532
566
603
636
669
699
728
751
774
796
825
849
865
880
894
900
909
919
918
909
873
809
737
656
589
526
465
402
333
263
196
129
63
19
17
17
17
17
17
17
17
17
17
52
85
115
144
173
197
212
224
240
257
274
291
308
322
337
352
365
374
382
390
404
422
438
457
474
491
506
515
520
523
530
530
528
528
534
538
542
551
555
556
556
559
554
551
552
559
564
572
573
565
562
564
569
571
569
569
573
571
569
568
570
577
585
582
573
569
562
559
564
567
567
566
572
574
570
566
562
560
558
563
566
569
570
564
565
570
573
571
568
574
582
587
587
582
583
586
592
593
591
587
588
583
576
573
572
579
586
592
599
602
600
593
588
588
595
603
606
608
603
599
604
608
611
615
617
618
622
630
633
637
642
641
629
622
624
630
639
642
645
654
659
658
654
654
655
654
653
657
659
659
656
657
658
662
664
663
664
668
672
665
657
650
647
648
652
655
657
655
652
648
650
651
648
646
642
637
632
630
634
634
631
632
626
621
621
614
607
595
585
576
569
570
570
565
559
552
544
537
529
524
521
514
511
507
504
492
479
475
467
459
453
450
446
442
432
426
420
420
417
406
399
398
397
393
393
395
392
385
371
365
363
370
374
371
362
362
372
376
378
384
382
369
359
361
365
368
367
368
368
368
366
363
363
363
366
370
369
368
373
379
382
379
380
379
377
384
387
380
375
380
385
391
391
389
384
382
388
393
399
399
395
388
388
392
397
400
400
401
400
407
415
419
415
407
403
408
409
408
407
411
412
412
412
415
413
419
424
430
433
430
430
428
426
427
435
439
433
425
423
425
429
430
432
436
439
437
434
429
426
433
437
441
444
447
451
452
451
449
447
447
449
453
459
461
459
462
464
460
457
455
450
446
441
436
444
454
461
462
459
457
458
458
455
452
454
462
465
466
462
456
457
457
457
460
458
457
458
460
456
452
454
458
461
460
464
465
470
477
476
473
467
462
461
465
467
469
470
466
467
464
460
463
473
475
467
466
471
476
476
475
480
482
483
484
481
474
465
465
473
478
477
470
464
461
467
471
471
473
481
485
496
507
514
519
524
529
526
521
518
515
516
521
519
513
506
503
503
501
497
496
509
518
517
507
508
512
510
508
507
504
501
499
496
492
493
493
496
500
500
495
486
482
487
493
494
490
488
479
471
465
462
461
460
461
458
452
448
450
455
457
452
440
429
425
432
437
442
446
439
433
437
447
450
456
461
459
457
458
453
451
451
452
456
458
456
453
448
448
447
446
447
449
447
445
448
453
456
454
454
459
457
455
451
449
445
446
448
450
452
453
451
450
452
453
458
462
457
456
459
460
454
447
444
438
435
438
445
445
445
447
452
460
460
465
478
499
528
559
580
609
648
682
716
754
790
820
846
869
888
902
912
925
937
947
967
987
986
969
919
840
743
650
576
516
449
377
308
238
160
71
17
17
17
17
17
17
17
17
17
24
55
87
118
151
173
195
212
227
238
245
264
280
300
313
326
337
352
363
385
405
417
434
442
457
468
478
483
487
499
510
516
519
523
525
533
541
545
550
549
552
555
550
545
547
553
557
561
565
570
571
562
558
554
550
546
544
545
548
545
542
543
545
550
555
560
562
566
563
563
562
566
568
555
544
539
543
552
561
562
567
571
575
575
570
564
567
568
568
572
574
572
571
574
576
578
582
585
582
579
579
575
568
569
574
574
571
574
581
589
594
594
592
593
593
600
606
604
604
601
607
611
609
605
605
609
605
605
612
620
625
626
626
635
643
648
651
641
635
637
636
633
634
637
637
643
644
649
657
659
664
666
664
661
658
651
648
655
657
664
665
665
652
645
645
645
644
645
650
657
657
648
645
650
652
647
643
637
630
626
626
631
634
631
626
619
613
607
599
591
584
584
586
583
573
567
566
553
539
534
537
536
522
510
506
503
497
488
486
485
480
476
468
458
453
450
447
438
422
409
404
405
408
407
398
391
390
391
393
387
384
379
374
371
364
365
368
372
373
372
367
358
354
353
355
354
352
360
368
368
367
364
366
363
364
371
372
367
374
391
395
384
377
373
375
377
381
374
374
371
371
376
377
377
385
391
392
392
391
389
393
393
391
396
400
407
413
411
403
399
402
407
405
412
413
417
420
420
423
416
409
403
403
404
411
418
424
430
430
431
434
425
413
409
416
426
424
424
429
432
433
439
442
442
444
442
442
443
443
440
439
441
442
445
447
447
452
451
450
446
446
446
445
447
451
456
451
451
455
458
468
464
458
456
457
453
443
439
446
456
455
453
449
447
450
448
452
456
451
451
449
455
460
463
453
451
459
461
462
461
462
464
464
471
473
464
458
463
465
457
452
452
453
452
460
463
465
471
474
473
471
463
459
453
451
456
463
465
466
470
475
475
475
471
465
464
453
451
444
448
456
460
460
466
468
471
469
466
470
469
464
470
473
472
475
481
487
483
484
488
490
489
489
490
488
485
488
489
492
494
488
485
480
481
488
490
496
502
505
497
498
511
519
528
529
529
528
525
524
530
529
523
514
516
517
517
514
510
509
514
518
521
532
534
527
524
523
520
515
507
500
496
497
498
501
496
495
498
500
500
490
486
484
482
477
474
471
476
477
475
466
453
439
435
440
446
445
445
454
453
454
461
456
454
451
447
445
445
444
447
447
443
440
436
437
438
442
442
438
438
446
452
450
446
442
441
441
448
453
456
455
453
451
446
445
443
446
448
451
449
453
454
450
452
452
454
455
453
450
449
447
452
452
451
448
448
448
448
449
440
437
435
432
434
438
441
445
446
441
434
441
451
469
496
528
560
600
641
675
706
744
777
809
837
862
879
901
925
945
959
970
982
990
989
990
990
958
880
779
681
597
533
458
379
297
220
139
57
17
17
17
17
17
17
17
17
17
17
27
64
92
122
147
163
180
201
220
243
265
285
302
315
322
333
345
357
373
389
401
416
430
448
467
476
483
486
492
499
506
511
518
526
531
539
546
551
554
551
543
541
545
547
552
555
559
558
552
545
546
553
558
556
554
552
556
562
559
562
567
566
561
561
558
560
566
572
570
565
560
559
561
560
562
561
560
561
560
560
562
566
569
568
569
567
570
569
570
571
573
574
578
582
592
595
589
588
590
588
579
581
595
599
591
589
589
589
587
580
575
569
571
573
579
591
600
610
617
615
611
609
611
610
612
618
621
608
602
612
624
632
631
632
630
630
637
650
649
649
653
649
648
648
650
654
657
662
658
654
654
654
650
651
655
659
663
661
659
660
660
658
652
653
656
660
661
664
655
644
646
650
652
648
652
655
658
651
635
629
632
636
632
626
624
621
618
616
615
604
598
599
603
599
591
581
563
557
545
533
532
528
525
526
518
508
503
495
479
469
466
465
465
462
451
441
439
436
435
432
430
422
409
395
381
380
385
389
384
381
381
382
382
378
373
375
379
383
381
370
363
361
355
353
356
362
365
366
365
371
373
372
374
379
381
379
373
369
366
366
366
369
374
381
383
386
387
381
371
365
375
382
387
393
398
395
391
395
400
396
387
389
398
406
408
409
404
406
405
408
412
417
419
420
425
418
410
410
408
408
407
409
419
421
420
425
429
430
430
433
433
426
426
426
426
427
426
419
420
430
441
439
437
436
434
435
441
438
438
440
443
442
445
447
454
454
446
447
457
462
458
454
454
456
459
459
456
456
451
449
448
447
449
445
448
459
466
461
457
460
455
448
447
448
453
458
459
455
455
455
457
459
459
460
469
470
464
457
451
452
454
457
463
472
475
478
479
475
475
470
469
471
472
474
472
462
453
451
455
458
456
452
445
450
464
472
471
466
464
469
466
457
453
449
447
456
466
470
465
461
461
464
466
464
462
468
469
468
471
473
480
483
490
493
495
494
488
480
475
473
469
470
476
474
467
474
491
499
512
519
519
523
524
523
529
531
532
529
519
517
515
510
504
503
505
511
506
500
499
499
506
511
507
508
515
514
512
514
509
502
500
501
502
503
503
499
498
498
497
499
499
499
496
494
489
484
480
480
481
475
464
452
444
439
442
440
440
439
445
446
445
444
452
453
460
465
461
452
445
433
432
440
444
446
448
452
451
454
451
443
441
440
447
452
448
448
447
441
438
437
438
442
455
458
456
450
439
438
440
443
455
459
451
447
448
446
446
450
451
449
448
448
456
460
463
460
455
450
454
451
443
437
435
433
435
440
439
436
430
426
424
429
431
441
470
504
532
560
596
629
656
690
727
758
787
821
839
862
889
900
912
936
951
959
972
980
973
952
897
805
706
629
567
505
443
374
305
237
161
93
33
17
17
17
17
17
17
17
17
20
51
74
98
130
163
195
221
231
238
246
248
255
269
291
310
329
347
365
376
384
400
407
419
434
451
466
480
490
489
497
506
510
518
519
522
522
522
526
532
537
542
549
551
547
539
544
546
547
553
555
554
554
551
554
559
551
533
528
528
529
531
537
537
540
551
554
556
557
557
558
558
556
548
543
546
558
566
561
552
551
559
562
563
569
570
574
579
575
565
557
552
550
551
547
549
558
568
573
574
573
582
586
581
579
575
577
584
584
575
574
579
582
586
584
578
578
583
587
587
592
603
608
612
611
605
606
613
616
608
604
605
610
607
604
607
611
618
629
638
640
647
652
645
631
626
624
629
633
638
651
657
659
658
653
652
652
650
655
654
645
639
642
648
644
653
660
649
640
642
643
639
639
641
637
632
630
627
626
625
623
620
618
613
607
598
594
589
592
595
595
586
569
560
558
546
543
541
540
531
522
522
519
514
512
504
495
479
468
460
456
453
448
439
435
428
419
412
403
395
398
400
406
410
400
395
396
395
392
382
377
370
365
360
354
357
352
351
351
353
353
351
353
357
359
359
363
360
355
352
348
354
364
371
375
375
379
370
362
365
368
369
370
370
369
369
369
367
365
360
360
362
363
361
370
375
378
382
389
387
383
383
387
389
391
392
395
390
386
389
393
397
401
400
409
417
411
400
388
381
391
395
398
395
398
400
407
410
415
417
416
418
420
421
424
426
419
417
416
415
423
432
439
438
431
425
421
424
426
429
434
435
433
430
428
433
431
436
438
438
434
440
444
450
460
457
446
439
435
432
438
439
444
445
449
459
454
447
445
447
455
461
460
459
459
455
448
444
448
450
452
448
434
426
425
436
443
445
443
442
443
443
446
448
449
445
444
447
452
459
463
461
456
454
455
454
452
450
451
454
453
452
455
456
458
460
467
472
475
474
473
470
469
465
459
460
466
470
471
474
477
480
481
483
488
487
489
491
495
496
502
508
510
514
510
510
510
512
508
507
499
493
491
491
492
493
492
493
494
491
492
494
492
494
495
497
499
493
481
471
465
462
462
463
467
473
472
477
477
479
480
476
470
468
470
468
468
460
447
434
426
427
425
423
424
426
426
426
425
426
429
432
434
435
441
440
439
439
436
438
440
440
439
440
444
444
449
449
442
438
436
435
431
432
435
436
437
437
437
439
439
448
450
447
445
442
437
436
430
427
434
439
444
448
443
436
435
433
428
427
438
450
451
447
436
430
429
432
435
434
430
427
424
431
434
434
430
428
424
421
418
421
438
467
492
513
539
573
610
646
677
708
738
765
786
808
835
855
867
879
885
881
884
900
909
888
834
766
688
620
561
497
430
366
299
231
159
92
36
17
17
17
17
17
17
17
17
17
26
63
91
117
148
179
193
200
218
237
257
273
285
296
312
331
345
364
378
388
401
414
424
436
444
451
460
472
485
488
495
504
512
519
525
531
534
537
538
537
536
538
547
551
544
540
545
552
550
551
551
555
557
556
552
552
553
547
549
552
552
551
557
554
553
554
555
558
561
566
569
568
569
568
567
568
567
566
564
559
554
550
550
556
560
562
561
565
567
567
570
569
560
558
559
561
564
566
569
568
566
576
588
592
585
575
570
572
578
585
585
582
584
588
587
586
584
586
593
600
600
599
601
602
604
609
608
606
607
617
625
624
629
632
634
635
632
631
635
631
629
629
628
632
641
647
644
645
648
651
653
650
651
654
656
659
659
655
656
660
658
656
652
652
653
649
648
652
651
643
640
639
638
629
629
629
630
628
628
625
627
628
628
625
625
618
607
592
585
581
578
571
562
546
538
538
540
541
533
521
515
512
505
499
494
482
471
460
451
445
441
444
451
444
432
419
415
418
416
406
393
383
378
380
377
376
369
368
366
366
364
364
373
373
372
370
364
355
358
367
367
360
356
353
363
366
364
362
358
354
359
362
363
365
367
364
364
363
361
359
356
358
361
360
364
371
377
383
383
386
385
385
385
385
377
373
377
381
383
387
396
393
391
392
393
397
401
401
397
400
404
400
398
402
409
407
405
403
408
412
415
412
411
414
418
419
423
420
413
404
409
412
419
429
430
431
428
425
420
422
425
427
424
428
435
432
430
429
431
434
438
444
447
450
456
454
450
443
445
443
445
453
455
454
449
448
442
438
444
451
454
456
450
442
438
434
433
436
442
453
461
463
463
465
458
456
458
459
457
462
466
465
464
464
461
457
452
452
449
444
446
451
456
459
462
460
457
455
455
457
463
468
472
473
465
462
458
461
466
472
475
473
472
469
471
470
474
477
477
476
477
481
478
477
474
475
475
477
473
466
462
461
470
479
484
493
499
504
507
509
510
512
516
518
516
513
515
516
510
503
502
503
502
509
513
516
518
511
501
504
510
510
510
511
505
498
498
495
493
492
490
488
485
482
486
486
478
479
480
479
479
480
483
481
480
481
475
467
464
457
450
441
439
440
442
444
444
443
448
450
457
461
458
450
448
448
446
450
441
435
438
439
445
446
445
447
448
450
449
444
443
448
457
463
465
450
449
454
462
475
465
449
446
447
457
467
464
448
444
450
456
462
466
473
485
466
453
447
439
440
447
457
464
470
470
454
429
426
428
435
439
437
435
440
452
463
484
465
441
433
440
463
498
538
574
615
652
682
722
764
793
813
839
868
890
908
923
932
940
950
968
978
978
961
918
848
754
660
588
533
471
404
339
263
181
91
17
17
17
17
17
17
18
17
17
17
51
84
116
148
170
192
208
215
233
246
255
268
290
306
316
332
348
365
390
408
425
444
460
470
473
482
489
490
495
505
514
517
523
528
532
541
542
542
546
544
544
548
549
552
545
541
545
545
543
539
543
547
549
549
551
553
553
557
556
559
559
561
565
563
563
561
554
551
554
549
550
552
561
564
567
569
568
559
552
558
562
559
549
547
558
568
575
574
567
565
566
561
561
562
566
570
572
571
575
583
587
590
588
589
588
586
585
582
582
583
583
584
585
583
581
589
599
603
606
602
600
597
598
605
613
619
624
635
638
632
624
620
621
623
628
630
637
636
631
625
626
630
633
637
644
654
660
663
659
655
654
658
664
664
667
667
663
660
656
657
656
650
649
652
657
659
662
658
648
645
651
656
653
648
638
638
640
634
630
629
629
629
629
626
614
610
607
607
600
600
596
592
585
577
567
563
561
556
548
542
538
531
519
506
492
485
484
485
489
483
468
455
447
441
435
429
423
414
411
415
421
423
417
413
413
414
403
391
391
384
377
372
365
363
371
380
382
378
369
355
353
363
373
375
378
372
360
359
360
363
364
366
365
368
369
376
377
384
392
389
386
384
377
376
383
386
382
382
385
387
384
376
379
388
394
396
396
399
402
403
409
407
400
395
397
401
405
407
409
406
402
408
413
413
412
411
410
410
411
414
420
431
438
434
428
433
435
435
427
424
427
432
432
430
427
428
436
446
455
453
445
437
436
437
439
443
438
440
441
441
439
445
455
461
461
455
457
451
445
440
444
449
457
458
457
453
454
455
457
458
458
461
463
469
469
469
467
463
461
466
466
456
448
446
447
451
460
465
471
468
469
470
470
468
467
470
461
451
444
445
452
461
467
472
475
473
468
472
471
466
468
471
470
466
460
462
466
466
465
462
464
468
465
459
458
461
470
472
474
472
470
471
467
460
469
477
481
489
489
483
478
481
479
473
463
455
455
459
464
467
467
473
487
495
491
493
491
491
493
489
485
486
488
490
496
500
499
494
483
479
477
480
487
502
512
510
504
505
506
511
522
527
531
535
539
534
530
534
531
519
508
510
515
524
525
521
516
519
524
529
530
532
526
518
514
512
512
519
522
520
519
508
499
498
499
499
492
490
495
503
501
494
489
487
489
486
484
481
474
463
455
452
447
450
453
457
454
451
451
454
460
457
455
451
452
450
447
447
449
448
452
456
462
461
460
462
467
469
466
464
463
463
467
459
448
447
454
461
461
455
447
437
435
440
445
448
451
453
449
449
446
447
459
466
464
462
469
467
463
457
458
453
450
450
450
459
454
452
449
444
443
441
435
433
437
444
454
459
461
466
477
498
526
564
598
627
670
712
751
788
826
861
886
900
923
947
963
977
990
990
989
989
989
989
962
865
760
666
590
529
460
381
302
225
143
55
17
17
17
17
17
17
17
17
17
17
37
77
110
142
170
182
194
209
228
248
265
280
295
306
317
333
352
373
394
408
430
445
464
483
491
491
495
496
501
509
504
511
515
524
539
547
552
552
552
553
551
551
551
548
546
552
557
555
550
557
564
567
563
563
565
565
561
561
560
559
561
562
558
560
562
560
559
562
566
571
573
573
573
575
575
578
580
576
572
571
565
564
569
574
578
580
573
560
560
571
583
584
579
578
584
585
589
589
586
587
587
591
590
589
587
586
584
581
585
591
596
595
592
597
604
606
606
607
615
622
625
624
619
616
613
613
618
626
630
630
629
628
633
637
646
648
652
657
661
659
658
660
661
663
666
661
658
661
667
667
663
667
676
683
678
678
671
665
667
669
672
671
670
669
670
671
678
682
675
671
665
660
649
642
638
638
644
645
642
639
636
634
632
632
631
634
633
627
620
611
613
611
598
583
578
574
568
563
558
551
541
536
531
522
509
504
501
497
491
480
474
467
461
457
450
441
437
435
428
422
419
414
407
405
404
397
390
384
381
382
380
378
380
380
377
375
372
368
369
372
370
362
360
361
364
368
371
376
379
379
375
372
378
378
370
370
369
371
370
365
369
379
391
405
404
394
391
390
389
384
384
384
378
375
377
385
391
396
397
400
398
396
396
400
401
404
411
416
416
411
409
411
414
418
417
413
414
418
423
424
419
415
416
418
418
415
417
416
419
425
422
426
434
435
435
435
438
441
442
435
432
434
435
440
443
447
449
450
450
446
446
446
449
450
454
459
461
464
466
471
461
454
460
461
457
453
448
449
455
457
455
455
456
458
457
458
459
459
458
456
450
453
461
466
465
468
472
471
467
470
468
463
462
465
469
469
471
469
470
474
473
472
470
468
472
476
473
472
470
469
467
465
465
455
452
455
461
463
465
467
470
473
473
472
470
473
478
483
478
469
462
459
461
468
473
474
470
475
479
480
485
479
465
458
465
472
474
477
478
474
470
470
475
478
477
473
473
478
484
484
492
497
492
491
499
507
509
508
503
491
486
479
473
475
486
496
505
504
498
502
509
515
521
529
531
531
526
527
531
534
532
534
536
530
528
530
524
518
515
514
510
513
516
518
517
522
528
531
532
537
539
531
525
520
518
517
517
512
503
498
499
499
501
501
495
489
486
491
491
488
480
478
477
473
473
471
466
458
448
444
442
442
448
448
451
456
456
456
462
462
461
464
463
457
457
458
459
457
453
456
458
455
454
456
457
461
458
459
459
457
448
453
457
460
462
465
465
462
458
450
451
461
469
461
458
458
458
465
467
468
467
468
468
463
462
465
463
454
449
452
455
457
463
460
455
444
441
440
446
448
437
432
429
431
438
452
463
485
515
549
587
628
661
691
726
764
800
829
859
888
910
935
957
981
990
990
989
989
989
989
987
933
841
737
645
572
504
431
358
287
210
120
48
17
17
17
17
17
17
17
17
17
50
82
107
134
153
170
192
218
233
242
255
272
291
307
315
327
343
360
375
392
409
418
432
448
466
480
490
489
492
503
509
512
516
526
535
540
555
569
573
571
559
534
538
544
539
541
546
551
554
552
549
544
545
552
555
558
559
566
565
562
562
559
562
564
567
566
561
560
567
576
573
569
571
573
568
564
561
559
561
563
564
573
580
581
574
574
569
563
564
573
587
594
588
585
579
578
581
587
585
585
578
574
578
585
585
584
582
580
586
591
594
598
599
592
586
586
593
605
606
608
615
619
624
617
616
622
623
621
624
627
626
629
630
631
638
645
644
642
646
652
663
673
671
669
668
652
644
648
648
647
654
659
661
660
658
660
666
667
665
668
676
677
681
679
678
671
661
651
648
647
651
654
659
663
654
650
653
658
659
654
646
639
643
645
640
633
625
604
589
592
594
585
579
578
579
576
565
553
543
537
530
523
516
512
508
515
522
514
499
479
468
455
452
451
448
444
434
429
428
427
424
426
419
412
413
404
394
392
385
378
377
384
387
384
384
389
399
400
392
391
381
372
360
356
359
365
367
368
363
366
368
371
370
372
377
375
372
370
375
377
375
375
376
383
391
397
405
407
402
400
398
393
391
390
389
387
389
395
399
400
396
395
396
397
400
406
408
408
407
402
402
401
405
412
417
419
411
408
408
410
411
416
416
418
421
426
422
418
419
422
419
416
415
417
424
437
448
455
455
450
438
435
441
440
438
437
441
448
453
456
455
448
444
442
451
464
463
456
450
453
458
464
460
455
457
457
455
456
458
462
471
468
463
460
458
456
462
466
471
467
460
464
467
464
458
461
458
463
467
467
461
464
462
453
455
457
467
470
473
473
473
470
468
467
460
462
460
455
454
463
469
467
466
467
468
469
470
472
476
488
484
470
455
456
462
469
476
480
476
473
470
475
479
478
474
472
473
482
491
491
486
487
490
493
490
480
485
485
481
480
492
497
492
489
488
492
498
501
509
510
510
516
523
518
517
523
525
525
522
526
529
528
520
514
516
511
507
505
500
497
502
506
508
514
514
512
516
521
517
509
504
512
519
512
502
490
490
493
491
493
491
490
488
488
494
494
491
490
482
479
478
469
462
457
452
454
455
461
465
460
456
454
455
452
448
446
441
444
445
449
451
454
458
461
461
455
452
449
456
454
457
461
466
463
457
456
462
467
468
463
457
453
456
456
449
449
454
454
457
461
458
461
464
465
460
458
456
451
456
460
458
458
462
470
471
468
463
455
449
449
450
446
447
451
448
444
439
441
444
442
441
440
439
443
452
466
487
516
555
596
632
658
677
707
745
781
808
835
863
882
901
923
940
955
968
971
974
964
939
886
811
720
638
576
516
459
399
333
267
189
123
75
34
17
17
17
17
17
17
17
38
60
77
102
131
164
193
213
225
237
252
270
285
299
307
325
344
360
372
379
386
400
414
426
440
453
466
479
491
508
514
512
515
520
526
529
533
535
538
541
550
556
555
552
549
540
542
548
546
548
550
553
551
554
561
565
566
565
564
561
557
557
559
561
561
563
565
568
567
567
565
568
571
571
565
562
559
558
557
552
554
559
568
566
564
564
566
570
571
568
567
565
563
563
565
569
577
579
582
587
584
584
586
584
582
583
582
581
580
584
587
590
595
599
605
608
606
605
598
590
592
601
611
622
618
618
620
624
627
626
624
623
628
630
632
636
642
646
648
652
656
662
657
646
642
647
656
659
657
653
650
649
652
653
657
660
663
663
664
666
662
661
661
662
662
663
658
648
647
652
655
653
646
637
633
639
645
645
642
639
636
637
630
618
614
615
607
601
598
596
595
592
592
585
572
564
561
558
552
546
537
525
513
506
502
501
496
488
482
479
470
460
454
442
436
435
433
435
430
420
409
402
398
396
391
387
384
381
383
385
385
379
373
368
367
366
370
367
363
365
367
365
362
365
369
367
367
370
364
363
363
368
369
363
359
357
366
373
378
384
387
387
386
381
374
374
384
389
385
381
379
379
381
384
383
378
378
383
386
387
389
387
385
384
385
387
395
403
403
407
409
418
423
416
413
415
418
420
416
416
424
424
417
410
407
411
416
416
411
410
415
418
422
431
433
434
435
439
444
443
435
432
433
435
437
437
438
440
447
447
446
446
447
448
446
446
442
442
442
442
445
449
451
450
448
446
448
451
453
457
459
457
461
471
470
458
451
453
460
462
457
453
453
458
463
467
467
464
465
464
457
455
454
456
459
460
460
458
459
458
460
460
457
450
453
463
463
464
467
477
482
478
468
456
455
462
466
467
469
466
468
467
461
458
460
465
465
467
469
469
463
472
486
476
469
474
473
473
478
480
476
477
480
485
485
479
480
485
489
488
485
486
484
478
473
477
484
494
506
508
510
506
507
500
499
505
513
518
519
517
513
510
510
509
506
504
501
501
511
520
523
519
513
508
505
506
506
504
505
506
503
499
498
500
508
501
494
494
491
492
495
491
488
491
488
479
481
488
482
470
465
461
457
451
449
446
443
442
442
446
450
451
447
447
449
445
446
448
449
456
457
450
448
454
459
461
460
454
447
442
441
445
452
454
451
449
451
451
454
453
457
456
456
458
458
453
451
451
450
454
452
449
444
446
448
452
455
458
462
462
462
458
454
454
460
469
474
471
468
467
462
456
455
451
445
441
436
433
439
444
438
439
441
449
469
495
524
553
587
623
659
685
708
737
770
802
824
844
866
883
898
908
920
929
944
960
959
933
878
805
715
639
572
513
447
372
299
232
160
71
17
17
17
17
17
17
17
17
17
35
73
105
132
160
183
198
216
230
243
257
269
284
301
318
332
349
364
380
395
408
425
438
452
465
474
485
492
497
505
512
519
522
524
530
539
547
548
547
541
539
542
548
546
544
546
551
551
549
548
552
557
558
556
558
565
571
566
562
555
551
548
547
545
542
543
549
553
551
551
558
562
557
554
548
544
549
555
552
556
570
577
578
574
568
561
556
559
569
579
585
581
573
564
559
560
563
567
568
569
568
572
579
582
581
576
574
579
587
588
589
597
594
589
586
583
582
591
596
601
604
604
606
609
615
625
626
629
628
619
615
624
627
628
627
626
626
625
628
633
634
638
641
640
641
639
637
639
637
639
645
650
652
651
647
647
651
654
656
657
660
664
668
669
665
658
650
652
657
657
650
640
635
628
621
622
631
630
630
626
620
619
611
604
602
599
599
603
598
593
590
584
575
571
567
560
555
555
556
548
538
534
528
522
513
497
475
481
489
488
479
467
465
444
435
434
429
424
421
419
416
406
398
392
384
388
391
389
380
375
372
367
363
360
361
364
362
364
364
362
363
370
376
384
387
384
375
368
364
365
365
367
362
361
366
368
367
363
360
361
363
363
370
380
382
388
388
385
380
378
378
377
381
389
392
401
407
407
402
396
384
379
382
388
397
402
406
408
402
397
396
399
402
405
411
416
423
424
420
422
424
419
418
421
416
414
415
410
413
419
425
430
433
435
440
440
439
433
424
419
419
419
421
438
450
450
450
450
446
447
448
448
441
436
439
442
441
437
439
439
445
450
450
457
462
460
454
447
442
440
445
446
441
447
460
468
470
466
463
457
453
453
452
450
444
454
462
465
466
466
462
456
451
455
457
460
459
462
468
467
465
462
464
464
456
455
461
463
469
474
473
475
475
476
477
469
467
465
467
472
475
473
469
465
464
468
471
473
474
477
484
485
477
469
469
473
480
483
484
488
484
476
471
470
471
471
475
484
496
507
510
510
514
520
526
530
533
529
524
525
523
519
514
509
505
506
505
507
507
508
504
501
500
506
511
513
512
508
507
508
508
497
489
495
508
511
512
514
509
500
496
484
487
494
506
507
495
485
480
474
460
454
450
448
443
440
443
448
442
444
447
449
446
444
444
445
449
451
447
447
443
435
434
439
444
448
448
446
445
447
448
447
452
459
461
463
469
469
462
452
450
450
448
452
456
458
462
463
463
461
450
442
443
450
457
459
459
458
461
464
453
441
442
445
447
453
451
451
453
451
458
465
463
452
445
444
445
441
435
434
446
451
452
454
460
481
506
529
564
604
644
670
705
751
785
809
837
863
879
904
924
931
943
958
978
990
989
990
976
924
841
735
651
587
528
450
369
290
215
134
43
17
17
18
17
17
18
17
17
17
17
54
93
131
162
179
192
208
224
237
246
264
290
308
317
328
336
343
359
382
404
430
450
464
473
481
483
489
495
499
504
507
511
520
530
541
546
553
552
543
546
552
553
554
558
554
551
556
561
561
558
551
548
550
548
550
558
560
558
558
560
559
561
558
559
567
569
569
562
554
543
543
551
557
557
553
551
556
560
558
560
563
565
570
570
571
569
567
563
568
573
573
577
578
581
580
571
571
573
575
580
581
579
582
589
597
595
588
574
571
579
589
592
598
602
607
610
600
595
599
604
601
603
610
611
610
614
617
622
626
627
632
640
648
650
639
628
628
634
637
641
644
649
655
657
657
656
651
658
667
666
662
662
659
650
644
645
651
655
653
656
660
662
664
660
652
652
656
660
657
653
656
663
666
660
649
639
636
633
623
619
613
613
619
621
623
626
624
613
603
590
573
567
568
560
554
551
551
551
548
543
535
529
520
511
509
505
488
474
467
458
454
449
446
438
434
428
422
422
420
416
417
418
414
412
403
390
388
383
381
383
381
380
381
375
372
367
358
355
355
358
367
367
367
361
366
365
357
354
356
364
372
377
378
376
373
370
368
367
374
374
376
374
371
368
369
377
385
392
389
385
387
391
390
395
393
387
387
390
399
408
413
410
400
393
389
392
397
398
389
389
394
399
405
409
407
403
408
412
416
418
418
414
416
418
422
429
433
430
426
426
425
423
416
416
422
424
423
424
427
432
439
442
443
441
440
439
435
432
437
438
444
445
447
445
445
446
446
449
452
453
451
447
444
448
450
455
457
456
456
452
447
445
455
460
461
462
459
459
460
464
468
466
463
459
456
451
450
453
462
462
468
469
464
460
457
458
459
460
460
461
464
465
468
468
466
464
461
464
471
469
465
463
461
461
463
467
467
464
462
458
455
458
461
466
462
461
467
472
471
464
454
452
451
453
457
463
466
470
473
475
479
476
474
466
463
461
458
461
466
463
461
466
472
475
475
475
473
468
470
473
478
484
489
494
503
495
486
489
496
500
501
499
493
495
490
486
485
480
478
483
489
497
502
508
512
514
513
517
524
527
522
520
523
532
535
527
526
528
520
508
507
513
509
504
511
520
520
519
514
515
522
524
516
515
516
515
516
517
518
515
509
500
494
495
497
496
498
496
492
497
495
486
485
485
477
480
486
479
471
463
451
440
435
434
437
437
439
440
448
452
453
453
449
448
445
447
444
438
437
442
440
440
443
449
452
450
444
446
449
443
446
447
453
460
463
459
450
454
458
459
460
459
452
447
450
450
451
462
465
463
453
441
433
432
435
445
453
456
459
456
454
451
452
456
459
459
449
439
439
445
444
438
435
435
439
440
447
457
474
494
521
549
569
601
637
673
710
746
793
831
858
886
912
930
943
958
979
990
989
989
989
989
976
912
818
714
626
557
487
411
331
264
185
98
23
17
17
17
17
18
18
17
18
17
18
52
84
108
128
148
169
187
210
234
257
270
284
299
307
325
342
357
369
386
410
426
439
454
469
478
483
491
503
513
516
518
524
525
528
530
535
539
543
543
544
548
549
544
534
533
533
538
551
555
550
552
559
562
558
555
554
554
556
564
566
567
573
573
577
579
576
570
562
556
549
549
555
559
561
560
554
551
555
569
576
577
570
560
558
561
558
557
570
589
596
585
579
578
581
580
574
577
582
586
588
581
578
581
587
594
594
587
580
583
593
601
597
591
590
596
605
609
612
611
606
606
601
600
606
607
608
615
621
621
624
629
632
633
640
643
644
646
643
646
650
649
652
654
647
650
665
676
676
671
665
662
665
664
663
664
666
668
666
667
671
670
668
662
657
653
655
663
664
666
672
667
654
650
650
648
648
647
645
640
632
631
630
631
630
624
616
609
606
604
607
611
607
598
594
588
574
558
544
539
541
542
537
530
526
525
515
504
497
494
486
474
464
464
462
456
443
432
428
427
418
410
410
410
406
408
407
401
396
387
380
381
375
369
369
372
370
370
373
377
379
378
375
372
371
372
371
375
381
384
388
387
375
365
366
376
375
377
380
384
384
376
372
371
372
370
372
369
371
377
378
382
387
391
391
387
384
385
390
396
394
393
394
395
393
399
406
411
414
410
405
413
420
425
428
423
414
407
408
413
419
420
419
425
427
426
427
431
427
422
424
425
424
421
427
433
438
435
434
431
434
439
441
448
453
461
462
460
457
452
437
427
427
433
444
452
459
465
463
458
454
453
449
450
457
458
456
447
441
441
447
458
460
460
457
454
459
463
461
467
469
467
464
464
464
466
465
460
451
450
450
451
455
459
462
463
468
468
468
467
467
468
470
470
471
473
471
468
467
468
468
461
458
464
466
459
465
468
459
453
456
460
467
472
467
472
471
471
461
465
467
470
473
475
474
471
464
464
466
465
469
471
474
472
470
476
483
479
473
470
468
467
472
478
486
486
484
479
477
476
481
492
497
495
493
500
500
491
484
482
479
480
484
489
496
503
509
513
524
530
530
531
531
531
530
527
526
527
524
520
513
505
502
510
514
515
518
521
521
524
524
518
515
513
514
520
514
507
497
492
493
495
492
490
488
487
484
486
494
502
501
496
494
495
488
482
472
464
461
450
446
456
469
474
473
463
448
442
441
445
447
450
453
451
450
453
454
451
450
456
455
451
448
443
446
460
468
467
465
459
446
438
439
441
437
450
466
467
464
460
460
464
465
466
464
461
460
460
450
447
452
460
464
459
456
464
467
457
454
450
453
459
461
463
459
460
454
450
446
445
450
451
448
449
452
454
456
459
460
449
447
463
492
526
561
597
634
670
710
745
769
789
820
853
884
910
924
941
955
966
977
990
990
976
937
873
779
689
617
553
488
425
356
289
217
143
85
31
17
17
17
17
17
17
17
17
33
62
79
99
135
167
192
203
213
229
249
262
280
305
323
342
355
369
382
395
410
424
426
433
445
469
490
501
509
505
504
512
520
523
526
535
540
541
541
543
551
558
558
558
558
558
559
557
554
557
559
561
561
561
565
564
566
565
561
559
558
558
562
569
574
574
577
582
579
571
566
562
557
551
556
554
551
555
564
569
571
575
575
568
561
557
561
565
563
564
568
576
573
572
579
581
582
581
580
580
579
578
583
592
596
592
585
585
591
595
596
600
599
595
593
597
600
603
605
608
616
619
617
612
611
612
612
622
633
640
638
644
646
637
633
644
652
647
635
636
635
635
641
650
653
653
651
654
654
652
650
655
664
670
669
664
658
657
660
669
671
666
656
649
655
661
668
665
658
659
668
671
661
653
651
643
631
629
628
622
623
625
620
618
620
617
609
602
596
594
590
588
587
581
575
567
558
551
548
543
536
526
522
530
530
526
519
505
487
477
473
465
454
447
447
447
439
432
430
423
417
408
404
396
390
386
380
380
383
384
381
377
373
370
367
368
376
376
376
374
370
369
371
370
366
366
371
375
371
364
366
371
374
375
378
385
388
386
386
384
390
392
381
372
375
384
381
372
372
386
387
388
388
392
390
388
388
390
390
392
392
390
393
397
399
400
401
405
407
399
391
387
397
405
405
409
414
419
419
414
419
428
430
425
420
419
417
420
428
434
431
424
422
424
430
430
434
439
447
448
441
432
425
425
434
440
440
440
439
436
440
441
442
441
439
441
455
464
463
463
463
463
464
458
454
449
448
448
449
450
451
451
453
457
458
459
460
462
465
472
483
487
474
454
448
448
452
462
460
455
453
454
461
468
468
461
458
450
448
454
458
457
456
456
459
464
463
471
476
475
475
475
469
463
459
461
467
471
472
477
479
474
469
469
470
472
471
467
467
470
470
466
463
466
475
482
486
486
480
480
481
485
487
486
487
489
490
493
495
501
504
500
500
506
517
530
539
541
533
523
513
502
500
502
496
490
493
503
511
512
510
512
510
511
515
516
507
504
504
505
502
497
493
492
491
488
486
485
487
488
485
479
476
481
489
493
501
492
479
476
475
474
470
466
458
447
447
446
443
442
442
436
437
444
447
449
449
448
451
453
449
442
435
435
434
439
445
451
463
467
465
461
455
450
445
442
446
449
449
447
441
436
435
441
443
438
435
435
435
439
449
458
458
454
453
452
449
447
452
455
457
460
458
460
461
457
455
460
459
459
458
458
457
456
452
446
445
443
440
443
442
430
425
434
444
461
475
494
519
548
576
610
643
669
699
730
760
786
814
846
874
889
904
917
918
911
917
930
923
894
845
777
694
619
557
492
426
356
287
218
145
76
26
17
17
17
17
17
17
17
17
17
32
58
81
101
130
163
192
218
237
253
266
278
289
306
327
352
367
378
387
400
415
427
436
446
464
481
495
502
508
506
509
515
517
521
524
536
547
553
555
557
558
561
566
568
566
566
566
563
559
548
543
549
558
563
561
565
565
567
568
567
565
568
574
578
580
579
573
571
570
568
563
562
561
567
569
564
564
567
569
568
561
558
559
564
569
573
574
568
566
571
581
583
586
591
591
590
584
579
570
565
567
572
581
590
598
594
591
590
587
581
581
589
599
602
606
608
606
600
599
602
605
610
612
610
612
626
633
634
632
629
628
627
626
633
642
643
643
645
646
646
649
655
657
659
657
666
672
662
654
648
641
644
652
655
656
659
662
663
664
661
659
660
661
664
668
668
670
667
656
643
629
629
633
637
644
648
648
648
644
638
631
623
617
614
611
613
605
597
588
583
583
582
580
575
566
555
547
544
541
537
531
519
505
494
487
483
478
477
478
475
467
460
455
453
447
435
423
410
403
402
401
400
399
397
394
393
391
388
383
380
376
368
365
362
363
363
366
371
369
365
361
359
355
355
358
364
365
367
368
367
365
363
363
364
367
368
373
378
377
384
391
394
396
391
382
375
371
378
381
381
385
386
385
387
389
389
392
401
404
399
397
391
391
388
381
386
395
400
403
410
414
412
408
408
411
411
405
405
410
413
415
416
415
420
423
425
422
416
411
409
410
415
417
416
424
436
441
443
439
435
434
438
443
440
435
434
436
441
444
444
446
448
450
456
458
455
448
441
441
445
451
458
455
452
454
452
450
448
449
453
454
451
452
454
453
457
453
446
444
452
457
458
455
453
453
454
456
460
464
464
465
467
467
460
455
451
450
454
463
465
464
460
459
456
463
470
474
477
474
473
469
464
457
459
459
449
448
454
461
465
465
464
463
462
459
463
468
465
462
468
475
477
483
482
477
480
484
485
479
474
470
472
477
478
474
468
470
475
479
474
474
478
479
482
486
493
495
501
509
514
525
530
527
520
517
511
513
519
519
514
506
496
494
494
492
498
506
514
509
511
509
507
504
505
506
506
504
500
501
498
494
495
496
489
484
488
491
498
503
508
502
489
490
489
481
474
467
461
459
451
440
434
428
425
435
451
458
458
455
447
445
443
443
440
444
449
455
458
458
457
453
451
450
454
458
459
453
448
447
447
451
451
452
448
447
453
452
448
438
431
437
445
449
458
455
449
445
445
455
458
459
456
456
461
461
461
457
453
450
445
444
449
452
451
448
451
451
452
451
449
447
445
441
439
436
444
446
443
441
441
449
468
486
509
539
578
611
643
663
691
734
781
819
839
862
886
905
919
935
957
972
984
988
985
978
947
884
790
690
614
559
506
433
356
269
178
88
18
17
17
17
17
17
17
17
17
17
45
86
117
151
178
192
205
209
216
227
246
263
279
298
317
328
342
359
374
387
403
417
435
453
467
477
479
486
490
498
508
514
514
515
527
538
543
551
555
553
543
536
537
541
545
546
546
545
550
553
543
531
535
539
543
549
550
552
552
546
541
541
541
543
544
546
552
550
543
547
558
556
554
557
557
556
556
559
557
560
562
560
557
562
569
570
568
571
574
571
566
561
560
569
578
581
574
562
556
561
571
579
579
576
574
572
571
572
574
571
569
568
574
583
594
599
596
599
602
605
607
608
615
618
620
614
613
614
617
615
614
610
607
606
607
610
615
624
632
637
641
644
643
650
650
652
655
653
648
642
641
648
651
654
657
654
644
638
637
646
656
662
661
663
666
659
653
648
649
645
632
623
619
623
632
632
634
636
633
633
633
629
617
604
600
606
611
607
594
585
585
586
578
570
564
560
554
546
537
530
527
524
524
521
509
496
486
480
477
475
472
466
460
457
451
437
427
422
422
416
403
399
397
394
394
394
392
389
382
377
373
366
367
365
364
365
364
356
348
348
351
351
356
356
356
356
359
360
357
356
358
366
369
367
366
371
370
367
363
366
372
374
375
376
381
382
376
369
370
371
377
377
377
380
386
386
389
389
388
384
385
388
387
389
390
394
395
399
408
411
408
408
407
404
406
408
406
406
403
405
403
402
403
406
410
409
412
409
408
413
421
425
428
428
427
426
431
430
424
425
427
436
450
451
438
425
421
420
422
427
436
445
444
438
434
432
440
442
437
437
444
448
450
450
448
452
452
449
448
451
455
448
440
444
447
451
455
450
446
441
437
435
442
447
449
447
442
438
437
443
449
450
449
450
454
456
458
457
455
453
456
464
473
479
473
464
461
460
451
449
448
449
453
457
456
455
462
468
471
467
460
448
449
453
459
459
457
452
446
451
454
448
442
444
447
452
455
454
457
462
461
459
455
461
471
470
463
460
462
464
461
464
461
459
463
468
471
475
479
483
482
481
477
475
475
473
478
477
472
472
481
485
483
481
477
477
478
476
474
472
480
486
495
497
503
510
518
516
514
522
528
528
526
517
513
511
512
513
514
512
519
521
524
523
516
518
523
516
505
500
489
487
490
491
489
496
497
489
485
483
484
483
487
488
488
491
488
486
484
478
475
472
463
455
450
447
440
436
439
436
436
439
441
438
441
443
443
441
442
444
443
442
440
438
437
438
443
449
451
448
447
445
446
450
456
455
448
442
439
437
439
443
451
449
442
438
437
438
445
453
454
450
456
464
461
452
443
435
431
436
441
441
435
432
435
442
450
453
453
449
449
457
466
467
458
443
433
427
426
433
430
430
434
445
452
457
470
493
519
556
592
629
667
699
735
769
799
829
859
882
906
929
944
964
983
990
990
989
989
989
969
895
794
692
608
543
474
395
315
243
162
69
17
17
17
17
18
17
17
17
17
17
23
60
96
128
155
167
183
198
210
224
241
259
278
293
306
314
324
343
372
392
404
422
438
453
468
474
476
477
488
498
505
510
521
529
529
533
534
536
539
541
542
544
548
549
544
537
533
538
546
555
560
558
551
548
547
551
552
554
554
552
551
549
547
547
544
543
545
552
554
555
558
561
556
557
556
552
551
547
543
550
558
558
559
557
562
566
572
571
568
569
570
567
569
568
557
552
555
561
569
572
575
580
581
588
587
587
593
594
583
568
567
567
578
581
584
582
579
581
587
595
599
598
598
605
610
611
617
620
619
615
614
622
625
623
625
635
641
639
638
636
637
646
649
645
640
644
648
652
660
658
659
661
662
663
666
661
656
657
651
643
641
645
648
647
637
638
642
652
659
661
656
652
646
637
627
627
629
631
631
629
630
627
622
622
616
607
605
600
592
587
591
586
578
576
570
566
567
563
555
545
535
526
522
516
504
496
491
486
478
471
464
459
458
458
449
443
439
437
426
418
414
412
403
394
388
386
384
381
379
383
387
387
386
379
373
369
367
362
362
368
369
368
362
359
357
358
355
354
354
356
359
351
349
350
356
361
360
366
371
376
375
375
376
375
372
370
371
372
376
380
377
377
379
376
376
379
382
383
376
376
382
385
385
388
397
395
392
395
394
396
402
406
407
409
410
406
404
401
401
406
412
416
412
410
413
416
415
419
423
427
425
424
422
422
422
425
430
433
434
436
440
444
433
427
436
443
443
445
449
455
457
447
438
439
442
440
440
444
447
452
453
447
444
439
437
439
435
433
438
440
440
445
447
446
443
440
438
441
445
452
458
457
457
456
456
463
466
458
454
448
445
451
454
457
458
462
470
473
471
468
469
461
453
447
444
446
449
452
455
461
466
462
461
466
468
465
460
460
458
456
455
459
460
460
459
463
462
466
474
479
468
454
451
450
454
456
458
456
459
462
463
469
472
464
460
460
461
464
464
464
460
462
468
473
474
472
473
476
480
479
480
481
483
481
479
475
469
471
478
489
497
497
500
499
494
494
503
508
505
509
513
523
529
534
534
528
523
528
534
532
524
511
502
494
496
505
512
514
517
519
522
527
525
521
517
514
510
506
502
500
503
503
497
492
489
493
499
497
495
493
499
505
499
501
500
491
486
478
464
448
437
431
427
426
431
435
442
447
446
446
446
447
448
446
444
445
450
452
453
447
447
448
449
448
444
444
447
449
451
457
463
464
455
449
453
448
442
441
441
442
447
454
453
456
463
461
462
460
454
456
462
457
456
458
461
464
462
456
447
441
442
442
443
444
447
455
457
458
450
443
436
437
439
439
440
447
443
442
441
434
433
450
467
493
523
549
577
617
660
699
737
778
813
843
872
893
914
926
942
963
984
990
989
989
989
990
962
891
789
684
597
528
458
380
304
235
156
74
17
17
17
17
17
17
17
17
17
17
21
60
92
125
153
169
176
190
212
232
252
273
294
314
326
339
356
371
386
392
402
417
438
460
473
478
482
495
508
518
525
529
530
535
540
540
544
548
552
556
560
561
558
555
554
558
558
553
553
555
559
563
564
562
560
561
567
568
566
571
568
557
550
550
559
563
567
570
570
571
570
568
569
566
565
573
578
577
571
568
568
573
579
581
579
572
572
576
570
564
568
575
585
585
580
574
573
572
575
586
589
587
581
577
578
586
595
598
600
600
596
592
585
582
585
591
597
602
610
617
617
616
612
611
614
619
621
620
621
623
621
620
619
624
635
640
652
659
663
661
662
666
669
667
669
672
666
654
653
662
671
673
670
660
656
657
663
670
673
680
674
670
668
666
661
654
650
648
650
650
648
646
653
663
664
655
648
645
646
653
653
646
635
622
612
607
597
596
600
605
607
598
588
581
570
563
561
557
548
544
541
536
526
516
511
509
506
503
496
490
475
463
454
455
458
454
448
449
452
437
422
416
413
409
407
398
388
382
379
382
383
386
385
384
381
377
373
373
375
372
371
371
370
366
362
362
362
366
365
361
366
366
366
368
370
372
371
374
374
383
397
399
395
389
389
393
388
386
386
387
380
376
376
379
383
390
388
383
387
392
397
396
393
398
404
404
400
399
396
400
402
404
403
404
405
410
417
412
413
417
417
419
431
438
441
441
432
421
421
428
433
433
430
425
419
419
421
423
434
440
448
447
443
440
442
443
437
434
436
441
453
466
461
459
457
451
450
448
447
447
443
447
450
450
452
456
455
450
453
458
463
464
459
455
454
457
460
461
467
471
467
464
461
464
464
461
459
459
457
459
455
457
463
468
477
482
478
471
468
462
463
463
462
461
462
459
461
463
467
470
469
466
455
449
465
475
471
470
473
476
479
479
480
481
478
472
463
456
453
451
464
473
475
478
481
482
487
490
496
493
486
492
497
498
496
488
480
475
478
482
489
485
480
481
486
496
505
508
508
511
513
516
527
531
534
537
533
527
524
525
528
529
524
518
515
509
508
507
508
509
505
507
508
507
507
512
517
521
518
514
514
509
501
498
500
506
510
509
501
497
497
499
496
500
500
497
492
484
469
463
466
469
465
459
455
445
441
440
445
447
450
457
466
473
469
461
462
469
476
468
455
454
451
447
450
449
449
450
448
448
447
452
459
461
460
457
452
448
446
442
443
453
462
467
465
459
457
458
455
456
457
461
461
463
464
460
455
452
453
461
464
465
471
473
474
467
459
457
460
463
463
466
464
456
451
447
446
449
453
448
441
439
446
454
461
464
480
513
551
587
621
653
680
716
751
783
824
848
868
887
908
918
936
952
958
965
977
970
940
888
810
714
640
576
506
438
373
306
241
162
90
42
17
17
17
17
17
17
17
17
19
52
81
104
126
147
172
200
219
237
251
265
274
287
300
323
343
358
375
388
400
413
428
440
455
473
486
495
504
509
512
514
520
527
529
534
541
544
556
559
563
559
553
549
550
550
549
553
554
557
557
557
558
561
566
565
562
562
573
587
593
592
584
575
563
547
546
556
562
562
564
562
564
571
572
570
572
569
567
569
568
570
570
568
572
576
575
574
579
578
576
577
580
581
583
592
590
587
587
585
585
581
577
574
576
589
594
592
589
594
600
603
603
604
603
600
597
596
602
613
620
621
624
628
626
629
624
620
624
632
628
622
620
616
624
626
630
646
656
660
661
663
665
659
649
641
642
644
649
657
665
671
675
675
666
660
660
663
665
666
664
660
660
659
656
656
660
666
670
671
674
679
674
661
653
649
653
654
648
644
640
634
627
626
621
617
612
607
603
597
593
591
581
574
572
569
563
558
550
539
536
535
532
528
523
516
506
496
489
485
482
472
463
462
458
458
455
448
438
421
409
400
396
401
400
398
392
390
380
370
366
360
362
371
377
381
384
380
378
378
376
377
383
383
372
361
358
357
363
371
375
381
385
391
399
395
384
375
368
368
371
374
373
372
368
372
379
383
386
386
383
382
386
388
391
388
384
389
393
397
399
398
399
397
394
400
409
415
415
415
412
409
411
412
414
416
418
421
424
433
430
423
419
421
428
434
446
450
430
411
409
411
415
428
432
430
423
424
431
431
429
430
430
433
435
435
432
436
439
442
450
453
456
459
459
460
457
448
444
450
456
455
450
451
455
460
462
461
465
469
464
458
456
455
453
454
451
455
462
467
464
461
460
458
457
453
457
464
466
463
459
463
468
467
462
462
467
472
470
467
465
467
472
470
468
467
463
465
470
477
481
479
478
479
468
458
459
466
470
468
462
464
464
461
458
458
466
476
482
488
492
490
487
487
489
487
476
470
472
474
476
474
473
470
471
476
475
479
491
500
500
501
506
514
524
535
540
539
537
533
527
523
524
519
511
507
508
505
503
504
510
516
521
512
504
501
498
505
510
511
507
504
499
492
484
479
473
474
479
487
494
497
497
497
496
495
494
493
493
490
485
479
469
459
449
445
446
448
451
454
454
451
451
454
460
462
459
454
450
448
445
438
438
437
438
436
432
430
430
438
449
455
454
452
451
450
453
454
454
450
451
449
446
448
450
462
460
460
466
463
459
462
457
455
450
441
443
445
444
444
448
449
455
459
459
457
453
444
442
447
450
453
457
461
456
448
443
441
444
453
456
455
454
454
455
459
468
482
501
528
564
603
638
668
698
731
760
785
807
816
833
854
870
892
896
904
916
925
919
895
846
786
708
633
567
506
442
379
317
252
178
109
46
17
17
17
17
17
17
17
17
17
33
67
96
123
151
180
199
216
231
244
256
272
286
301
315
333
355
369
383
397
408
421
441
465
485
494
502
512
513
508
506
514
518
522
532
544
545
546
545
545
553
557
560
564
567
571
577
575
572
569
565
565
566
563
562
563
564
567
566
572
575
573
568
566
560
554
555
558
565
571
573
575
573
567
556
546
549
560
571
577
575
574
579
585
588
585
580
577
573
569
571
575
575
571
567
564
571
583
590
586
584
582
586
586
582
579
582
589
597
594
594
602
604
600
596
598
605
613
615
614
612
604
598
606
618
626
626
623
620
623
623
621
623
623
623
622
631
640
645
646
644
646
650
652
657
664
660
656
660
667
667
662
664
664
668
673
678
680
670
659
650
647
650
654
658
660
654
648
648
644
634
631
633
635
636
632
635
637
632
629
629
631
628
622
623
628
623
609
600
601
600
596
586
574
564
553
543
538
538
536
529
520
508
497
492
493
488
482
474
465
459
450
445
442
437
428
419
414
411
407
404
402
401
403
400
397
395
393
392
393
391
383
376
372
368
364
364
358
361
366
373
374
366
360
361
356
354
357
365
371
374
372
370
366
368
370
375
386
392
387
376
370
368
363
366
373
378
384
387
394
399
400
399
401
399
388
378
374
380
384
390
394
394
399
395
390
387
387
391
397
405
409
408
410
411
409
409
411
416
412
410
416
419
418
422
423
421
423
425
428
426
425
426
433
439
443
445
441
438
441
436
431
427
424
431
432
428
429
430
433
436
439
436
437
444
448
450
453
458
461
462
460
458
462
466
470
468
460
445
440
443
451
452
450
445
444
447
450
458
463
461
460
457
452
461
468
467
466
457
450
456
462
459
464
464
461
457
455
456
461
460
456
459
464
465
466
465
465
464
467
469
467
464
460
458
462
473
478
479
480
482
484
483
481
478
476
470
469
474
478
484
485
482
480
481
477
480
482
480
470
464
466
477
488
496
505
519
532
540
543
543
544
531
516
507
501
500
502
501
500
502
507
508
507
505
501
498
501
501
508
511
507
499
495
491
489
491
496
503
510
511
506
496
487
488
495
497
497
493
486
485
487
481
472
465
464
461
458
454
445
444
448
451
442
447
455
456
