388
438
479
478
476
480
487
502
486
462
425
420
417
413
419
410
410
440
458
485
468
448
468
488
445
427
419
431
421
369
352
382
447
470
455
436
410
378
390
461
499
489
470
438
428
432
442
440
437
439
447
454
456
452
448
429
432
425
445
470
472
487
493
481
437
420
444
493
511
497
516
493
463
463
438
414
378
418
475
504
540
594
598
528
517
541
532
458
394
351
382
455
520
528
520
504
467
462
475
479
465
481
510
529
567
564
569
570
534
472
428
410
420
425
442
445
430
432
434
427
451
484
490
519
533
545
541
511
499
485
448
408
409
421
394
377
397
411
443
441
438
436
440
424
427
435
446
439
424
413
416
413
420
450
473
441
397
391
409
404
373
366
391
412
437
480
464
405
418
460
469
458
475
437
439
444
424
415
407
393
391
417
442
438
445
445
419
408
413
433
456
465
438
468
472
469
460
431
440
476
467
461
462
451
443
460
488
509
518
520
504
492
485
472
472
503
555
579
590
591
612
634
630
585
560
546
518
492
485
505
514
525
547
540
465
415
422
412
367
339
306
309
297
255
231
232
253
288
298
306
313
318
361
380
366
368
378
388
402
413
429
435
425
434
445
453
474
479
464
484
479
454
434
457
476
473
480
483
477
479
474
462
457
415
408
450
461
449
462
476
476
473
456
464
499
495
467
461
472
498
494
470
469
490
505
484
460
436
441
458
454
462
464
448
454
466
463
454
440
451
478
475
477
500
493
489
517
519
511
504
511
526
531
519
496
483
483
473
465
461
465
473
480
501
501
458
476
488
497
473
472
495
499
498
532
549
522
487
498
521
510
496
501
500
489
473
467
474
491
494
485
501
502
522
527
517
485
463
479
489
517
538
560
567
534
518
533
529
510
510
513
516
538
518
474
488
525
520
534
529
520
501
470
491
521
539
561
566
576
574
556
546
537
530
518
482
507
536
579
581
565
575
577
586
538
510
492
476
488
531
585
603
576
529
509
504
499
508
507
480
491
494
478
484
490
460
454
478
518
524
517
506
511
495
497
493
488
496
490
497
488
495
512
523
520
493
472
459
482
500
474
461
469
467
468
481
481
477
471
469
461
447
442
454
482
482
448
441
436
444
465
456
440
427
432
447
456
462
464
443
438
438
467
478
483
469
452
435
436
404
375
376
402
432
455
452
458
461
466
438
435
447
445
433
441
450
449
430
426
410
417
420
428
426
415
402
409
417
394
375
377
389
404
390
411
439
448
433
428
429
440
442
465
459
423
391
386
408
437
443
442
463
483
473
466
449
474
497
470
457
435
435
431
436
436
434
447
448
427
429
433
435
466
479
496
496
479
457
449
450
451
462
471
477
481
486
483
482
480
463
453
443
454
455
447
448
449
468
474
470
464
478
496
473
441
443
437
429
427
426
429
448
467
471
473
478
476
466
469
480
471
462
455
439
431
419
417
469
499
523
517
497
485
478
450
427
436
448
470
495
488
473
488
504
504
488
492
510
481
445
467
497
483
478
477
483
482
463
461
481
495
486
473
472
465
481
495
493
486
497
503
505
503
500
493
482
478
480
493
488
488
493
482
459
462
471
475
473
483
483
474
483
520
539
541
522
508
510
507
502
501
489
479
474
482
473
473
481
464
434
422
431
420
443
471
482
467
467
462
455
449
411
415
443
457
443
433
411
416
425
408
402
409
412
430
442
428
422
418
438
437
444
452
443
451
431
439
441
458
466
459
421
408
407
400
405
435
446
438
427
425
430
437
456
446
436
417
416
435
426
424
428
426
439
447
454
483
511
482
436
429
431
419
430
429
441
452
467
489
488
512
509
485
453
461
476
484
476
515
529
560
579
578
584
610
616
626
638
630
646
641
644
654
661
655
667
674
649
579
545
528
475
421
406
399
379
341
299
261
234
231
267
306
329
342
351
349
353
373
391
401
381
391
421
451
469
451
440
431
429
441
445
445
451
458
458
469
469
476
483
496
480
480
473
465
461
494
499
475
450
454
503
539
516
501
481
480
480
448
433
441
444
447
438
425
425
454
481
470
481
504
508
509
497
480
486
494
515
484
490
518
520
513
505
498
491
490
474
475
479
497
489
482
480
498
496
488
495
519
540
547
530
515
510
517
511
499
504
513
518
531
520
496
484
516
531
511
475
472
478
494
499
504
506
510
522
526
531
529
521
530
548
538
493
495
523
569
559
545
542
515
529
540
558
554
502
484
494
487
493
503
519
534
523
528
537
538
532
538
560
554
554
553
542
521
514
528
543
573
561
542
526
520
547
580
594
550
531
524
537
533
517
522
541
553
575
561
551
558
561
547
545
549
560
554
541
549
557
561
553
545
544
555
545
522
535
532
507
524
574
596
577
565
536
533
522
511
525
560
583
567
552
561
561
548
527
504
488
491
489
481
479
497
505
490
489
487
504
514
501
485
468
477
471
479
468
451
446
435
421
419
433
461
482
471
463
459
446
448
452
456
452
440
434
413
392
410
400
405
429
416
394
380
409
430
428
421
437
435
400
401
415
413
408
431
444
439
423
422
424
412
404
414
431
435
429
424
418
427
427
431
429
424
430
426
412
408
428
435
432
411
413
414
432
446
453
445
435
438
439
449
448
439
432
430
438
424
418
421
421
429
424
435
466
436
421
433
441
466
462
442
432
451
473
455
430
400
413
431
437
468
447
435
424
416
446
455
456
475
461
443
445
434
440
469
474
474
463
465
468
455
452
457
452
436
426
458
485
480
458
454
456
454
440
419
418
448
456
452
452
451
440
440
452
454
458
472
475
472
458
451
464
454
446
449
450
458
462
486
516
524
511
469
452
463
485
475
463
477
483
464
466
470
471
450
437
467
467
467
517
512
527
500
472
456
477
494
481
476
479
493
501
490
481
517
525
521
507
497
495
491
479
482
500
494
495
504
521
522
517
512
511
503
505
497
488
528
518
495
496
514
515
510
495
496
501
490
462
443
437
460
479
484
462
453
453
437
416
405
400
442
467
446
425
429
444
465
470
448
437
449
449
463
452
419
425
444
446
439
437
444
464
452
442
444
452
456
458
462
454
465
464
469
470
439
425
429
431
436
432
427
421
405
403
443
479
462
449
444
461
456
455
451
431
409
426
431
437
448
447
455
467
463
474
462
462
446
456
471
500
510
488
480
484
486
485
479
490
515
511
528
543
565
591
617
625
643
643
636
648
682
667
643
650
650
631
618
613
606
609
598
564
517
452
401
366
346
328
311
303
301
281
266
251
258
269
279
326
372
355
347
350
348
359
395
424
419
435
445
458
433
438
457
451
463
464
475
484
485
479
511
544
512
488
487
479
464
446
450
471
462
464
473
478
479
472
472
488
510
509
488
479
471
469
482
479
476
506
524
508
496
489
488
497
504
498
495
479
474
494
497
494
488
491
524
550
531
519
480
470
484
505
505
496
495
510
508
486
484
494
488
469
471
477
476
495
493
527
535
528
516
507
483
490
507
513
505
524
525
522
517
499
507
499
502
495
481
489
507
508
514
519
516
520
518
504
516
513
509
500
535
533
521
508
508
504
508
514
536
568
591
548
524
509
522
539
532
496
498
527
530
528
533
529
522
518
536
556
571
558
547
559
552
548
555
564
532
535
545
538
515
549
575
561
560
551
551
552
556
542
543
543
553
585
606
597
563
540
554
567
561
548
555
577
580
563
551
555
550
526
520
549
547
556
562
548
557
544
523
530
547
559
536
523
516
511
534
566
542
538
548
546
537
530
521
526
513
488
477
464
471
469
465
484
478
452
470
476
500
495
486
465
448
455
459
453
441
419
438
444
478
483
477
445
419
427
429
426
423
433
433
408
402
400
401
441
466
439
415
422
442
453
453
444
452
445
427
445
447
440
446
464
450
419
392
393
407
422
438
437
437
444
454
456
477
507
476
459
436
423
423
434
443
446
449
463
481
489
483
475
457
457
470
478
453
450
452
467
463
455
475
473
443
422
419
416
454
486
500
531
529
510
480
472
474
466
458
447
443
448
473
473
446
447
453
454
475
485
472
447
425
444
494
527
502
486
480
478
463
447
440
448
459
457
461
465
479
477
481
489
502
511
497
484
478
460
465
482
475
465
457
480
485
471
479
521
504
484
489
483
473
455
474
479
479
482
473
463
481
491
487
482
480
471
473
480
475
471
469
472
501
492
473
483
493
495
471
467
483
493
517
490
497
515
517
508
480
473
484
488
474
481
494
509
507
525
525
513
520
537
513
497
491
496
489
494
533
541
531
523
524
541
566
535
523
521
511
518
519
514
507
514
538
542
554
559
579
573
537
542
559
576
576
583
567
541
531
523
522
512
486
474
468
473
469
435
406
418
444
448
449
474
484
491
460
432
440
446
426
401
414
437
443
437
444
459
446
445
475
482
464
460
444
440
460
453
443
452
449
432
433
435
441
450
442
441
449
442
450
455
444
445
454
471
476
480
445
448
459
455
432
435
445
446
434
413
433
465
465
469
464
430
415
424
445
463
462
450
449
451
487
485
470
485
479
502
488
486
504
492
484
503
518
516
513
527
532
576
623
628
623
615
666
679
671
676
706
697
683
688
683
688
717
682
658
632
592
551
495
419
377
345
293
276
244
251
262
236
240
243
255
294
311
308
328
348
368
369
368
381
375
368
374
389
403
413
444
452
464
462
462
455
450
457
487
499
497
487
470
445
447
439
442
458
469
479
486
477
480
480
469
445
450
454
449
510
534
535
534
481
468
472
488
480
470
481
503
512
515
525
523
522
489
493
514
517
520
529
526
522
524
497
485
478
499
499
497
490
502
498
505
544
556
537
531
531
540
535
525
523
532
527
531
541
540
539
541
519
495
500
511
528
529
537
545
530
511
514
557
550
527
516
503
504
525
544
564
577
509
478
477
528
543
547
564
543
528
545
543
531
536
543
542
521
519
527
511
529
519
520
536
530
537
556
566
555
590
606
610
575
579
581
544
568
566
559
560
561
541
522
535
553
562
558
544
535
552
556
550
552
555
547
545
524
514
535
549
547
536
532
549
564
563
564
565
561
555
547
538
516
515
529
536
527
519
536
531
528
543
564
545
537
533
538
538
521
551
568
533
506
526
561
567
548
581
574
530
513
519
512
528
538
521
486
486
506
508
504
508
513
520
522
508
491
480
476
478
482
477
459
450
451
475
488
490
472
464
463
471
456
411
390
392
397
402
433
416
390
387
408
429
451
451
440
446
446
428
434
442
458
460
456
441
441
446
462
458
447
427
431
434
434
431
385
398
407
426
414
413
431
440
435
437
443
456
468
445
441
439
444
453
462
458
450
452
446
451
458
465
467
483
467
449
448
433
460
468
448
430
431
416
419
453
453
447
431
435
438
438
425
427
448
461
469
481
478
457
441
444
419
441
458
455
453
456
474
482
483
485
499
496
477
458
444
448
460
445
438
449
453
451
465
466
447
446
456
481
483
485
469
446
435
454
456
470
477
441
429
464
499
525
519
479
470
480
482
483
456
455
448
447
447
460
478
492
496
475
454
457
465
471
474
468
469
481
470
474
485
498
479
485
492
489
491
500
512
489
475
475
471
484

465
475
465
4
389
400
393
402
435
456
445
465
469
476
490
487
483
473
465
470
496
495
484
487
493
471
465
475
465
451
465
489
500
480
483
517
531
521
503
482
498
519
504
492
473
467
475
503
528
529
511
510
502
492
509
514
524
517
506
514
516
501
488
491
506
513
528
521
509
507
511
502
500
517
518
509
515
518
493
474
493
512
498
500
501
509
520
525
536
522
510
506
501
496
509
516
496
497
527
530
533
523
511
511
514
514
518
544
558
537
549
559
542
539
535
534
532
529
537
518
505
519
544
540
544
568
563
556
566
564
535
515
504
540
564
558
551
552
559
557
561
551
523
519
542
545
536
541
542
558
555
543
534
536
546
570
573
551
543
543
547
540
539
540
555
575
580
592
593
598
576
568
563
551
544
543
544
539
529
529
539
524
510
535
550
539
544
554
557
551
557
564
567
581
564
556
559
577
594
601
594
569
559
542
526
508
496
499
509
503
494
525
525
502
484
492
515
511
515
515
507
484
499
507
494
488
481
477
494
479
466
482
491
478
467
473
465
457
475
471
446
439
450
431
417
435
425
423
427
417
423
436
440
423
415
426
439
432
418
416
421
421
440
445
439
420
417
422
435
430
415
408
413
440
454
446
452
448
433
441
448
448
448
472
465
446
426
434
448
431
400
414
423
450
456
463
474
458
438
433
446
437
420
430
448
445
444
463
459
443
437
439
438
443
454
457
451
457
469
474
486
473
461
464
462
460
467
483
482
469
448
457
464
473
497
509
502
507
514
514
517
508
501
480
464
473
477
474
477
470
475
471
486
522
534
505
476
450
440
455
478
490
492
466
464
471
476
464
452
460
461
471
497
511
524
517
492
482
476
471
475
469
455
456
462
473
479
469
487
471
471
454
452
478
489
502
512
501
446
422
447
460
462
450
444
446
447
448
460
468
474
478
483
482
465
455
450
455
476
495
503
513
497
474
456
460
468
492
492
484
486
489
487
484
492
518
538
531
515
529
541
524
508
521
533
525
501
473
466
449
441
455
488
544
540
540
572
578
550
538
573
587
550
504
494
505
524
508
498
482
463
447
478
499
498
491
464
445
459
461
458
448
438
455
456
455
457
458
458
456
445
439
435
442
441
435
442
451
444
433
429
424
418
414
417
421
428
415
399
436
470
470
475
472
452
433
422
417
416
445
455
456
463
466
462
462
460
460
459
459
452
455
439
435
425
429
428
446
459
461
444
442
435
431
423
419
424
431
451
485
495
474
462
454
471
481
471
460
459
479
505
495
487
528
556
562
589
608
613
627
645
646
657
667
654
637
636
640
638
649
644
637
602
590
595
576
525
471
411
359
340
318
306
293
293
261
267
298
269
227
234
278
289
308
332
336
353
367
386
407
415
412
414
435
441
447
452
454
445
449
467
489
483
476
492
493
497
491
491
482
509
508
503
508
514
509
503
507
523
527
520
491
476
472
478
480
481
484
503
526
533
518
513
515
505
502
494
483
474
487
498
495
512
518
511
506
504
504
498
496
490
484
486
505
516
494
487
513
520
500
498
493
483
479
503
527
524
527
531
525
510
506
507
519
520
511
515
544
540
530
535
533
518
522
541
558
542
519
503
505
502
492
523
565
576
561
543
524
522
540
545
539
517
506
525
545
534
528
532
538
533
530
538
537
531
529
537
544
551
547
541
541
541
520
515
525
543
530
526
535
550
551
539
538
550
564
568
570
551
522
509
503
494
510
528
552
582
586
565
548
538
528
521
518
526
529
541
545
545
543
536
536
538
530
528
547
546
532
531
524
529
543
560
544
536
561
571
557
536
525
528
520
507
530
538
536
523
509
532
542
528
502
516
521
510
511
509
495
498
506
490
486
494
468
464
480
504
501
511
502
495
492
496
480
451
426
432
443
442
474
494
509
473
440
424
424
422
416
421
448
459
475
476
444
414
386
385
399
423
436
414
428
430
412
420
423
422
433
429
453
479
483
449
411
420
428
430
438
432
429
435
439
432
427
431
429
412
418
442
453
444
457
471
463
449
445
451
445
445
433
440
441
455
444
417
431
442
426
419
450
455
465
471
467
477
463
454
448
441
440
460
462
462
462
467
476
461
447
444
451
450
443
456
475
477
461
448
452
459
461
465
486
468
460
455
458
461
479
488
479
465
477
482
462
453
442
452
471
476
470
460
467
472
462
463
464
466
479
473
450
444
451
441
474
495
501
496
489
485
504
479
460
437
441
464
470
471
479
481
487
480
473
475
472
470
481
494
489
482
484
493
503
490
457
448
475
488
493
490
512
528
510
504
481
470
476
491
484
482
499
500
500
487
505
533
527
501
513
546
537
519
521
496
469
488
525
513
486
500
505
507
508
507
506
487
493
497
488
502
509
534
541
529
554
539
534
532
513
498
501
523
535
528
496
467
460
443
456
496
524
500
453
439
458
471
474
474
476
468
477
484
478
466
449
430
421
430
446
457
473
449
434
453
482
498
479
460
474
469
452
430
430
429
442
446
438
436
431
430
456
457
433
454
492
480
456
435
450
466
445
439
451
480
492
469
460
451
439
442
482
491
472
469
475
443
432
444
461
477
472
442
434
432
430
440
457
471
474
464
469
485
483
478
494
513
522
519
531
565
591
598
590
588
601
619
610
609
608
646
673
662
638
633
654
638
609
606
584
565
547
508
459
408
369
362
367
353
320
306
309
294
279
286
287
278
289
314
339
357
360
362
377
412
434
452
454
441
430
432
428
452
477
487
490
501
518
522
481
466
472
470
472
481
475
484
480
465
467
476
493
499
507
502
493
503
493
485
484
497
503
488
492
504
497
501
516
510
509
501
485
485
494
494
493
501
514
506
502
505
511
525
527
503
475
476
485
478
482
481
472
487
498
509
547
544
537
533
519
501
510
507
495
504
520
538
550
525
498
487
487
497
526
535
561
566
535
516
504
508
498
490
500
507
518
532
529
546
548
525
493
501
518
527
535
551
569
567
545
532
520
533
524
535
544
548
537
531
528
543
549
559
549
553
561
557
556
539
526
520
532
534
533
550
555
547
551
554
559
552
532
541
552
544
550
552
566
571
560
555
546
534
534
544
536
518
520
524
536
555
550
544
544
538
544
547
554
548
544
549
545
543
543
554
556
549
547
545
547
558
550
531
522
531
543
529
499
490
510
529
538
553
555
546
547
531
518
498
477
480
507
519
531
533
543
527
501
483
497
522
496
466
465
489
497
496
486
466
436
444
460
470
476
475
489
463
451
439
428
433
436
451
446
441
437
424
431
447
455
456
464
443
408
386
387
428
460
441
447
449
445
452
443
427
426
438
441
445
457
467
450
453
461
472
475
464
441
422
429
441
442
450
442
441
450
452
445
437
442
448
435
439
443
427
418
422
432
450
464
453
436
434
448
461
469
460
429
422
440
456
459
464
465
461
465
466
453
439
455
474
476
468
466
462
432
413
427
432
430
458
486
476
458
452
470
473
467
465
459
454
452
465
465
447
448
448
468
488
476
464
449
419
424
413
425
454
466
437
464
485
484
493
499
493
483
477
489
486
484
468
455
451
471
481
483
504
486
481
489
490
491
494
487
487
498
478
466
458
451
459
465
469
478
494
504
487
490
508
497
477
475
486
488
481
487
499
511
518
516
520
533
525
512
496
499
522
517
502
486
504
499
511
530
523
516
505
495
492
511
529
518
497
490
499
505
550
569
558
562
542
524
533
545
531
519
527
526
508
483
478
467
446
466
494
499
467
436
427
446
459
459
455
436
428
438
438
450
464
456
460
473
460
469
467
452
443
435
440
435
440
448
431
420
426
427
433
452
453
431
419
431
457
480
474
468
484
467
446
443
448
458
467
463
456
464
440
451
461
449
446
446
448
448
464
477
489
458
422
430
453
470
479
468
451
445
442
440
459
469
459
452
453
463
481
504
497
474
479
486
480
476
502
515
521
546
553
585
623
618
604
637
643
644
659
640
624
624
641
632
615
627
649
658
621
553
504
466
414
365
341
321
312
314
305
303
282
267
274
287
296
306
322
325
323
347
376
396
404
391
395
392
408
433
434
432
440
426
451
481
496
499
486
472
459
486
478
463
462
483
497
489
487
509
518
475
450
467
478
463
476
499
494
485
476
473
456
460
491
506
505
488
468
463
465
479
510
538
513
483
479
469
457
464
467
472
460
463
475
498
517
510
493
477
477
481
491
481
472
482
498
513
536
534
520
500
465
472
495
491
484
496
513
503
499
491
493
506
492
487
491
527
554
543
509
490
480
481
477
489
511
520
509
497
540
554
538
494
494
509
515
519
525
517
515
533
534
532
541
550
562
569
545
514
511
508
509
534
563
545
522
521
532
518
522
547
547
536
523
518
525
519
502
559
570
559
551
534
515
522
540
544
542
531
533
539
544
554
553
539
544
551
546
557
559
535
530
528
545
538
544
548
544
532
525
529
529
507
525
536
537
537
525
528
533
544
545
547
578
578
562
536
527
530
543
557
556
534
524
504
512
522
515
501
482
483
496
510
530
525
493
471
499
516
516
514
496
487
489
493
498
488
476
466
472
478
478
454
424
412
440
459
458
438
429
442
440
432
430
446
454
436
418
421
432
428
443
444
448
445
429
423
434
434
420
409
417
422
432
439
424
422
440
443
416
392
401
431
447
462
462
443
416
412
442
454
433
422
417
426
427
432
428
421
411
435
459
453
453
461
457
464
469
452
427
423
435
443
450
445
433
447
458
462
449
428
450
491
485
464
450
467
470
472
453
455
466
473
466
469
473
476
466
446
446
470
477
477
475
477
473
476
490
495
482
461
453
444
432
444
455
460
474
476
477
487
483
471
458
454
455
471
476
466
475
515
511
490
481
479
453
416
426
440
455
480
502
531
518
484
473
464
448
435
430
447
459
448
435
452
473
487
480
489
509
505
491
482
466
487
511
495
484
491
480
469
470
471
486
499
518
509
490
492
500
493
493
514
535
538
519
503
508
516
519
511
508
503
499
482
478
474
491
500
525
546
549
539
538
527
530
546
548
534
511
497
509
508
492
502
510
503
505
499
478
465
466
482
487
498
466
452
457
461
468
466
457
449
433
435
447
447
434
431
422
428
448
446
448
441
444
431
421
417
409
429
454
460
477
465
475
457
440
428
430
440
430
431
452
458
463
475
473
455
431
422
438
450
450
443
451
454
445
434
451
450
427
436
453
454
422
446
439
397
402
411
406
414
435
454
483
508
521
519
502
499
497
486
501
515
496
482
498
525
538
557
571
589
607
624
622
630
653
674
691
682
646
636
646
669
649
649
633
595
564
510
487
455
413
365
324
295
272
258
262
255
266
268
257
260
284
312
340
349
335
347
372
375
373
375
399
416
442
459
460
449
440
453
467
469
468
480
485
461
447
471
483
469
443
463
481
473
469
490
500
516
533
523
502
521
528
518
515
505
486
470
471
483
483
483
477
472
480
487
501
515
511
506
496
507
531
540
517
501
518
524
529
536
529
496
478
484
492
495
502
511
492
479
500
523
505
500
516
528
504
476
467
479
493
506
507
513
537
554
540
526
534
511
522
528
529
505
491
519
529
527
551
560
541
517
491
498
490
493
530
569
567
555
557
553
548
550
536
500
499
495
502
517
518
525
536
538
529
518
521
539
539
537
546
545
531
546
551
540
554
574
574
559
553
544
523
533
551
550
562
571
557
559
576
579
547
522
527
547
557
557
545
525
508
515
524
523
520
534
541
546
539
543
555
563
543
550
569
559
543
538
534
538
556
552
563
585
590
573
536
516
521
508
489
516
540
557
536
521
526
528
525
521
532
526
514
492
496
519
532
538
517
488
486
501
503
517
496
467
464
467
467
460
474
480
497
506
489
476
477
481
483
485
500
479
461
446
444
428
423
414
439
461
446
427
415
416
432
457
444
440
429
423
415
417
429
433
428
436
429
422
425
434
430
424
416
430
440
442
461
468
435
429
450
457
454
431
421
426
439
441
443
438
406
395
403
401
402
421
425
464
502
490
453
436
453
466
490
485
436
412
421
427
437
444
444
451
469
465
474
478
454
432
465
465
454
452
448
449
460
465
465
454
457
470
464
499
498
460
436
447
471
463
457
450
428
449
458
456
456
460
485
502
503
457
439
443
455
446
448
471
467
456
457
457
448
451
446
454
468
482
487
475
462
446
440
444
459
481
485
489
492
488
482
480
475
466
459
467
488
480
481
480
469
493
523
501
477
462
470
477
459
456
464
464
464
465
477
495
503
484
463
476
479
466
468
470
465
471
471
485
526
546
545
517
481
499
538
530
509
459
472
510
512
492
489
497
501
501
514
522
507
494
513
535
539
520
520
533
538
530
536
539
534
537
538
538
528
511
507
510
506
492
508
528
543
542
504
463
464
481
487
478
459
461
450
435
420
429
444
467
482
458
440
455
458
446
438
444
440
421
412
412
434
434
436
444
445
440
436
432
432
430
436
427
446
478
468
430
430
448
424
398
402
432
450
447
416
424
431
424
430
442
469
500
513
478
449
443
450
451
441
415
416
429
440
439
428
427
445
462
453
428
445
470
491
486
480
488
489
472
475
505
513
482
478
509
543
565
571
577
613
644
666
668
664
656
640
635
641
644
641
650
643
629
638
613
588
558
506
469
426
373
354
348
307
282
268
237
226
225
222
230
243
270
325
355
345
334
351
380
379
367
384
406
435
468
451
434
440
457
455
462
466
459
444
454
455
458
487
534
525
498
492
488
487
506
503
486
490
491
477
493
517
505
478
477
471
482
504
511
517
503
487
489
504
516
499
474
472
487
498
491
487
498
494
471
485
507
511
518
518
484
487
502
510
519
518
495
485
503
516
511
498
506
516
549
550
533
512
497
498
486
490
508
523
555
559
546
511
514
534
541
547
532
533
531
503
474
466
496
524
519
507
496
510
527
542
544
535
518
535
546
532
529
523
523
540
545
549
559
573
559
536
537
533
541
540
552
560
529
517
523
530
535
525
530
551
555
545
548
546
550
548
544
543
569
569
555
559
554
548
530
519
529
528
521
509
508
509
535
585
597
585
552
527
544
569
568
552
531
502
504
514
522
530
522
530
531
540
563
592
580
545
536
538
531
541
559
567
562
542
521
526
532
511
515
546
574
576
567
541
541
557
563
542
524
512
506
510
504
526
523
483
486
497
505
502
485
491
500
501
495
486
471
450
444
461
487
477
471
473
463
442
431
444
452
456
444
434
445
452
455
456
482
482
452
424
411
415
408
413
421
422
417
435
446
434
426
418
429
449
441
442
438
407
409
426
438
420
418
414
426
435
437
440
435
435
443
455
453
441
449
459
481
474
469
434
422
435
454
461
428
425
435
447
448
457
455
445
443
446
448
446
459
488
490
465
453
446
457
462
440
412
416
417
427
431
427
445
464
475
488
482
479
487
483
463
456
470
483
483
495
493
469
461
453
446
445
458
459
465
466
453
451
464
463
456
463
468
481
468
454
454
465
470
464
468
480
508
500
474
449
440
462
485
469
458
468
455
446
456
469
499
488
448
455
489
512
519
495
467
454
445
480
515
503
480
465
461
452
456
487
515
503
483
486
495
494
490
500
485
478
476
487
490
509
513
513
510
510
512
508
493
503
511
507
508
519
504
485
501
529
529
524
529
538
518
486
491
504
514
507
509
511
515
519
516
510
506
536
558
561
551
545
532
539
527
532
512
486
478
476
491
457
460
472
481
497
479
458
453
465
459
472
472
466
473
468
446
430
424
441
460
459
458
467
470
449
435
437
444
461
444
439
449
459
452
452
459
460
472
464
431
432
464
468
452
440
447
448
451
464
462
437
424
422
413
424
453
461
447
448
408
399
431
425
427
435
437
436
431
428
455
460
461
449
444
452
460
478
480
442
430
440
459
469
480
502
522
498
483
474
474
499
514
544
590
612
621
633
637
621
612
631
625
634
634
640
657
688
682
681
678
661
616
575
528
485
433
383
355
321
297
269
260
272
257
238
246
248
268
311
308
314
320
328
364
393
398
399
409
422
421
431
440
430
429
447
466
479
488
492
486
478
480
480
460
469
499
516
502
499
504
496
474
450
455
470
469
472
475
482
491
494
491
475
477
503
524
491
482
483
491
480
476
493
514
530
522
519
509
499
489
472
473
500
502
490
501
493
490
503
501
491
513
538
524
520
532
531
525
508
487
472
485
502
505
493
488
506
503
493
500
517
545
529
514
498
501
501
504
520
525
539
547
554
544
524
517
514
526
532
528
510
498
513
531
526
527
526
520
533
541
558
546
521
506
497
502
510
505
521
536
532
524
533
533
529
531
533
536
538
528
534
549
562
572
575
557
549
551
548
541
565
570
549
550
550
560
558
539
551
553
550
539
540
520
508
533
550
546
542
547
546
534
521
514
521
544
563
563
559
555
566
569
555
545
543
529
533
550
541
503
496
541
573
550
529
532
548
551
537
542
563
571
556
543
531
529
516
505
510
512
515
509
512
505
497
494
512
521
525
521
530
532
520
512
503
467
473
481
470
465
480
472
450
433
448
461
450
453
469
456
451
456
460
463
445
429
426
433
451
470
487
472
466
441
427
413
427
419
418
423
433
430
426
422
439
444
433
434
428
434
451
463
462
451
435
432
424
420
426
436
435
427
431
447
452
468
454
464
462
436
410
421
416
414
445
471
491
505
486
454
425
427
433
436
450
451
444
445
449
468
477
482
465
470
474
463
450
466
482
496
480
465
458
463
461
465
459
459
469
474
466
438
438
449
464
476
478
476
460
459
461
474
476
469
472
467
463
456
470
473
482
490
482
479
466
474
475
462
467
479
478
491
477
455
451
456
469
472
470
464
468
484
501
484
461
450
462
490
468
444
442
473
482
482
472
471
485
495
488
477
478
465
466
480
481
496
515
501
496
500
481
479
477
463
457
475
490
488
508
513
503
486
484
466
459
483
512
513
508
521
524
526
517
504
506
497
521
552
557
519
509
495
491
512
523
500
502
513
512
511
528
551
554
542
522
506
510
534
534
551
541
514
504
485
477
475
471
476
472
489
495
474
461
450
435
434
461
457
454
459
472
466
450
439
435
446
446
444
436
439
431
427
441
438
431
445
451
443
433
446
462
472
476
480
478
439
429
435
438
449
463
439
421
433
419
411
421
441
448
469
495
476
459
442
447
470
459
429
423
436
441
448
459
466
479
486
472
462
447
430
421
437
458
456
468
491
501
497
482
467
459
464
491
522
511
506
507
513
537
556
579
603
619
623
623
621
596
593
621
627
630
629
618
628
640
641
596
575
545
508
468
414
355
328
331
325
309
281
246
240
247
273
292
319
334
344
345
327
320
327
349
379
398
416
428
426
436
453
470
491
476
469
470
460
461
482
499
512
503
483
466
477
475
480
488
492
485
504
505
493
475
482
487
467
459
461
484
504
502
477
452
465
516
529
517
503
499
503
517
521
500
488
503
508
508
498
490
476
463
464
470
487
527
544
545
540
531
511
502
508
500
495
500
493
492
507
530
542
520
523
534
518
481
473
478
489
503
507
510
507
518
526
526
528
518
521
506
486
493
508
503
508
502
493
479
476
480
502
520
533
536
538
538
543
556
562
559
547
527
519
523
523
545
558
533
509
516
515
523
538
540
552
565
557
561
542
507
516
553
562
529
501
482
505
535
543
550
543
539
558
560
556
572
568
550
544
538
543
548
546
544
547
542
538
532
549
539
547
553
559
565
571
580
571
563
557
527
497
472
494
534
557
556
552
551
571
560
538
526
518
509
516
534
530
529
518
514
528
540
517
508
503
486
496
527
523
524
510
506
508
524
520
514
511
484
473
502
527
519
499
475
468
472
470
458
452
457
462
456
469
491
480
453
436
460
460
431
430
434
444
462
462
450
439
422
449
464
448
417
406
431
445
438
413
419
435
455
471
469
455
438
435
424
403
409
427
443
453
468
433
409
428
454
450
426
410
428
439
431
424
440
470
470
455
444
428
435
435
430
426
441
451
446
438
448
454
445
431
429
464
493
480
436
405
408
428
430
424
455
471
475
472
453
441
451
460
469
474
481
465
454
460
478
473
452
467
474
483
477
466
463
460
468
453
445
457
451
466
467
456
447
451
451
452
464
471
492
500
483
486
500
496
494
488
475
471
473
473
459
444
453
464
478
492
487
474
457
463
471
497
507
483
452
455
449
434
449
466
466
456
460
460
467
468
460
453
461
476
482
484
474
476
499
494
502
513
488
479
475
493
516
498
498
521
511
509
503
495
495
512
527
521
523
526
511
493
505
521
501
484
484
489
479
490
518
509
493
487
489
510
530
529
529
538
541
546
539
527
529
521
504
483
472
475
486
491
495
502
508
511
496
469
491
528
514
496
485
471
432
405
418
427
436
438
452
445
444
427
408
438
448
453
457
457
452
466
484
469
445
436
438
453
459
450
430
436
458
446
421
408
426
443
433
435
477
474
447
433
439
448
442
434
444
461
457
417
387
395
421
431
456
471
467
439
416
409
417
427
436
447
444
437
441
464
488
477
467
481
490
496
505
495
470
463
472
485
489
502
516
548
563
567
574
591
591
610
637
677
674
646
643
660
659
654
658
666
651
609
576
562
533
483
427
389
360
327
311
309
301
285
274
265
265
282
289
284
286
311
340
356
364
365
375
400
414
420
421
424
433
452
471
469
446
459
461
469
458
462
492
485
470
466
472
470
472
464
465
482
504
513
501
477
462
474
483
496
493
483
482
494
494
484
477
486
482
484
476
487
491
486
482
497
511
531
524
505
491
493
517
524
527
528
518
498
485
490
480
468
499
516
512
509
499
487
476
471
512
535
515
509
498
490
508
513
509
504
502
519
530
533
532
535
536
546
558
555
518
498
501
498
510
512
503
494
491
527
545
527
514
521
538
539
527
511
526
535
517
521
531
527
542
546
547
544
532
527
513
535
560
573
569
554
536
531
537
537
518
520
531
542
536
538
524
513
531
524
529
542
525
538
557
556
549
534
530
562
564
576
567
552
542
537
542
545
528
509
511
539
553
548
533
554
566
556
557
553
548
542
530
528
524
554
582
558
550
565
573
538
513
516
517
527
506
505
532
562
574
556
519
519
533
531
530
502
495
496
515
527
525
527
531
523
513
512
500
500
512
504
501
511
502
483
476
481
488
481
478
482
480
483
462
441
434
440
442
452
466
471
477
456
442
439
430
424
423
424
417
411
426
448
442
424
400
410
442
478
482
453
430
439
428
407
408
427
422
414
446
441
431
417
415
432
443
439
450
456
457
448
427
423
418
422
446
452
449
441
441
437
453
463
465
455
450
449
439
447
452
472
475
471
481
490
453
428
438
449
459
447
431
447
474
485
469
456
461
476
467
457
460
451
435
433
439
446
452
473
491
489
463
444
452
471
482
484
459
453
465
442
450
455
470
492
474
453
472
475
456
443
455
472
470
460
457
498
485
469
457
464
468
462
464
454
475
501
498
489
476
469
459
465
474
466
467
472
479
490
499
485
472
464
467
461
476
479
467
463
462
459
465
482
483
473
459
457
471
463
452
464
467
463
478
471
450
440
450
483
496
505
529
521
501
469
481
493
506
494
495
490
480
461
452
462
501
526
501
487
500
510
499
492
513
514
524
534
542
541
521
512
499
520
531
519
514
517
499
473
476
506
511
503
509
513
523
539
550
552
555
552
561
577
588
529
468
469
491
525
532
511
483
476
480
470
476
482
479
477
474
454
450
461
459
442
444
449
463
441
420
415
446
465
458
455
455
452
452
448
449
447
437
440
451
451
448
451
451
448
443
438
438
443
452
455
448
459
469
466
446
448
469
466
452
469
473
459
446
430
433
438
428
404
407
428
444
442
445
440
445
446
458
473
453
435
427
435
437
433
438
442
444
454
441
458
480
487
507
513
517
517
504
491
508
513
511
525
535
563
600
632
647
650
649
649
654
667
678
678
674
667
652
655
649
613
582
547
499
445
384
348
314
291
277
275
273
270
269
259
242
266
290
291
296
308
320
336
359
390
419
420
428
443
449
438
432
438
457
475
489
484
482
479
457
458
475
494
489
476
474
470
463
465
469
483
481
475
478
489
521
504
470
465
481
490
486
473
457
456
460
467
479
538
572
555
511
469
470
486
499
505
508
524
516
511
501
492
478
466
460
480
500
510
514
519
531
541
535
512
501
502
508
505
506
527
540
530
503
508
511
530
517
492
493
496
516
529
540
530
517
518
524
514
513
543
533
530
533
532
521
506
511
518
510
522
524
521
521
522
536
533
530
538
539
563
557
543
531
542
547
511
485
507
517
531
538
561
581
573
553
540
535
543
546
540
538
546
548
541
554
581
558
510
489
514
561
571
554
550
577
565
533
532
541
543
563
577
565
532
509
512
514
529
556
573
565
532
516
532
560
572
552
542
539
529
525
527
540
556
571
576
546
523
515
535
553
558
570
568
564
554
535
521
503
513
530
543
544
537
545
525
545
550
540
530
501
501
512
515
505
502
522
508
493
483
465
459
474
469
452
464
485
498
501
499
485
467
458
461
486
496
475
482
471
451
449
443
451
447
431
444
471
461
417
404
417
418
434
445
464
447
445
445
432
422
448
460
443
435
420
406
420
437
446
436
433
444
437
421
419
439
453
435
417
455
471
471
477
469
456
449
427
418
429
436
431
443
440
439
445
464
469
453
436
425
434
442
442
445
447
434
437
440
459
462
441
445
458
466
475
486
492
482
459
434
439
446
463
484
486
482
477
481
479
473
469
470
474
478
469
479
492
478
448
430
445
460
469
479
466
459
458
460
466
448
465
495
518
502
474
475
481
495
482
459
440
437
452
451
436
463
483
488
495
502
487
469
458
461
474
489
478
469
481
484
477
464
449
456
476
474
476
481
499
495
458
441
433
443
469
482
471
463
479
487
472
475
485
477
458
465
475
488
496
479
483
485
462
454
454
456
463
468
463
452
449
462
461
451
445
452
484
499
491
500
505
506
499
508
509
504
491
477
490
516
482
467
477
496
506
521
531
525
529
527
535
560
547
526
524
509
502
494
471
474
491
489
483
476
498
517
539
543
549
547
553
536
519
553
560
543
538
550
527
511
509
485
476
473
471
476
476
470
467
472
490
499
481
474
441
427
452
467
466
451
443
436
432
425
425
449
475
468
441
443
449
447
435
420
444
452
435
427
425
435
433
440
438
419
414
419
412
446
472
482
458
453
470
483
460
448
444
462
479
453
420
408
427
442
451
426
408
432
440
438
442
454
462
461
458
456
443
445
449
444
448
450
446
454
464
452
460
492
500
475
452
464
488
517
506
487
494
525
564
582
604
631
636
631
625
619
631
657
658
658
669
682
665
646
643
646
613
572
524
484
435
399
391
368
297
253
249
244
245
251
239
223
193
219
288
318
338
380
388
366
367
370
385
407
410
426
439
459
455
475
487
494
483
481
470
483
477
467
468
448
437
464
489
498
496
491
498
511
517
509
500
495
494
492
485
468
464
490
514
501
489
483
455
450
475
490
501
515
513
508
511
500
486
477
492
503
501
497
491
492
503
504
509
518
526
523
504
513
530
547
531
500
502
510
499
488
503
522
527
524
530
527
509
489
478
489
497
494
495
506
513
504
522
539
535
541
524
510
503
518
525
519
515
508
504
519
514
517
534
540
571
582
562
558
550
517
511
517
521
532
526
520
520
527
517
528
540
548
549
534
520
520
527
520
515
517
537
559
561
563
557
552
564
556
526
541
550
535
551
572
567
574
571
548
531
549
554
527
513
529
545
522
525
535
547
561
564
550
543
546
540
542
546
543
548
555
559
556
537
531
526
513
508
522
525
542
558
566
548
543
545
532
511
503
521
533
546
560
554
518
509
558
560
537
518
509
518
514
507
497
483
504
514
512
510
525
527
510
482
461
456
467
456
463
471
498
511
496
472
468
472
473
477
482
476
456
439
446
457
477
450
430
428
424
400
410
445
463
440
419
446
465
445
411
416
436
437
432
437
450
430
425
421
426
428
432
434
428
407
395
414
425
403
397
422
463
481
473
459
455
449
447
444
434
425
429
433
445
456
468
468
457
441
435
461
466
451
437
437
431
421
430
452
455
427
416
457
478
452
441
442
444
455
467
469
469
464
476
480
461
453
447
441
463
477
465
439
443
439
451
459
470
474
459
449
454
477
480
470
465
463
464
462
474
476
463
460
476
491
491
459
451
473
465
473
468
460
463
469
483
503
497
471
457
450
449
452
459
467
471
480
482
474
475
491
485
477
447
437
465
473
460
472
471
464
462
461
464
480
478
455
432
436
436
440
459
471
489
484
504
512
475
444
444
442
463
484
489
478
467
478
479
472
457
458
467
460
450
459
454
461
470
472
478
475
487
483
485
481
475
489
508
505
494
494
496
493
478
457
485
507
510
503
499
491
496
506
525
519
506
511
510
483
487
503
503
510
525
539
560
591
589
550
497
461
444
438
466
512
532
533
529
534
542
552
565
562
556
548
512
505
516
524
513
498
494
501
512
517
511
489
481
491
473
480
518
503
490
463
440
441
424
427
449
448
434
425
434
444
451
452
447
444
443
455
458
461
453
450
450
449
439
430
417
417
435
462
482
464
434
427
422
435
439
424
451
468
451
434
449
461
465
459
441
448
473
477
455
439
432
434
435
438
433
416
446
479
453
412
414
430
440
435
438
453
449
446
457
473
465
470
467
465
474
484
487
477
488
498
496
507
531
551
563
580
606
642
658
647
651
663
688
700
670
625
623
629
658
658
614
599
586
545
504
464
389
329
322
296
267
273
253
221
221
242
267
291
296
306
334
350
356
343
352
371
384
384
388
406
419
424
419
437
468
486
501
513
523
507
481
459
468
488
482
476
468
476
476
474
467
471
473
490
496
493
517
538
535
529
495
472
474
490
507
508
483
475
476
475
479
494
506
490
485
489
491
501
502
503
490
493
523
530
506
514
519
515
506
502
475
468
485
489
509
517
521
509
489
501
500
509
490
501
504
518
531
543
543
536
541
535
520
517
521
531
545
540
538
532
519
506
510
524
519
525
524
534
530
529
539
553
526
514
514
523
541
532
519
532
537
532
536
519
501
499
515
532
537
547
560
570
551
528
534
555
574
567
549
524
532
537
529
521
524
540
528
526
535
548
552
544
527
545
568
571
558
533
524
546
555
525
515
525
553
568
554
557
563
559
554
560
561
560
547
541
554
565
565
548
540
527
512
530
551
553
546
539
539
538
543
547
537
541
560
563
559
542
538
529
513
527
547
543
553
562
547
503
499
537
540
545
564
562
563
544
530
520
505
506
509
514
498
493
498
505
496
477
461
462
479
489
491
482
492
488
499
512
506
491
468
436
426
448
471
469
453
462
473
461
449
439
445
458
433
409
412
419
425
430
432
429
430
434
425
436
436
448
458
454
441
435
437
461
450
430
421
418
436
439
456
467
442
422
440
443
437
433
420
423
441
448
443
454
458
454
457
456
467
488
481
440
409
409
420
422
423
457
450
459
465
475
461
458
466
463
477
487
478
453
454
455
458
448
424
400
401
429
458
467
475
480
484
493
483
479
494
477
447
449
469
482
494
510
487
449
442
461
458
434
420
423
448
470
475
473
472
471
465
467
490
493
481
467
455
445
439
450
456
453
457
473
475
473
486
495
490
482
493
507
493
475
474
474
463
447
451
461
467
462
467
477
489
482
477
469
456
449
464
481
479
460
455
452
443
451
481
492
493
485
461
454
470
489
505
516
486
464
467
475
476
485
472
460
473
494
513
517
506
527
537
537
533
523
525
538
535
510
480
487
507
515
521
512
496
493
493
494
499
504
515
503
510
531
563
570
540
532
535
524
526
531
549
521
479
483
499
489
491
488
476
455
450
446
460
466
448
444
435
418
447
480
467
439
444
452
470
473
454
437
453
460
451
441
438
432
434
450
446
439
449
447
461
469
478
455
436
440
434
433
423
427
442
451
457
442
452
463
469
460
453
446
430
408
431
469
483
452
442
438
432
431
445
461
472
465
457
450
436
441
447
443
465
460
440
427
431
449
468
472
469
471
481
496
498
493
492
529
553
542
553
575
587
579
602
604
602
611
659
655
635
617
623
633
630
624
618
609
581
560
523
470
399
362
350
339
329
312
282
281
283
266
272
297
306
312
305
312
322
342
362
377
375
387
406
425
441
446
427
437
448
434
434
457
479
486
493
511
511
484
488
506
489
479
476
492
501
488
453
464
508
518
522
509
506
491
470
478
495
492
487
479
468
468
482
484
493
495
488
520
543
525
510
507
506
495
505
511
500
496
487
491
502
504
515
531
532
537
536
513
497
498
502
517
529
529
521
522
520
542
531
529
523
520
539
548
524
499
500
517
514
508
519
511
496
499
502
522
529
522
505
511
520
506
519
542
554
535
525
535
558
556
541
541
541
548
533
520
532
543
528
515
517
529
552
557
538
532
528
530
533
540
546
565
560
540
537
540
545
545
543
546
550
538
550
545
534
556
565
556
547
540
540
544
554
567
562
554
580
580
544
522
542
534
519
522
537
546
548
553
549
558
567
555
548
534
554
553
545
516
522
566
573
565
545
540
535
539
543
540
529
517
524
530
544
558
545
543
539
538
527
529
519
524
540
542
536
523
504
501
511
504
493
499
517
509
474
465
485
509
507
497
490
484
488
484
466
464
467
465
476
485
476
490
509
498
467
451
447
439
435
422
436
441
418
400
398
401
399
416
448
473
471
463
445
422
418
436
467
476
473
457
428
401
400
414
420
408
434
464
461
438
417
418
427
417
417
413
407
397
387
390
418
447
446
429
420
438
452
451
436
437
455
472
464
451
441
450
468
486
494
471
460
449
438
445
456
461
452
446
443
444
443
445
464
480
469
455
451
453
447
458
486
484
442
438
435
464
476
481
468
471
480
480
437
399
424
455
458
486
483
469
456
452
436
461
490
496
471
451
467
479
489
489
488
484
471
457
458
490
496
464
431
442
451
454
439
450
455
459
460
451
443
468
474
488
506
507
499
502
501
486
459
456
472
481
457
456
465
457
467
476
496
513
520
518
504
510
519
509
485
478
472
459
468
488
493
480
485
494
498
486
471
461
470
503
497
493
515
520
502
484
474
474
481
482
477
464
465
454
459
475
473
460
462
491
505
521
517
511
511
529
536
515
485
480
480
484
508
515
492
471
450
439
447
454
447
416
423
437
438
426
448
451
431
438
440
431
432
456
452
441
442
432
432
441
442
441
458
456
446
433
437
453
465
471
437
416
403
419
434
430
426
448
460
446
408
394
395
391
380
389
411
444
464
456
445
441
440
424
416
425
423
433
436
444
454
423
397
405
411
445
472
458
458
447
446
453
432
403
406
414
424
442
465
486
470
447
464
495
511
491
464
466
495
521
536
578
589
580
592
615
632
645
655
672
663
642
644
649
655
641
627
610
591
558
528
490
431
374
360
354
333
302
276
256
252
270
271
273
290
318
329
335
347
366
380
387
376
383
388
389
380
395
417
439
465
483
474
469
477
476
475
486
475
470
483
497
498
490
474
460
465
483
498
500
497
480
480
494
502
489
482
490
496
492
500
499
486
482
489
508
505
506
510
505
505
497
506
510
512
499
497
512
520
502
498
493
506
517
532
547
521
526
524
496
490
491
493
510
529
534
517
510
532
541
531
549
557
555
544
497
480
490
518
517
502
504
509
516
526
538
533
517
512
520
537
545
565
544
519
515
514
535
545
531
538
535
566
575
556
574
587
580
578
555
556
557
544
551
565
573
584
576
585
580
580
598
598
588
588
576
563
559
559
552
534
536
567
603
593
583
586
591
585
563
580
605
608
578
560
574
590
600
590
575
571
561
572
559
534
538
570
588
605
606
579
556
548
566
575
575
574
571
546
527
529
534
539
545
541
541
545
537
529
534
547
539
527
534
524
527
518
507
501
489
524
546
558
558
565
530
489
469
483
515
511
511
530
537
537
520
487
466
477
478
473
480
480
486
487
476
477
482
498
501
481
449
441
455
483
484
462
467
475
458
442
432
428
416
422
439
448
453
473
479
461
448
432
429
424
431
429
419
418
424
423
423
444
444
423
400
409
413
405
406
420
427
421
435
419
420
438
450
457
450
431
445
437
432
425
416
400
394
413
428
433
433
423
428
435
420
424
452
463
452
445
434
416
407
421
430
448
455
463
467
456
433
415
427
456
474
467
451
431
433
442
465
484
469
445
435
436
449
455
467
499
503
454
428
431
442
453
465
465
464
437
435
459
471
475
458
456
464
478
482
479
455
450
461
454
456
468
477
468
470
480
507
507
473
470
478
487
491
469
460
481
509
500
499
511
504
490
478
456
457
459
453
468
480
459
451
462
459
445
442
439
432
447
476
465
473
480
496
502
498
505
481
424
419
448
470
469
475
506
530
516
495
493
496
500
499
500
505
487
461
448
462
482
500
478
463
467
482
483
482
501
500
508
512
510
518
529
520
502
485
477
463
456
446
451
491
536
527
522
514
527
575
566
547
523
529
530
544
538
507
506
509
507
487
477
472
448
444
454
470
452
438
458
477
461
455
455
447
455
458
448
426
434
454
452
436
419
413
421
442
447
446
445
457
469
466
441
427
425
432
418
411
408
436
446
431
422
425
428
440
461
466
462
449
458
462
438
437
426
428
441
446
446
445
456
465
459
445
444
447
445
444
438
439
480
475
427
409
431
459
465
454
461
476
475
470
480
475
466
453
444
457
477
511
545
560
595
626
641
625
613
609
627
651
660
666
667
653
668
687
673
640
646
658
649
598
547
516
484
445
408
397
360
317
277
255
249
229
218
253
289
266
270
308
330
355
376
369
362
373
388
420
435
465
483
473
444
450
462
450
441
465
481
488
501
496
478
468
475
485
500
497
476
474
467
456
459
475
490
489
499
489
489
470
470
493
502
493
494
504
503
508
492
496
495
495
502
497
495
500
516
531
528
525
503
479
473
469
509
548
525
484
483
494
503
499
489
490
493
505
528
536
536
523
524
538
531
518
500
502
516
524
523
507
469
461
471
493
511
513
514
507
510
518
522
521
526
562
562
536
519
495
491
505
500
510
525
526
527
520
510
527
539
528
527
517
507
521
525
518
525
538
514
515
540
548
531
546
560
584
570
523
490
521
565
589
572
545
541
566
577
555
522
541
536
532
541
551
556
547
541
549
565
559
541
528
519
529
541
559
559
552
547
562
561
556
544
540
541
524
521
528
556
566
548
538
526
512
534
529
516
520
529
535
539
554
562
557
539
534
533
531
531
530
541
551
551
536
524
519
521
523
514
509
488
485
490
488
474
485
509
529
517
485
494
507
516
503
485
494
502
482
469
461
450
448
456
470
475
478
484
476
460
443
467
498
467
416
395
404
408
402
416
433
426
418
437
452
448
447
454
442
427
402
389
392
406
422
432
428
424
422
430
456
454
433
414
420
420
426
449
459
421
384
379
414
455
451
431
443
444
418
415
431
441
447
452
450
444
448
459
467
448
426
433
442
452
468
481
461
434
418
432
455
441
428
433
432
439
447
438
440
466
477
473
471
480
489
479
462
450
430
436
463
476
460
455
460
468
457
453
456
469
478
498
503
495
476
466
458
450
480
504
492
467
427
421
452
460
467
480
473
473
459
456
480
494
471
463
447
454
471
475
481
467
466
477
468
461
475
490
475
477
485
468
449
462
469
462
481
482
485
493
466
453
463
471
491
495
467
454
463
487
481
476
488
496
492
478
460
471
485
498
485
478
487
492
510
509
494
497
520
522
485
470
486
512
506
505
510
493
485
477
480
484
476
471
489
529
523
494
490
510
521
529
538
556
550
555
551
536
517
503
503
525
538
532
521
528
552
537
509
520
520
506
501
486
478
477
469
449
443
451
459
464
445
434
436
449
454
480
486
483
446
419
431
441
414
411
431
451
450
450
456
463
454
440
431
431
441
441
442
436
429
439
443
436
413
413
423
416
420
438
462
451
444
426
414
432
453
449
432
427
417
422
466
481
452
430
441
447
444
439
430
439
441
441
446
449
449
446
441
455
457
469
486
488
484
488
495
491
474
451
462
505
526
545
558
571
565
569
608
653
666
641
629
625
641
656
650
639
649
649
643
657
628
573
529
503
478
413
362
344
322
290
274
266
247
234
221
232
242
256
280
316
321
296
296
341
374
392
398
418
433
430
434
447
469
481
472
456
460
479
486
487
470
452
447
463
468
470
468
466
483
501
502
500
488
479
479
486
501
494
480
492
486
487
497
499
490
485
505
518
513
513
495
484
494
489
484
509
511
496
488
495
495
484
474
481
481
481
491
503
523
532
523
533
535
508
469
469
487
511
517
498
487
507
551
564
540
505
507
521
528
507
502
519
533
516
513
520
518
520
517
500
493
504
524
523
518
514
520
524
533
535
540
538
547
553
541
529
531
542
542
523
513
513
514
535
525
512
524
533
526
509
538
568
550
541
544
553
555
533
512
529
533
533
524
521
534
545
564
579
603
579
565
546
555
568
559
550
530
518
526
521
510
520
523
544
558
549
558
552
540
548
563
558
547
529
553
578
584
563
553
554
527
532
558
569
542
525
531
532
534
536
540
523
526
545
547
534
522
529
557
549
520
524
518
521
527
517
521
514
517
517
518
517
502
503
522
515
509
511
502
496
497
502
497
498
495
496
494
490
478
462
469
465
470
466
453
411
397
433
453
441
453
472
453
431
419
425
452
455
448
449
442
433
426
430
425
428
424
428
409
399
415
452
464
457
445
420
434
457
431
406
405
419
429
437
440
448
436
425
425
429
446
425
416
428
423
442
454
443
455
463
446
447
469
465
449
460
448
426
421
416
427
452
482
483
447
422
403
415
434
453
467
450
443
463
461
448
450
467
479
474
454
441
454
469
473
454
441
439
447
458
461
459
451
445
454
456
456
466
458
461
466
458
441
437
461
469
497
490
469
472
479
475
463
472
487
480
472
451
446
462
476
487
472
457
461
472
476
496
499
486
479
467
470
477
483
467
474
494
484
460
437
434
444
464
467
463
460
467
479
491
492
498
496
503
511
498
510
517
501
490
482
462
451
454
451
460
469
483
529
538
517
503
509
543
539
510
498
502
514
511
497
485
489
487
497
505
495
489
495
519
550
543
533
526
535
536
527
517
511
520
549
552
543
537
521
520
524
520
512
515
501
507
500
495
497
490
474
473
471
448
414
419
452
461
447
439
433
429
432
441
452
456
444
461
454
438
431
434
463
477
466
450
465
467
419
413
442
449
432
438
442
448
447
440
439
431
412
414
412
425
438
422
403
409
420
450
482
481
467
446
440
448
437
416
416
450
471
479
483
472
470
464
437
423
438
443
430
439
448
464
477
483
477
476
491
491
484
474
477
512
522
536
545
567
585
598
610
612
632
648
669
672
684
683
648
637
639
638
620
602
597
552
512
485
456
397
347
324
315
278
246
244
239
221
229
262
277
277
271
289
299
308
327
351
350
342
349
388
434
440
434
454
457
472
494
502
500
506
504
486
477
465
456
459
475
501
484
460
475
490
489
490
480
490
499
506
523
528
500
462
468
462
466
480
492
515
533
513
497
474
469
498
522
510
491
495
516
500
476
472
479
490
506
510
489
494
512
508
496
502
497
506
521
515
510
526
561
549
521
492
494
489
477
476
486
487
511
542
514
487
485
493
512
518
523
513
513
521
547
553
535
514
499
512
526
524
538
537
536
536
548
555
545
540
526
514
511
502
507
524
531
551
541
531
542
533
524
539
539
521
524
523
526
541
561
573
589
574
549
536
537
555
551
547
543
535
539
519
532
553
550
542
547
547
554
574
603
608
592
556
534
531
514
504
511
525
549
553
557
556
559
558
562
534
536
550
538
513
511
534
554
548
537
537
537
538
517
509
531
550
568
559
534
531
538
543
539
522
523
536
539
542
553
545
537
536
534
514
510
527
541
536
513
499
514
509
491
476
476
481
478
482
495
491
491
492
492
495
494
505
488
453
450
458
458
441
428
424
431
451
444
457
494
507
509
505
450
413
404
415
427
418
416
413
393
397
426
431
446
463
444
428
421
421
423
416
421
415
415
419
431
438
444
440
439
435
439
434
432
418
393
404
424
441
438
448
451
456
449
461
465
456
446
449
468
451
444
443
429
427
423
416
415
431
442
460
458
422
433
465
470
459
451
477
497
495
461
447
445
440
455
475
458
426
419
432
462
489
511
501
471
450
476
494
494
465
432
436
449
474
490
500
478
467
466
479
495
478
451
459
472
461
442
447
453
457
449
457
462
463
467
475
462
466
461
454
459
471
475
471
466
465
486
491
485
485
493
494
498
494
487
483
495
501
500
530
546
538
527
517
497
493
508
515
502
483
486
477
495
510
517
511
512
531
523
526
512
499
522
541
543
526
524
511
514
546
561
570
561
546
544
565
564
551
525
503
487
492
488
483
479
465
449
465
490
493
500
479
476
506
506
460
424
424
436
440
440
449
444
436
429
426
427
416
423
434
443
441
440
451
436
441
437
441
438
412
384
403
419
439
440
450
465
473
476
474
474
457
434
423
426
429
425
440
455
452
449
454
430
425
430
440
443
434
432
446
436
405
394
424
452
465
471
472
459
437
417
425
446
483
498
481
462
465
479
482
484
493
490
486
506
531
549
560
578
595
603
592
617
667
708
699
669
663
654
647
657
648
639
633
595
559
503
442
365
321
325
315
299
282
291
300
291
258
263
249
240
242
253
271
308
340
368
385
387
387
405
413
441
451
435
426
449
478
485
491
478
516
496
473
472
469
473
483
461
443
466
492
507
491
472
473
484
492
488
479
481
484
499
515
522
516
511
520
525
506
469
446
440
456
486
511
525
534
537
523
516
508
512
531
523
521
495
476
471
486
526
526
486
481
492
521
532
529
517
515
515
507
511
521
508
514
534
510
486
514
551
550
537
536
525
505
506
518
525
520
527
513
511
512
511
523
531
535
520
507
510
510
514
524
511
517
533
540
538
539
530
524
524
515
518
536
557
548
534
530
535
549
522
501
526
561
573
558
549
542
536
519
517
531
541
563
600
585
550
560
565
544
535
535
531
527
535
559
562
554
567
586
562
542
530
524
531
546
544
522
525
527
545
565
571
545
536
542
543
542
536
541
539
542
549
569
582
568
550
531
521
518
521
531
535
539
536
534
545
555
549
556
544
518
509
516
519
525
540
537
523
519
517
543
544
516
491
498
505
512
501
497
505
493
476
473
475
468
460
479
494
482
467
464
482
489
465
448
455
448
471
477
457
449
450
443
430
425
423
418
430
437
430
419
410
419
422
450
460
446
426
415
433
437
416
410
424
420
402
406
440
442
426
429
435
426
418
420
408
418
431
469
475
466
462
449
434
417
426
449
462
452
441
447
471
466
450
465
447
424
411
403
422
433
467
487
488
471
447
426
426
429
417
414
425
434
430
448
474
487
484
478
487
502
502
469
442
427
453
470
452
432
441
446
459
478
484
483
491
475
458
459
459
459
455
451
457
462
475
475
464
454
459
479
488
486
468
457
467
488
501
491
476
454
456
466
468
466
478
487
498
499
515
505
450
449
454
479
508
535
517
497
494
494
504
495
484
476
499
524
514
519
505
484
497
522
526
533
529
517
520
534
526
501
484
484
500
489
455
462
498
554
571
558
547
534
529
527
527
531
509
520
539
561
574
553
519
493
498
491
468
456
476
490
481
499
484
463
456
457
455
449
449
454
453
453
475
475
456
448
465
466
461
438
419
414
382
389
395
411
446
452
438
451
451
442
433
443
451
440
436
436
437
434
426
437
439
429
433
438
441
456
454
451
428
412
405
409
415
422
438
444
459
475
454
419
431
434
430
431
434
453
457
454
450
455
452
450
444
456
449
455
475
496
509
504
503
513
530
537
542
543
547
561
600
629
642
626
603
630
671
653
637
650
684
690
687
663
641
599
547
499
460
411
389
358
313
306
279
254
239
235
234
242
241
258
275
299
305
303
319
339
342
344
364
380
393
415
425
432
440
457
465
482
494
492
503
506
497
489
480
471
469
477
473
456
463
494
509
505
520
509
468
442
456
468
487
493
499
490
481
488
503
484
473
482
486
500
506
501
495
513
526
524
509
504
480
466
479
484
494
504
529
540
514
484
471
483
503
512
514
506
515
525
537
537
520
487
485
505
502
509
511
505
524
526
525
537
514
506
500
486
487
521
541
533
529
500
505
528
529
522
523
533
544
534
538
548
522
506
505
514
511
524
520
516
544
550
519
520
529
530
533
528
523
519
524
548
546
549
559
579
596
591
534
503
490
502
533
552
541
532
540
547
542
531
545
555
548
547
560
571
551
520
514
528
540
543
551
557
566
557
524
542
566
582
579
564
537
525
516
532
549
562
555
561
554
545
536
548
551
524
518
535
547
559
561
565
549
527
507
518
536
526
533
544
534
530
544
546
535
517
497
513
543
559
532
518
503
497
501
504
501
503
516
526
528
516
489
474
474
484
518
555
547
492
463
470
452
428
440
447
443
448
450
447
435
437
466
466
457
447
441
436
442
448
432
422
420
432
408
408
424
450
463
466
441
419
417
424
433
440
449
438
435
442
453
444
431
417
412
429
433
432
427
428
432
432
438
455
466
479
468
432
407
402
403
411
441
465
473
458
436
443
436
420
430
443
454
468
472
473
475
469
462
440
425
436
447
469
475
454
448
445
437
456
460
452
460
472
499
507
475
445
453
454
431
430
451
476
476
452
435
437
457
516
512
466
447
448
452
451
465
463
459
477
483
473
468
469
449
445
447
456
459
450
449
478
488
475
463
483
484
470
454
452
462
479
487
472
476
480
487
491
498
493
494
507
518
517
512
491
498
519
531
511
497
511
522
515
488
473
473
483
492
516
540
544
522
517
540
523
507
500
524
512
505
506
530
536
515
490
480
495
523
531
536
548
538
533
523
533
542
527
513
516
520
532
507
466
462
458
450
459
471
489
507
489
442
416
433
450
445
452
488
496
499
477
456
456
455
454
460
454
451
466
460
453
458
473
465
454
449
445
429
415
409
405
428
470
491
446
401
411
440
436
445
451
437
445
453
443
438
448
453
437
435
429
427
429
418
415
424
435
443
447
476
492
488
467
455
464
458
439
438
436
427
415
432
467
477
465
459
463
480
494
483
488
487
497
524
548
554
552
570
578
605
614
623
630
656
682
690
668
676
684
669
659
645
641
618
564
527
478
413
369
327
298
280
265
268
284
260
241
239
273
297
311
319
330
331
336
359
351
353
375
389
402
424
435
448
455
466
469
468
445
436
443
470
495
481
477
500
500
488
477
468
463
456
456
475
482
495
504
525
529
515
489
479
495
504
506
491
494
505
494
474
476
485
499
495
488
492
502
512
510
508
505
501
504
506
496
493
500
514
523
531
503
487
469
468
455
467
485
506
520
527
535
524
527
532
518
497
498
515
531
512
520
535
525
525
530
533
516
515
542
543
544
531
513
492
494
507
501
504
507
516
530
530
536
546
530
529
531
520
531
528
524
528
542
540
533
541
551
544
537
522
516
499
501
506
506
545
563
544
542
560
577
576
566
551
550
546
546
548
542
539
529
532
533
533
525
525
533
545
547
544
543
533
541
552
545
535
544
537
522
528
545
556
536
535
542
535
548
575
557
536
540
547
541
537
528
532
559
584
583
572
570
564
533
506
510
519
519
530
526
516
533
572
590
564
549
535
533
530
524
527
529
536
549
571
538
494
492
511
512
507
492
476
500
528
538
515
484
474
473
466
470
475
468
458
459
470
467
468
467
470
467
453
431
440
454
452
440
439
456
459
443
421
410
410
430
441
439
455
453
474
467
446
433
438
440
416
404
415
441
451
442
435
444
452
452
439
437
434
431
412
419
423
426
441
476
486
489
455
444
449
473
484
465
443
454
451
448
444
436
434
456
476
451
440
470
510
502
455
428
446
451
451
437
426
449
472
471
459
449
465
466
464
458
457
444
446
455
472
478
479
506
503
458
438
441
447
466
489
489
467
470
495
503
510
505
497
473
468
474
457
439
456
477
471
475
469
453
442
432
442
453
469
475
475
471
482
486
474
476
486
474
457
447
444
445
458
468
481
475
482
500
496
487
493
506
499
505
513
515
515
522
516
505
493
456
446
461
500
536
555
536
502
495
497
513
526
519
502
487
508
521
531
551
545
524
509
492
508
513
496
489
512
521
513
499
508
518
529
536
525
508
496
504
504
505
512
507
511
530
533
511
496
479
480
488
476
473
482
477
469
460
468
489
478
440
422
414
423
433
432
455
481
498
486
486
493
471
441
424
429
438
451
460
440
421
402
439
457
446
468
458
447
436
440
430
463
474
453
443
432
440
472
481
441
438
443
442
427
406
409
428
436
459
471
474
474
481
470
461
443
441
456
459
445
430
439
455
467
462
446
449
487
492
486
489
480
482
503
506
486
474
495
520
513
523
542
570
585
596
622
624
621
603
610
642
651
628
634
638
632
634
624
602
563
523
474
427
386
364
354
333
312
292
299
305
292
265
242
272
286
301
317
369
384
375
371
382
378
402
419
415
418
434
451
454
457
466
489
499
480
485
526
537
523
498
475
461
468
488
484
472
452
454
456
456
457
463
476
511
515
533
535
507
481
463
472
505
540
536
515
503
499
493
500
500
504
487
479
480
493
504
486
481
464
472
512
515
514
501
504
518
520
506
494
512
540
521
495
499
538
547
543
545
527
501
485
492
498
503
497
508
538
544
512
485
492
513
531
532
522
522
518
534
544
535
533
530
513
489
479
469
472
500
523
537
550
545
540
545
542
543
542
546
550
546
539
533
520
527
525
534
542
526
520
520
524
523
531
523
518
510
536
572
580
570
551
541
542
550
551
545
540
537
538
552
541
519
535
574
602
579
563
555
553
541
531
546
536
526
518
517
532
533
527
516
528
535
540
549
558
560
547
545
560
562
559
541
519
512
513
501
520
538
545
541
542
537
528
519
520
503
489
493
527
544
537
518
520
530
517
511
517
504
505
518
524
544
537
534
518
487
463
445
451
468
488
505
497
465
452
465
467
467
452
453
469
458
472
489
470
449
421
429
438
443
460
477
464
437
446
442
440
442
415
399
408
433
442
447
441
441
441
419
415
415
431
435
446
465
469
462
447
429
402
397
402
418
426
435
443
450
453
446
421
411
410
445
448
432
444
441
436
421
419
450
463
460
462
459
445
454
462
453
458
452
439
441
436
431
454
486
483
468
460
464
465
472
467
455
444
435
454
461
440
414
419
452
480
484
477
463
475
480
479
500
492
462
445
454
450
462
478
478
475
480
465
437
433
447
469
458
452
470
478
476
467
471
481
487
478
486
490
492
495
456
426
437
456
487
492
483
479
474
488
500
489
464
482
493
482
489
477
465
482
497
505
520
523
473
454
467
458
471
495
503
507
506
504
503
492
499
515
529
526
525
522
519
531
535
537
513
477
488
488
484
488
508
517
502
502
499
499
523
543
535
535
523
521
520
508
511
520
514
499
486
472
471
470
504
498
485
480
469
485
475
453
439
454
480
502
495
459
436
419
405
421
447
460
456
447
431
432
439
462
473
453
462
474
456
443
455
455
457
446
426
414
423
453
462
457
459
443
436
457
457
435
409
404
411
435
462
467
458
459
453
434
439
448
441
436
446
451
448
431
433
429
432
443
441
455
469
483
491
496
476
449
437
452
459
467
472
480
481
487
482
493
507
526
540
564
584
590
606
625
640
657
675
681
686
693
685
655
641
640
629
619
608
573
526
469
391
326
309
323
328
297
283
277
284
269
243
243
267
293
328
334
323
338
376
409
410
406
415
415
411
426
439
438
435
429
446
463
479
480
471
475
478
482
483
496
505
490
471
459
459
457
473
482
487
489
479
494
483
463
482
510
516
518
517
516
496
469
471
463
473
492
512
498
475
464
492
512
523
514
519
522
512
513
519
523
502
493
513
527
533
539
531
524
519
498
491
465
448
467
498
525
539
515
514
535
547
523
503
477
478
490
504
516
524
532
521
507
499
505
503
490
481
490
514
531
557
561
533
531
531
526
511
502
498
497
518
528
529
534
538
542
546
536
519
520
535
536
539
541
542
546
546
534
541
556
550
514
499
522
541
537
533
531
520
522
516
519
527
568
599
606
599
577
552
553
558
550
546
531
515
529
543
533
525
534
539
545
543
540
549
561
577
577
534
499
512
525
547
547
567
570
558
558
584
559
528
501
483
492
513
547
553
546
526
518
552
554
539
555
560
543
543
548
550
528
499
532
540
517
503
521
539
534
515
497
480
487
491
485
476
483
496
502
497
472
441
436
465
464
463
464
460
459
459
461
460
440
428
447
467
465
448
449
454
442
436
429
439
442
436
450
469
464
450
433
438
447
428
407
414
423
422
422
421
420
441
441
425
422
418
433
438
452
443
431
437
454
460
448
438
429
422
431
431
420
418
433
453
450
427
437
468
468
453
450
460
445
450
460
458
441
441
443
430
421
436
438
431
434
451
460
453
451
461
480
495
502
489
486
501
487
461
446
431
436
451
449
458
450
441
439
436
452
481
508
472
450
441
440
446
446
450
460
460
465
459
452
443
451
448
474
506
498
471
463
455
472
476
461
471
474
477
482
498
507
494
473
477
477
444
468
490
467
464
474
450
442
474
494
486
464
455
456
451
459
450
455
472
477
476
475
477
476
481
487
475
473
472
466
453
466
473
481
488
487
467
452
447
462
465
459
464
460
461
470
476
472
458
454
457
458
471
480
481
474
477
488
507
513
495
485
511
535
539
521
487
472
477
471
495
517
510
506
504
488
469
477
516
523
523
506
485
490
504
508
516
507
505
514
527
520
507
547
554
555
559
554
551
547
531
506
529
545
532
513
503
478
476
460
449
459
448
465
474
487
482
457
446
440
440
451
459
470
481
477
464
456
456
470
445
403
390
423
448
452
434
445
456
434
425
429
417
422
463
478
469
453
447
463
461
456
446
446
445
452
447
445
454
452
439
433
428
429
455
481
467
461
446
440
439
432
413
426
459
456
439
435
426
441
452
419
432
479
474
472
477
485
508
508
511
482
457
454
442
446
480
507
527
545
560
579
614
636
633
648
681
668
649
647
637
635
630
632
628
625
639
607
569
550
509
459
399
350
327
317
294
295
291
271
246
238
261
283
300
283
289
324
353
362
384
408
417
411
407
406
415
409
414
439
462
481
476
467
464
474
475
469
488
494
518
520
480
461
455
453
456
459
456
472
499
481
466
471
476
501
512
506
500
491
486
490
508
502
497
498
473
475
471
451
449
489
517
515
524
512
502
516
495
481
485
477
488
501
494
486
525
553
527
506
507
505
501
512
519
498
468
495
535
536
507
490
501
513
524
503
507
518
526
533
537
525
514
516
507
500
503
514
531
535
535
529
531
533
532
537
530
518
504
488
484
490
502
515
534
538
522
524
539
531
511
509
525
525
543
547
537
531
531
556
573
563
536
517
524
527
530
547
545
534
538
541
549
533
524
524
544
548
528
550
582
590
564
550
554
551
538
523
527
555
580
572
550
536
533
551
577
563
515
488
503
536
556
563
555
548
533
517
526
528
535
554
563
551
546
550
553
565
564
556
539
532
536
538
550
562
560
544
526
519
520
531
542
516
507
507
525
524
497
493
501
511
497
475
486
514
517
508
501
500
506
505
504
497
486
475
484
483
469
463
458
457
439
430
435
426
437
436
438
453
486
475
444
449
470
466
458
449
460
456
455
456
441
419
430
453
455
432
414
407
415
410
407
416
431
434
446
448
432
412
411
405
413
422
431
433
444
449
448
434
424
444
460
476
473
456
448
450
432
401
421
452
454
445
433
440
441
436
438
464
459
448
463
474
468
454
465
469
466
460
453
439
436
448
456
451
446
464
474
463
448
437
437
437
465
474
458
451
445
454
479
497
487
457
429
435
462
468
476
481
472
471
479
472
475
489
490
492
497
481
449
443
435
445
468
471
473
478
474
484
500
494
475
468
468
471
461
460
443
440
459
464
480
466
451
449
457
460
463
467
481
486
470
478
463
462
473
481
495
509
502
500
479
468
469
442
427
430
446
460
470
483
498
482
451
424
401
414
450
478
479
463
455
452
467
476
469
474
470
441
447
465
471
483
503
504
475
473
470
460
453
451
478
494
469
472
473
450
447
458
460
499
505
489
482
478
479
483
461
452
447
457
436
437
448
452
462
484
487
490
498
488
464
473
467
469
476
499
494
487
481
475
496
508
494
469
456
460
474
504
512
522
529
535
543
542
518
514
523
515
508
525
533
525
502
498
492
479
495
504
499
509
519
537
542
547
554
548
542
548
543
537
531
514
502
523
532
535
532
504
497
501
488
475
456
459
467
464
468
475
459
435
442
455
461
455
448
424
428
435
436
440
435
435
441
424
428
461
462
448
438
433
454
462
452
431
433
447
479
477
483
463
433
437
465
479
452
432
422
430
450
459
449
443
436
419
416
427
429
436
457
472
471
462
447
445
434
422
423
428
446
450
453
462
469
451
436
451
487
490
472
457
455
476
506
510
489
511
559
552
544
566
575
577
587
603
634
665
645
635
657
657
643
646
661
667
649
637
628
607
568
506
446
393
352
334
317
294
278
270
278
278
242
244
279
302
315
320
317
329
357
366
356
347
365
387
417
440
450
408
400
443
449
463
468
467
470
474
476
486
496
500
493
471
477
475
474
480
452
448
458
456
467
491
508
539
535
502
463
455
485
489
476
488
500
504
507
530
538
511
489
483
496
499
485
493
507
494
479
491
514
515
509
503
498
499
505
516
514
501
496
519
532
527
512
499
512
515
512
511
527
533
520
496
467
479
487
510
521
517
513
517
515
526
501
508
512
500
501
519
534
521
509
507
525
539
528
526
525
534
566
568
548
540
537
547
549
542
526
502
490
509
513
501
500
507
525
562
588
572
557
554
554
552
522
510
511
524
554
569
536
533
538
531
529
544
557
555
549
544
532
540
548
534
540
542
535
547
566
569
564
558
576
575
555
522
512
527
541
554
549
538
540
545
552
533
524
532
533
553
556
539
517
530
553
573
554
517
524
548
553
537
551
539
527
511
526
533
524
515
520
518
536
552
546
541
543
551
563
560
540
542
525
507
503
526
531
526
517
519
507
494
481
485
486
500
497
492
492
469
458
467
466
445
438
436
449
457
447
439
467
477
464
461
466
447
420
419
441
447
444
454
456
457
467
464
456
448
450
457
437
434
432
426
426
427
438
460
441
419
417
422
436
446
460
462
441
417
424
418
412
436
444
454
468
450
438
438
456
465
450
452
442
440
458
464
456
460
479
483
445
403
400
433
433
425
440
442
444
461
475
466
446
430
448
474
472
450
429
431
447
469
480
474
460
459
462
453
457
458
454
466
481
475
476
478
472
482
478
467
454
447
442
466
484
471
451
456
475
486
475
459
436
447
453
484
488
464
461
482
497
509
497
484
471
480
487
487
474
455
456
452
439
433
453
465
471
456
436
440
463
460
470
489
479
461
444
422
457
501
525
512
494
457
442
474
473
463
467
475
474
469
467
467
462
461
436
422
447
494
504
497
496
477
444
438
458
457
457
472
483
489
484
498
499
490
465
456
474
491
481
469
450
442
463
466
468
462
456
467
468
469
466
459
459
458
474
492
490
463
443
458
475
481
483
495
490
482
498
500
500
503
499
494
491
489
510
508
494
494
501
505
514
495
500
511
513
511
520
539
538
515
504
527
539
522
505
505
534
532
503
493
503
503
526
563
571
562
566
550
526
517
520
525
534
534
527
536
524
507
491
492
495
509
500
511
503
467
437
420
443
453
461
468
471
464
437
423
415
432
439
443
442
447
457
458
470
473
483
458
434
418
414
440
467
468
459
443
441
445
456
470
467
456
450
441
437
433
445
458
447
426
440
452
449
436
444
457
460
452
467
447
440
464
456
452
446
427
420
435
435
442
449
450
447
451
472
506
498
462
461
484
487
478
479
480
486
517
533
534
530
547
576
600
589
595
601
603
613
623
626
665
693
683
663
654
655
657
626
582
564
541
531
465
411
346
305
280
288
282
262
253
235
230
245
281
298
313
319
304
307
328
345
380
412
428
438
422
403
413
417
441
479
498
498
487
487
498
494
479
478
484
496
503
503
479
470
473
480
484
479
474
509
519
496
472
466
481
509
531
524
498
471
451
460
464
477
510
517
506
503
493
468
467
481
492
495
506
506
507
498
493
499
513
506
497
515
522
521
520
512
513
520
526
516
507
532
527
519
484
469
468
480
508
516
502
492
504
508
514
508
519
529
536
532
528
513
520
545
540
511
523
541
550
556
541
531
522
520
518
511
517
532
534
518
529
547
542
524
532
547
546
548
560
558
534
535
531
530
539
538
547
572
582
552
531
556
575
576
541
515
524
518
521
538
536
527
535
548
554
544
532
533
536
563
579
570
538
550
559
565
569
580
576
552
549
566
551
520
510
523
524
526
527
533
550
540
528
547
583
591
571
554
552
559
557
540
534
521
517
519
524
532
548
551
551
547
541
538
532
534
535
548
566
537
511
522
536
524
498
490
509
515
508
524
537
527
512
531
542
531
509
499
500
498
485
468
444
445
456
450
461
469
476
480
471
453
452
445
452
460
457
451
455
447
435
432
430
425
430
429
429
443
443
441
451
453
446
433
425
433
433
399
395
429
443
439
444
450
440
433
410
395
428
424
427
445
453
464
459
432
427
440
446
461
459
438
454
449
421
420
433
450
458
457
444
437
430
437
467
465
430
415
420
440
451
451
448
441
469
491
496
473
447
446
447
465
468
458
460
456
453
465
469
468
464
463
456
472
477
468
458
456
477
481
485
477
482
504
509
490
480
464
433
444
487
468
427
440
452
456
473
473
456
456
452
461
465
455
459
485
485
471
446
453
462
461
466
457
453
453
429
403
405
450
525
537
538
529
502
478
478
489
478
475
493
504
506
479
457
463
447
439
453
454
454
471
473
463
466
471
465
478
492
492
484
461
450
462
472
483
479
487
478
489
482
466
466
461
473
470
468
476
489
484
464
437
442
454
486
505
502
501
510
524
493
486
491
493
484
488
495
492
476
476
493
498
495
486
477
497
509
518
529
506
503
518
511
512
511
511
506
505
498
495
507
485
487
532
564
561
541
538
538
544
545
566
573
606
585
543
521
502
475
461
464
476
478
487
488
475
474
474
474
483
494
498
470
461
461
471
464
451
443
449
450
440
444
451
461
474
464
443
447
441
439
454
478
473
459
467
471
464
451
429
429
426
422
430
439
437
443
453
441
447
455
465
469
474
468
448
430
421
419
411
412
436
447
444
438
446
456
449
445
460
461
442
427
438
451
438
420
427
448
464
475
477
475
476
491
502
532
519
508
524
557
583
570
573
584
609
619
605
603
618
622
633
654
645
642
663
664
645
615
599
575
555
523
488
436
383
327
311
291
277
282
271
256
263
271
277
277
285
301
321
326
332
351
401
437
445
435
430
435
433
464
463
448
432
449
470
469
467
498
523
528
532
515
484
483
484
478
487
473
479
504
510
505
509
506
490
483
505
516
503
493
501
511
523
532
531
513
497
500
498
496
480
484
504
502
501
536
542
515
516
512
517
542
534
509
513
510
496
510
529
523
516
520
501
498
511
514
520
517
506
516
529
539
542
532
501
495
484
478
497
535
540
528
512
507
527
510
502
493
510
543
557
560
562
566
556
535
522
513
522
514
505
512
518
539
544
538
519
522
539
540
520
535
535
512
507
533
546
560
562
558
553
542
551
562
579
576
558
545
540
533
536
562
572
575
567
550
553
562
581
599
611
582
547
533
527
540
553
566
579
558
540
540
537
543
549
556
555
554
565
561
561
559
554
532
525
546
546
540
547
545
541
542
551
538
523
518
516
516
535
548
564
567
554
546
544
553
555
564
564
531
520
531
527
522
556
537
486
475
481
485
501
521
542
536
520
505
493
512
525
522
527
530
508
496
482
469
482
474
463
466
482
477
457
445
437
443
455
465
456
445
429
422
442
483
478
447
451
457
439
435
459
450
415
404
418
409
402
416
419
455
441
442
445
439
440
450
441
422
422
428
426
424
439
445
453
464
451
425
417
430
425
432
440
442
456
469
447
416
413
426
431
443
444
434
415
410
419
428
442
443
440
450
436
468
488
462
442
456
458
451
447
433
452
475
482
486
473
464
478
490
458
456
466
461
463
443
441
449
462
461
455
461
469
461
458
467
465
460
450
453
455
473
478
479
477
478
492
485
461
461
455
454
447
460
469
478
478
484
486
482
482
474
487
506
499
485
472
477
494
495
496
484
480
467
470
479
485
481
481
495
489
470
454
458
480
476
475
471
466
456
463
454
469
485
486
468
459
468
496
502
518
531
541
508
495
489
493
489
479
497
497
476
470
486
498
504
524
543
526
489
465
486
498
511
522
515
532
534
527
528
550
527
487
468
475
482
495
508
500
518
531
538
539
531
533
543
540
514
507
512
532
553
556
548
502
493
483
478
478
482
483
473
460
476
477
474
472
462
456
465
464
427
417
457
485
487
473
466
472
477
440
425
443
448
442
446
466
464
441
421
430
446
460
468
464
448
435
455
478
483
453
436
439
429
431
449
470
461
456
439
429
442
447
427
426
432
430
454
456
472
483
462
453
481
483
468
458
450
433
445
451
452
455
443
453
471
486
490
473
486
501
535
533
511
519
532
537
559
583
581
572
571
579
598
611
614
619
631
618
622
637
637
637
642
626
575
519
476
466
464
405
345
305
297
282
269
268
255
257
258
255
284
310
317
330
363
390
386
378
381
400
431
428
410
410
425
443
461
466
475
493
500
516
525
505
493
510
505
470
446
449
474
477
472
473
494
488
499
497
490
518
533
523
513
496
470
454
435
465
500
511
494
484
505
511
499
497
496
489
495
499
490
497
506
508
509
519
529
532
538
536
509
490
495
499
507
506
510
510
503
505
514
527
525
513
514
529
523
500
488
487
480
484
491
507
524
532
518
509
528
530
524
528
542
540
526
502
497
495
503
516
512
499
497
513
541
537
529
518
536
537
537
545
529
516
515
523
547
540
503
498
518
517
541
545
524
526
530
546
567
573
557
539
542
555
557
545
523
521
527
532
551
574
574
559
549
546
544
549
545
535
534
541
555
567
571
574
579
563
527
532
556
562
544
518
513
512
526
536
549
549
559
591
587
571
550
529
532
542
539
525
520
527
526
521
510
506
542
544
526
529
537
554
563
552
540
539
524
515
523
538
531
515
518
506
504
523
504
482
476
485
495
484
490
508
508
506
484
463
451
446
487
501
500
479
461
457
457
450
444
447
456
473
461
444
448
451
432
419
418
401
404
423
431
437
441
434
424
429
433
447
453
453
437
419
425
442
426
430
440
437
425
420
430
431
426
426
414
406
428
468
471
492
490
453
436
418
419
423
433
435
454
472
458
440
435
432
447
484
457
434
441
439
444
455
456
461
451
420
410
427
453
454
443
444
443
435
450
453
454
449
443
440
430
454
477
466
447
441
451
462
465
469
478
487
484
478
490
503
484
469
451
457
468
459
455
469
474
455
450
468
482
486
474
465
459
448
473
487
486
478
458
462
466
473
483
471
473
474
470
463
457
458
482
494
500
480
465
463
466
455
466
483
464
458
461
463
480
499
488
482
496
512
518
519
503
482
488
524
511
488
485
490
499
492
479
492
484
482
476
489
515
502
488
482
467
487
501
498
533
565
574
544
498
490
502
507
509
503
492
504
522
535
544
546
557
538
534
546
544
534
522
526
509
498
501
502
489
467
468
454
461
478
474
468
457
448
465
498
489
469
441
434
439
452
462
443
469
468
444
425
417
425
434
449
441
457
454
451
447
432
424
450
470
468
448
432
425
416
418
429
448
465
476
459
433
430
434
443
453
463
476
469
443
428
425
436
447
443
428
417
445
461
457
455
443
439
432
436
463
513
509
504
519
498
487
495
491
486
472
455
435
478
504
522
544
564
577
609
623
625
617
593
606
631
646
639
632
637
657
681
659
637
623
569
526
512
494
445
380
350
334
307
290
269
245
239
226
216
252
284
306
326
332
325
330
343
387
416
420
420
433
443
461
460
452
434
421
415
421
435
453
467
461
465
479
496
515
500
470
460
471
499
506
497
486
477
495
504
497
496
508
503
488
489
499
497
474
466
466
476
499
498
514
515
522
531
541
518
491
489
472
493
486
463
458
466
454
439
482
528
557
538
526
519
514
517
514
496
492
493
495
515
511
491
513
528
515
501
504
515
528
526
512
502
503
502
504
503
486
496
517
517
503
510
529
540
518
502
493
512
533
552
542
524
536
553
553
549
536
525
520
524
524
526
519
522
528
535
554
558
549
530
521
519
526
537
542
526
522
538
573
563
493
489
527
540
530
542
556
570
590
587
577
557
546
558
568
569
546
529
530
542
551
553
550
538
535
544
541
551
563
558
553
550
563
579
573
551
541
544
546
549
527
504
502
529
570
570
540
529
535
530
539
553
562
554
532
520
519
515
507
512
526
556
559
537
521
537
548
540
522
514
523
531
515
498
486
481
472
469
482
510
518
499
478
483
488
482
475
492
495
487
484
480
472
466
456
449
423
427
454
471
470
453
455
458
491
476
412
414
432
436
428
419
433
447
440
429
426
417
411
443
442
426
413
420
409
418
437
418
423
437
441
431
420
405
416
428
431
433
442
457
462
453
442
436
427
437
436
440
446
440
464
467
434
431
455
458
456
458
465
439
424
413
434
465
479
465
443
425
431
447
461
473
487
467
458
455
444
438
450
444
446
460
453
446
456
452
445
479
503
499
496
479
462
477
500
482
443
429
435
444
456
467
465
463
460
441
446
469
488
502
503
491
481
478
476
467
456
462
459
448
450
460
463
452
446
460
465
460
461
464
485
492
487
483
485
476
485
504
516
525
512
477
444
439
445
466
478
466
453
461
482
480
462
458
467
478
480
483
487
496
486
466
465
463
469
480
485
491
511
512
511
534
557
548
548
543
520
476
464
475
491
488
502
508
494
517
510
488
478
466
467
488
516
510
513
497
497
525
558
551
526
508
525
529
546
559
541
546
557
550
535
516
511
507
489
465
461
469
476
488
495
515
548
526
475
449
454
457
447
455
455
438
421
423
436
430
418
437
452
461
476
470
450
444
430
420
431
436
461
479
466
459
478
475
452
438
439
445
450
460
451
429
432
442
438
428
419
420
454
459
449
444
429
422
420
421
451
478
498
498
470
428
417
426
432
444
471
468
462
459
453
462
488
483
464
452
474
517
519
513
513
515
530
534
552
577
579
566
571
603
623
628
635
653
677
707
704
679
671
668
671
663
616
547
498
455
415
392
381
345
317
295
275
265
251
237
216
219
247
295
349
341
332
348
359
362
370
384
394
414
436
435
444
467
482
486
480
466
472
475
460
431
419
447
487
510
503
494
481
470
464
459
471
476
471
461
468
479
485
481
479
479
502
540
532
495
488
477
476
487
484
496
494
489
520
535
524
513
521
514
512
515
503
479
472
476
468
494
536
541
530
529
520
493
483
495
515
522
513
496
501
497
500
513
506
491
503
501
500
510
533
551
570
577
572
564
546
511
465
457
484
503
507
520
520
504
521
540
519
510
513
504
509
527
534
529
518
502
505
507
518
523
517
522
531
520
517
513
511
524
534
544
571
576
536
523
545
571
600
584
550
533
529
524
535
542
555
553
564
582
575
566
554
524
524
557
587
580
548
533
527
522
534
527
547
577
576
565
548
543
541
549
567
572
558
549
558
549
570
577
539
539
565
571
571
577
566
551
540
514
489
498
512
516
525
520
505
529
541
535
535
546
542
518
494
498
527
562
547
533
541
537
536
524
538
528
502
494
487
503
522
518
511
493
486
474
477
483
470
457
459
476
476
475
474
461
483
514
509
484
457
455
440
425
419
429
440
466
466
444
436
431
425
428
432
424
424
416
430
436
436
445
449
458
447
441
455
457
425
416
423
421
416
448
480
472
454
442
456
448
429
423
416
412
399
399
420
446
452
434
427
408
421
434
439
448
462
481
473
456
445
466
463
429
431
453
444
455
473
472
468
460
457
456
465
475
493
477
429
427
454
463
447
437
447
469
467
451
458
474
490
490
471
458
476
488
480
456
439
432
437
445
422
442
473
512
524
488
474
479
474
462
458
470
484
466
464
476
478
469
489
509
510
501
484
465
451
460
480
474
461
468
478
479
477
473
475
464
438
443
459
452
455
468
490
499
470
479
488
481
465
449
453
470
494
482
460
448
459
484
482
454
476
501
496
487
479
461
473
483
474
462
462
469
495
511
510
507
515
495
459
450
472
483
486
505
508
504
506
508
512
501
502
530
533
523
531
549
548
524
516
526
501
475
493
487
483
489
495
491
514
528
531
541
525
515
527
545
543
537
526
542
543
519
511
515
505
469
459
481
488
499
504
506
493
488
496
494
473
455
446
442
428
447
479
476
439
423
427
422
420
434
455
462
440
433
438
442
446
445
429
434
437
434
448
468
458
433
440
449
478
475
467
457
460
463
462
443
429
435
427
432
429
422
425
436
444
452
433
439
452
442
446
443
454
472
464
451
448
420
403
420
443
457
466
467
452
443
467
502
512
516
513
502
503
525
524
525
550
580
597
619
633
627
607
618
639
640
657
661
657
649
641
641
665
651
602
564
519
493
452
389
336
328
310
293
279
246
211
191
192
208
245
291
339
357
347
335
343
362
367
381
401
424
414
421
429
434
438
477
493
457
459
466
464
464
473
470
486
474
468
457
456
478
480
475
465
463
488
516
526
511
499
489
495
490
479
472
492
530
540
503
500
491
474
476
486
490
490
492
510
520
524
526
553
557
510
469
475
496
489
471
471
471
489
515
541
527
502
518
516
504
494
500
520
531
543
539
521
513
505
486
504
506
470
472
510
550
559
547
543
527
522
531
535
544
541
544
539
514
494
493
495
492
480
485
488
498
501
555
591
570
535
528
527
540
544
528
545
553
540
541
537
525
527
528
536
544
540
557
569
549
525
524
539
543
534
525
527
543
544
544
558
565
555
541
558
563
575
561
555
546
544
528
529
540
531
526
526
522
545
566
563
554
545
553
571
568
565
578
567
553
543
561
582
588
568
566
574
564
532
532
548
550
541
528
532
522
532
548
537
551
560
560
536
523
515
521
532
527
508
500
519
528
511
505
518
519
501
504
541
545
547
534
511
504
517
504
488
484
477
471
453
444
463
476
477
470
459
464
470
481
464
452
451
453
469
478
468
454
448
464
466
437
437
440
436
443
444
432
424
432
447
444
428
425
440
462
449
434
425
431
437
426
434
447
430
414
428
448
456
455
436
418
416
435
444
440
434
437
451
454
451
442
445
441
426
416
432
431
419
419
433
452
446
444
435
437
449
478
475
440
449
450
441
433
432
445
466
464
459
464
461
458
473
487
480
474
471
462
452
477
486
465
462
469
482
480
465
448
426
420
436
468
486
492
494
498
496
476
457
457
477
465
459
462
457
465
459
468
474
482
502
516
486
471
477
479
461
453
457
463
471
474
469
452
437
435
460
466
458
443
451
480
475
457
460
483
506
476
467
489
482
466
455
452
455
446
434
439
443
474
508
504
506
511
500
476
466
466
455
467
465
472
476
473
444
439
461
477
470
469
475
471
478
495
513
508
488
468
462
481
488
476
457
465
478
494
508
513
510
502
509
528
530
506
495
510
516
502
497
499
507
515
509
485
482
486
491
510
520
517
521
539
550
524
513
513
515
529
535
540
546
538
525
524
530
554
567
538
513
511
516
509
491
481
479
499
507
500
507
488
463
469
474
466
463
456
438
435
433
458
458
454
461
465
472
463
467
463
451
447
451
445
414
421
430
416
431
432
420
418
456
488
475
444
430
439
443
454
477
463
451
474
452
424
421
420
429
440
433
430
431
430
452
449
442
454
453
453
459
459
456
451
450
452
454
464
436
433
442
456
479
502
516
498
475
474
460
456
470
483
497
513
527
536
553
576
601
612
618
628
634
635
639
650
667
674
663
649
636
618
606
589
587
558
518
490
432
348
319
327
304
281
258
223
200
233
269
256
271
297
297
292
307
319
347
389
395
402
420
437
437
420
429
443
446
445
440
434
453
486
504
499
481
474
487
499
492
480
482
487
485
468
479
486
479
483
478
473
477
487
494
492
490
487
491
501
505
497
495
501
505
494
499
493
496
511
508
488
468
473
503
535
534
536
555
552
505
480
497
506
513
506
513
511
509
495
480
473
465
485
535
547
542
539
521
503
509
517
545
539
519
532
563
550
517
502
484
490
512
511
508
524
520
509
509
530
546
556
549
529
526
532
531
525
531
548
537
513
513
526
520
512
513
507
535
558
548
523
517
518
534
557
566
561
546
524
508
498
493
527
548
558
568
571
589
584
553
548
541
549
562
545
533
554
567
573
579
575
555
535
546
554
547
570
567
531
507
517
550
558
540
534
540
530
537
534
539
546
533
523
530
553
564
569
572
565
553
549
556
558
542
527
545
553
530
540
545
537
538
529
528
543
531
520
523
522
529
529
548
543
514
508
538
552
533
508
493
488
506
513
502
483
480
504
503
481
479
493
498
512
502
481
477
464
474
504
502
504
486
462
464
470
467
468
428
419
428
446
456
432
411
418
443
457
465
449
439
436
418
384
388
423
446
442
436
428
437
455
453
441
423
425
449
443
442
447
447
432
429
431
422
428
443
450
460
467
451
419
427
470
478
454
432
429
430
451
460
446
434
428
444
448
462
467
429
427
441
459
438
436
465
468
472
480
462
445
470
510
507
484
470
464
443
434
442
466
466
470
472
480
477
470
462
474
491
473
457
453
443
452
456
448
466
489
473
477
488
485
483
449
457
496
495
483
467
464
481
500
484
468
464
472
483
480
470
469
455
438
433
454
474
497
487
468
461
474
489
488
481
483
484
473
473
478
478
475
475
489
473
452
446
438
457
480
479
482
491
463
462
466
457
452
455
444
446
455
484
515
509
495
468
475
472
459
465
486
498
503
478
448
432
433
465
482
481
494
507
516
495
487
501
532
512
500
503
500
492
506
515
519
521
536
542
541
530
528
547
554
525
505
499
506
498
492
503
512
519
512
507
513
528
531
544
544
519
521
526
526
518
504
505
511
505
485
468
474
488
491
487
504
521
499
484
465
461
452
457
459
462
461
488
499
489
463
440
436
433
444
440
423
431
446
460
466
446
448
470
478
463
446
452
437
416
418
430
434
446
461
457
462
465
439
433
434
431
444
463
462
449
463
481
465
450
457
454
438
428
413
427
445
440
445
460
475
479
447
426
465
471
461
451
455
450
450
469
485
506
534
531
509
486
474
495
512
529
554
577
586
586
588
582
581
602
612
612
627
637
628
627
632
631
642
641
627
595
556
504
447
393
363
344
335
315
284
269
265
263
249
231
242
257
272
306
337
328
325
348
345
356
385
399
391
402
431
449
463
475
481
487
481
495
508
493
465
458
477
486
461
436
448
466
496
506
488
490
489
495
511
515
508
509
510
494
488
491
505
504
495
504
509
514
502
508
521
550
549
499
481
485
494
483
486
495
479
464
483
493
496
506
502
487
501
524
536
530
503
504
533
523
519
530
514
480
470
506
537
545
511
503
519
536
527
504
515
531
535
529
533
541
529
532
540
549
552
515
474
480
502
517
527
537
532
525
535
554
552
517
506
525
534
543
551
550
529
515
507
514
524
527
540
539
552
551
562
561
538
530
539
529
511
522
550
564
570
533
509
515
528
520
527
530
557
586
575
561
559
556
545
548
544
530
530
540
549
566
581
576
528
538
554
555
548
545
556
554
549
541
549
557
568
552
551
547
531
543
536
527
524
540
540
519
516
525
547
552
535
538
587
583
544
513
500
513
520
502
515
544
541
535
554
566
567
554
508
479
498
492
488
498
496
501
491
476
494
510
497
503
515
527
520
491
490
503
498
472
471
460
457
466
488
483
468
460
454
443
422
416
444
459
446
452
470
477
462
453
447
439
435
430
448
468
453
435
425
396
413
442
433
415
421
432
439
440
440
446
451
462
479
458
427
415
429
428
428
447
467
450
418
415
433
465
481
451
443
456
464
471
425
393
391
423
449
473
486
473
460
436
430
459
473
442
422
439
471
499
495
477
452
457
454
449
449
451
467
465
460
463
461
446
451
444
457
468
466
467
475
484
477
456
456
472
453
427
442
469
500
497
471
462
479
485
490
503
503
495
489
488
478
455
461
482
490
472
455
438
451
453
462
477
460
467
494
505
487
498
510
497
463
440
450
458
489
516
533
508
478
483
463
464
477
483
484
474
458
464
455
444
461
478
469
471
473
469
466
458
456
471
482
472
499
525
500
464
475
492
485
484
494
494
490
493
480
483
498
488
479
491
511
506
509
511
504
502
500
493
489
488
490
489
492
514
532
553
532
511
512
506
474
478
500
530
537
541
573
552
521
518
536
546
532
517
512
526
525
516
501
505
534
520
499
485
480
475
464
477
468
456
447
426
457
462
454
464
479
475
460
463
478
463
425
421
441
452
465
472
463
450
432
414
426
438
437
438
434
433
423
441
457
437
431
442
422
398
406
439
465
480
475
463
460
455
446
436
439
455
466
459
468
474
445
455
467
478
480
458
445
439
438
441
427
426
449
460
472
476
483
470
462
468
485
521
535
505
487
493
486
503
505
496
498
524
543
580
609
612
596
594
620
623
621
624
636
635
640
642
620
614
611
584
537
501
467
424
401
372
352
329
298
280
259
269
277
275
279
301
332
333
329
316
318
356
393
385
387
405
398
384
395
429
466
483
474
461
465
496
510
513
496
487
501
522
523
508
486
469
455
452
460
473
487
496
487
485
488
487
479
489
498
500
491
475
473
481
505
514
505
509
537
538
517
492
475
468
462
474
493
479
487
491
515
522
485
464
490
499
518
521
517
521
521
513
508
498
484
501
528
521
521
541
541
521
498
511
523
513
474
469
490
513
526
529
528
524
501
521
540
519
494
491
481
504
515
516
523
529
517
503
507
514
527
539
543
538
541
538
523
515
520
525
538
554
556
548
541
553
558
541
532
524
525
528
527
507
508
523
531
544
544
546
544
556
560
544
518
505
505
525
537
546
547
552
552
549
547
576
563
523
515
511
516
535
555
551
552
557
549
542
549
560
562
562
550
549
546
544
547
565
573
563
559
566
552
529
527
519
519
522
511
504
515
517
530
538
534
547
566
571
546
506
490
486
482
487
498
506
499
512
509
502
492
506
531
536
531
512
511
509
504
508
489
485
488
487
506
496
478
467
469
449
438
420
420
440
453
460
457
469
492
483
470
450
432
455
474
441
422
413
427
428
429
417
415
427
438
427
419
407
406
410
414
443
489
485
456
443
429
425
428
441
440
449
465
465
445
431
419
417
434
439
438
429
410
411
429
446
433
426
443
455
463
474
470
459
448
428
434
453
467
458
435
424
446
444
458
447
429
429
434
456
454
437
455
473
454
441
442
435
434
437
461
484
485
480
467
451
455
491
501
466
439
423
432
443
473
480
482
464
464
457
457
476
473
462
453
456
459
486
475
467
482
478
471
472
490
489
484
481
496
493
481
475
486
483
465
456
458
464
468
450
438
449
453
471
489
470
469
474
476
478
468
455
450
441
464
482
473
464
480
482
502
502
460
442
471
495
500
499
493
484
471
467
463
461
450
442
464
491
488
484
495
500
529
523
507
495
495
505
514
511
501
498
506
516
521
508
481
476
502
528
533
523
521
520
512
508
501
501
501
504
514
528
533
530
510
498
501
513
524
526
515
523
527
517
505
498
492
483
495
486
475
471
472
472
472
458
443
451
465
458
447
434
450
456
447
425
423
434
444
465
477
475
460
437
436
428
416
422
442
435
437
431
439
459
476
453
435
440
455
465
486
454
431
431
430
432
434
447
432
412
452
478
466
451
450
444
452
461
472
481
488
498
492
466
437
425
438
433
426
421
417
415
427
441
444
453
480
493
492
506
502
488
482
468
475
511
543
559
582
592
609
623
615
604
602
610
634
660
664
656
660
683
673
659
658
635
603
551
504
465
423
420
390
348
331
337
322
293
287
258
244
253
253
271
291
323
350
359
359
376
369
369
400
442
458
452
444
469
520
511
462
440
458
478
497
509
502
462
431
427
436
458
476
487
504
501
477
456
465
472
463
469
485
472
478
475
470
461
489
514
507
498
498
498
512
504
490
494
486
501
482
478
504
518
506
495
497
501
496
480
481
501
510
511
508
503
502
521
545
534
500
470
481
496
504
513
524
527
510
475
463
476
491
518
532
514
497
513
531
529
534
543
553
532
523
538
528
505
504
502
500
519
535
545
557
542
528
507
496
510
498
518
526
534
538
531
540
545
515
510
544
534
515
511
526
532
526
516
529
557
548
546
525
543
550
530
539
533
521
518
533
547
559
561
545
535
532
525
535
554
568
586
570
555
561
563
559
545
541
549
540
545
550
542
540
550
548
571
568
563
538
505
488
504
513
511
525
557
591
596
573
540
526
525
526
540
548
555
555
548
534
521
519
519
533
543
551
538
537
524
531
518
503
505
516
522
523
523
512
510
511
508
496
481
481
515
522
511
497
476
471
463
468
471
466
472
480
482
453
447
452
456
450
441
449
453
445
419
399
421
458
452
445
444
443
450
456
489
512
498
468
429
431
433
413
401
406
408
415
433
441
436
425
415
416
425
418
445
464
440
432
432
428
428
423
420
425
432
432
439
439
451
454
435
437
429
415
431
464
492
469
443
447
445
437
436
441
445
451
459
456
464
453
444
455
456
454
471
474
460
439
439
445
436
458
478
469
443
449
450
450
456
473
476
487
481
468
465
464
485
509
481
454
433
440
475
506
509
478
438
428
448
463
457
453
459
454
448
443
468
485
500
489
462
463
460
476
511
491
453
452
446
444
472
487
477
464
476
499
507
487
467
470
466
456
437
433
448
453
449
453
461
463
482
497
500
478
505
524
520
486
463
450
434
437
454
477
490
490
495
484
477
475
479
487
477
454
453
461
449
437
458
469
483
490
478
478
483
502
516
505
481
478
485
477
484
481
466
485
510
508
519
525
502
485
493
490
500
505
483
489
496
491
505
501
484
486
507
511
517
530
514
526
567
553
506
476
482
500
524
540
513
519
523
518
510
536
550
538
526
523
526
530
520
523
545
551
523
470
461
465
477
475
463
457
470
474
496
507
488
481
474
479
450
430
420
419
440
458
442
432
449
462
475
454
440
444
440
458
465
455
454
439
425
431
435
431
430
417
414
428
449
459
466
466
460
457
456
471
464
447
430
435
441
448
418
405
451
474
464
432
439
465
463
442
440
455
463
454
451
454
476
488
463
451
452
460
447
444
462
477
476
479
478
511
541
533
522
537
553
564
589
615
622
630
639
638
647
657
683
702
698
685
673
666
654
613
575
538
509
467
423
391
339
297
274
273
277
258
251
264
255
262
291
293
314
334
326
320
317
336
361
394
433
446
449
450
453
453
457
452
446
447
484
505
512
485
450
427
430
448
487
490
474
485
477
474
482
493
493
498
501
483
500
519
499
480
486
485
483
488
494
493
497
513
501
490
473
455
455
482
499
517
551
538
489
469
499
514
492
508
506
499
492
493
514
539
534
496
485
493
506
510
514
504
505
513
505
510
518
528
528
527
520
528
522
509
513
515
525
510
485
468
477
496
504
518
519
516
519
526
541
545
547
521
497
508
540
541
538
539
519
518
524
529
544
530
528
543
560
544
546
557
543
528
526
546
556
542
538
540
534
535
538
526
520
540
540
528
497
510
530
514
503
512
548
570
588
595
593
578
568
539
545
571
580
584
575
544
499
503
523
542
559
539
527
535
551
542
535
545
549
527
507
513
520
533
546
555
547
551
538
536
563
549
531
515
508
532
559
552
535
537
568
582
578
567
556
556
529
502
516
512
518
510
514
532
533
519
515
517
519
513
514
498
498
506
512
507
507
483
457
465
466
454
465
474
470
480
491
480
457
462
476
460
440
431
421
448
462
445
456
464
473
462
467
451
436
422
424
439
459
462
433
424
437
446
428
427
421
402
409
442
465
462
474
477
451
417
391
405
423
430
425
422
420
433
455
426
421
439
437
427
427
437
433
444
475
482
457
425
425
429
435
441
465
484
477
479
482
478
476
441
413
418
425
436
444
450
446
434
448
450
456
466
465
454
461
464
446
451
480
488
489
486
491
489
474
459
458
453
464
464
454
439
413
427
459
465
473
480
490
505
501
470
448
451
446
435
439
450
488
522
511
470
459
455
460
472
489
519
507
453
436
445
459
479
490
491
491
494
490
491
451
425
435
438
448
454
483
504
512
505
488
474
470
483
461
444
457
461
468
447
450
459
463
469
454
442
438
464
500
507
503
486
467
472
478
453
459
462
452
454
449
460
471
466
473
484
493
501
482
475
477
477
473
482
461
467
477
465
458
455
470
475
469
475
485
497
517
533
530
524
509
495
486
482
498
521
513
488
452
456
480
511
520
532
529
498
504
525
516
514
513
511
512
508
530
542
547
521
494
486
527
554
521
503
517
528
549
560
543
525
513
528
525
528
534
529
520
516
483
464
499
510
492
489
509
496
481
488
493
481
471
461
458
454
450
439
429
435
430
425
422
429
445
457
470
487
469
451
432
451
454
432
420
422
422
440
460
452
434
450
457
461
458
452
446
439
434
431
435
434
438
429
417
426
463
470
454
445
445
450
456
457
462
478
471
445
449
454
444
440
432
435
435
449
469
469
446
456
455
450
469
476
472
480
488
498
531
539
539
559
573
561
572
604
611
617
627
628
629
642
647
657
647
637
651
668
658
650
625
582
523
499
451
386
340
324
319
273
234
233
221
231
252
266
271
266
277
293
300
305
327
360
374
394
390
417
432
419
410
432
454
450
445
466
493
482
478
502
504
499
490
471
450
446
451
459
463
466
502
508
493
492
518
541
537
505
500
494
497
492
480
468
481
482
490
499
509
503
500
504
496
493
501
509
521
525
519
514
470
462
476
493
516
492
494
510
527
531
517
525
531
518
511
509
500
498
515
515
513
520
527
529
522
522
531
519
510
523
510
486
489
509
526
538
518
501
508
522
523
513
522
541
563
561
518
506
503
480
469
478
509
541
575
579
565
555
533
526
522
527
529
527
533
544
541
544
543
564
545
517
515
525
527
532
525
520
543
573
585
580
564
549
542
565
572
546
527
537
547
555
551
551
549
538
546
566
553
532
534
562
556
560
564
555
560
551
544
550
532
522
534
550
552
567
564
569
554
558
582
573
549
525
513
535
544
533
530
539
547
549
542
520
510
523
557
567
547
546
554
555
518
496
504
522
548
546
524
512
506
500
502
509
538
549
545
540
526
508
508
520
531
514
470
452
449
443
438
440
471
486
488
480
484
486
459
462
462
456
452
456
447
438
436
442
447
447
450
443
434
434
450
443
422
415
426
439
436
458
484
485
455
418
406
399
400
419
423
416
426
437
435
441
440
417
419
442
464
460
479
490
439
401
393
389
392
410
443
447
453
441
439
446
459
460
443
445
463
454
455
454
447
447
450
447
447
464
474
482
484
466
447
445
441
423
442
492
512
484
481
467
450
446
445
446
459
471
476
468
471
470
459
445
421
433
462
470
471
470
453
461
477
494
492
478
471
477
464
439
437
456
460
459
464
461
473
491
497
492
483
479
486
478
455
447
467
458
476
501
483
454
437
448
452
461
475
488
483
475
458
437
449
467
464
469
460
453
475
470
473
499
502
465
446
471
481
479
481
499
505
481
483
490
462
456
474
472
455
447
452
460
467
478
481
473
464
451
449
462
476
471
488
492
489
494
476
459
472
466
464
464
469
481
499
506
501
495
496
503
521
527
512
471
467
467
491
511
509
510
518
519
505
498
525
567
548
526
518
517
516
509
513
510
502
495
488
483
495
508
519
538
549
547
552
547
548
563
547
538
516
508
507
491
488
460
458
466
469
480
490
495
506
483
467
461
453
437
451
458
446
436
428
441
460
450
420
416
448
476
489
464
426
431
444
455
455
448
438
436
433
423
432
453
453
435
433
448
450
462
503
487
453
449
453
452
433
423
419
422
438
445
441
449
440
438
458
455
443
447
453
454
452
433
432
447
446
435
435
451
451
460
465
472
472
461
448
453
464
484
486
476
464
466
498
512
530
556
588
609
608
595
611
624
660
688
709
701
680
659
641
643
645
657
643
615
588
533
494
439
380
336
301
268
252
285
310
275
244
232
240
249
259
279
300
294
311
336
358
368
391
399
402
418
425
430
433
449
481
480
476
467
465
471
480
492
490
476
492
490
484
503
517
493
491
476
472
474
496
524
504
472
456
442
454
495
503
503
489
476
499
520
514
511
511
492
484
495
510
511
505
497
492
491
495
497
504
504
507
517
499
504
524
526
523
529
513
501
535
563
531
490
484
497
510
519
520
502
507
549
556
549
533
524
528
532
521
495
505
522
526
531
539
526
516
493
488
523
542
541
553
559
544
515
501
505
513
525
524
514
515
522
531
541
573
607
593
552
514
504
518
522
520
529
550
550
544
543
561
557
533
516
515
532
541
549
560
544
546
524
536
532
543
558
557
545
551
564
577
568
569
555
544
551
549
546
546
570
569
567
565
551
542
546
551
555
549
534
545
561
558
555
562
577
600
607
565
513
506
523
541
563
567
565
566
553
523
517
532
558
554
563
573
548
517
507
532
562
561
538
533
551
575
555
518
496
500
501
508
500
496
500
495
505
508
495
485
495
496
496
511
501
506
533
528
496
446
438
458
457
451
450
463
477
477
461
464
492
479
456
440
428
439
452
457
449
447
444
450
454
427
423
426
418
432
441
444
439
424
408
427
451
472
457
442
443
444
464
459
430
413
408
390
393
430
449
455
450
451
441
434
434
433
435
435
442
448
454
454
456
471
490
480
458
435
435
431
416
403
407
429
454
482
486
453
419
413
423
437
469
489
497
483
462
451
462
483
505
493
472
469
443
424
425
432
435
452
471
474
456
447
470
488
502
481
466
478
460
450
460
467
465
458
457
456
469
497
481
451
443
437
462
484
470
477
476
459
470
485
492
479
446
449
451
468
468
459
454
464
487
500
494
486
502
507
473
443
449
476
498
496
501
518
501
467
454
467
473
472
470
475
493
460
415
415
443
474
491
513
496
492
484
461
446
457
478
491
494
496
501
512
492
479
493
508
514
511
510
510
520
523
519
510
504
504
518
522
518
510
504
508
492
492
503
506
496
507
537
551
551
538
517
512
485
487
526
537
538
543
548
526
517
514
506
487
482
502
515
515
507
492
481
479
473
483
491
489
494
491
468
449
447
445
446
443
445
449
438
455
458
455
453
456
465
461
459
439
426
442
450
419
393
406
405
419
438
431
433
447
447
449
447
442
447
462
445
425
422
446
475
461
444
432
436
453
467
454
454
470
463
464
439
439
464
458
459
475
495
472
446
448
429
422
452
463
452
438
440
468
484
482
489
515
516
510
508
518
522
519
531
543
557
585
598
613
611
619
649
654
657
665
672
667
654
648
652
653
597
538
488
473
439
399
358
318
299
282
275
278
258
222
235
268
286
306
325
323
322
310
312
333
370
402
398
390
402
428
446
452
461
450
436
443
473
486
474
463
483
503
505
493
491
483
482
490
503
511
501
459
457
482
503
503
516
520
477
455
458
471
492
494
489
475
480
494
523
518
508
497
491
483
500
510
514
502
489
499
500
484
494
521
520
501
481
494
514
506
493
484
490
491
504
522
528
513
532
535
528
527
500
505
503
510
513
517
515
528
531
524
518
523
528
519
499
499
511
512
516
534
525
535
544
545
545
555
552
522
511
530
521
514
526
519
523
559
555
540
514
502
523
534
529
531
539
541
543
545
544
547
544
526
541
535
538
563
554
536
546
545
528
537
527
538
537
534
545
560
570
575
582
572
572
576
559
542
537
524
521
525
542
589
574
534
530
543
545
558
557
546
551
558
574
577
552
538
560
574
561
555
560
537
498
481
491
515
539
558
565
578
587
548
520
521
535
548
554
537
527
519
514
531
532
541
545
546
541
524
516
514
497
495
513
493
473
465
463
464
467
471
486
496
499
502
489
476
481
480
478
480
467
469
466
443
455
491
494
479
455
464
476
478
469
461
432
419
418
408
428
433
446
462
475
470
466
442
423
412
430
442
455
458
440
435
434
436
428
428
448
445
438
435
426
405
437
472
468
416
403
410
417
427
438
422
415
418
434
431
423
429
447
446
445
447
453
468
475
453
440
448
472
488
478
448
420
413
427
430
459
479
482
483
503
512
485
456
450
424
411
428
446
457
453
455
473
473
469
460
439
460
471
477
466
465
465
478
489
477
473
476
475
483
491
471
453
441
445
456
469
474
475
488
467
451
465
469
485
482
463
469
463
463
460
456
461
464
470
481
484
484
480
487
512
515
474
451
441
475
464
435
429
450
483
507
493
476
474
475
475
473
483
498
487
461
474
473
467
472
487
479
490
509
516
491
466
440
434
480
530
532
533
524
504
500
480
483
504
533
521
503
497
520
533
516
499
512
536
520
475
448
455
492
536
534
503
491
500
509
511
501
505
515
530
533
528
515
520
524
526
522
526
538
553
574
528
501
496
492
476
449
431
445
459
460
464
460
448
451
463
473
453
438
448
460
462
453
446
453
448
434
427
450
471
461
452
433
427
429
422
429
452
475
467
455
464
463
458
429
414
425
436
446
466
452
439
450
454
455
439
441
446
503
512
481
462
456
453
445
452
475
478
472
462
450
433
426
461
495
478
469
446
441
448
482
505
492
487
488
484
474
499
526
529
517
508
526
546
552
572
588
609
631
629
635
643
630
621
637
646
626
621
601
584
582
544
500
481
458
414
394
373
343
315
332
337
313
295
274
271
283
299
332
348
356
369
379
390
383
397
433
438
452
458
472
465
457
462
487
492
471
489
491
476
460
457
465
476
472
460
464
484
499
491
485
494
520
541
514
465
436
454
461
466
453
446
462
494
504
486
485
482
492
503
546
565
556
530
488
487
484
483
478
476
488
498
510
501
492
481
469
483
491
486
510
544
553
540
522
517
530
530
511
483
470
481
478
491
511
501
496
519
523
523
508
494
499
511
516
524
524
513
497
494
503
510
517
521
523
515
525
555
552
530
532
536
544
538
516
520
524
534
529
493
492
521
521
532
554
554
525
535
559
559
549
537
548
545
519
512
503
516
549
540
526
521
553
577
544
528
536
546
538
525
536
553
543
528
506
496
499
533
567
562
548
544
548
550
558
561
575
576
549
535
548
574
592
567
546
535
538
553
544
526
521
514
520
531
541
547
554
554
537
523
527
535
530
552
555
535
528
526
533
544
533
551
547
530
499
496
502
505
512
494
491
509
527
538
532
527
511
485
492
529
518
480
465
452
453
455
479
498
475
454
448
474
479
486
488
475
464
464
472
444
413
406
415
429
432
446
443
444
440
432
435
421
424
423
422
433
421
436
441
448
428
410
420
429
421
401
411
432
466
458
452
435
405
383
394
439
469
477
454
447
447
445
456
463
436
418
419
430
442
452
464
457
444
448
446
445
437
433
446
457
451
447
457
448
434
438
443
441
437
440
450
460
437
465
498
492
477
493
502
482
461
457
465
469
469
459
473
464
456
443
439
450
459
472
470
462
447
448
445
462
475
482
485
478
478
455
435
438
446
470
483
484
489
501
482
438
427
469
502
494
475
452
446
451
462
453
449
467
476
476
479
487
471
465
465
464
464
481
512
495
464
461
466
463
463
478
488
503
503
501
500
488
497
515
520
521
509
513
529
509
478
466
458
465
488
510
512
512
538
536
510
497
488
494
500
508
498
493
485
490
502
485
492
509
512
516
512
510
518
530
513
531
562
560
515
480
494
509
516
486
489
511
478
466
470
462
469
476
487
491
479
484
481
459
443
440
448
449
439
443
448
430
422
448
470
478
457
447
444
435
442
450
458
467
455
453
464
475
467
442
436
429
451
476
469
424
401
414
443
460
479
499
479
463
467
457
441
453
475
463
441
436
451
468
465
454
442
437
450
439
415
409
455
465
453
469
465
470
472
472
472
482
484
475
486
496
504
509
501
539
566
553
551
567
590
604
610
609
633
645
648
650
656
676
679
681
666
641
629
617
589
562
540
499
430
374
378
371
353
327
296
274
252
254
256
283
307
326
338
332
331
344
361
381
395
385
385
414
454
480
482
445
432
456
478
475
455
461
479
484
475
482
483
489
488
492
479
461
454
466
501
508
493
490
499
476
464
484
507
529
545
534
482
465
454
452
447
472
500
493
488
493
488
468
473
478
477
480
494
508
501
502
493
490
491
493
488
497
510
482
460
475
485
509
539
551
544
541
547
537
527
536
542
514
477
459
454
461
483
500
506
473
452
472
494
505
500
528
566
556
519
534
539
504
467
476
511
535
533
505
498
515
530
524
518
523
537
537
536
538
541
535
524
519
535
520
512
519
502
516
532
541
530
530
534
521
525
539
551
560
557
549
517
520
540
547
548
560
550
536
538
540
547
541
543
540
528
551
574
567
532
519
531
550
553
538
527
514
525
539
547
549
559
581
572
532
506
505
533
567
581
565
551
546
545
529
520
516
510
494
504
518
528
545
565
571
563
546
540
532
504
504
526
553
533
504
512
518
528
520
496
485
492
515
512
491
486
510
509
506
497
482
471
472
471
458
442
440
438
447
469
476
453
443
451
450
459
453
444
449
433
423
427
432
414
420
435
439
423
420
432
435
441
458
457
440
424
451
473
466
454
448
459
458
418
393
385
385
394
420
452
468
462
459
460
441
409
405
425
450
462
458
444
448
460
438
430
432
433
415
413
436
452
453
449
446
449
455
455
467
483
471
480
472
422
393
396
411
438
461
481
492
479
461
450
446
458
471
461
445
448
462
491
485
449
450
478
469
496
476
430
458
457
431
432
435
425
449
461
454
442
445
458
472
484
485
464
479
507
502
473
447
450
451
467
484
478
474
476
498
532
518
490
466
465
480
485
469
456
455
452
428
419
465
492
494
476
486
499
496
493
472
457
443
464
476
474
458
444
446
466
484
462
460
476
488
486
486
478
465
467
454
462
475
484
482
485
499
497
476
471
480
481
480
480
479
477
478
475
480
473
488
510
519
521
497
480
513
529
526
490
497
497
495
486
486
472
471
487
502
529
542
548
529
517
517
513
489
488
492
487
511
521
520
535
543
540
539
545
535
516
514
514
511
522
532
536
520
483
469
469
487
490
485
478
483
483
488
472
466
485
490
488
487
492
487
486
471
425
416
425
445
446
427
404
400
431
447
430
446
473
471
455
446
458
476
492
477
467
449
443
439
433
451
470
439
425
424
437
436
446
460
471
481
461
411
412
428
437
445
447
449
458
456
462
448
426
417
435
450
472
468
477
499
485
476
476
464
466
480
485
491
483
479
477
475
486
497
495
515
543
543
566
585
603
620
640
639
633
628
644
665
673
664
675
708
713
706
685
639
599
551
498
417
382
366
345
322
315
312
341
344
286
256
279
286
293
308
314
327
351
379
390
388
381
394
406
409
411
413
422
452
459
464
457
451
470
479
468
464
467
480
506
496
493
497
491
483
481
468
455
463
481
471
447
450
475
490
476
495
507
497
480
473
478
474
470
497
510
497
491
480
500
501
462
458
462
476
475
485
494
477
480
491
504
527
527
519
529
521
518
513
504
488
482
478
503
521
518
517
507
522
548
534
496
487
506
519
545
535
504
513
523
522
529
528
503
484
501
511
505
492
504
530
528
512
493
522
538
546
533
523
517
517
520
529
537
541
529
527
533
539
562
572
539
506
497
498
493
505
521
544
547
526
518
525
521
510
528
553
554
547
541
543
573
585
568
548
538
538
528
508
513
511
500
514
533
570
586
565
532
544
562
574
569
565
566
553
540
540
534
537
549
545
543
547
557
580
575
530
538
552
543
544
543
540
522
522
541
552
537
528
520
517
517
515
523
533
544
557
555
573
565
525
507
514
534
534
507
480
478
502
512
495
486
486
489
485
490
493
502
501
503
498
481
489
495
496
497
489
479
475
460
470
468
453
439
426
419
420
441
446
432
466
489
492
464
422
416
435
453
465
448
415
405
423
446
422
406
420
434
443
445
448
432
406
409
412
424
444
446
448
420
417
436
434
439
444
440
425
430
475
487
472
460
459
451
436
444
445
432
431
418
410
409
418
423
435
448
453
454
449
460
484
499
495
473
465
465
446
446
431
435
455
460
467
478
479
471
468
468
464
447
462
469
468
465
474
472
461
483
478
477
468
466
476
464
440
440
458
483
482
463
465
471
467
464
455
462
463
466
452
462
481
491
482
464
446
449
453
467
468
468
470
475
492
506
528
513
465
444
450
432
407
426
484
513
491
476
471
484
469
463
473
464
454
462
479
484
496
523
506
472
453
460
475
477
470
456
458
463
466
477
484
476
480
486
478
476
469
472
464
452
460
479
482
462
468
468
475
484
491
480
481
485
487
485
480
473
475
470
467
490
532
501
476
469
485
491
490
494
499
491
471
466
464
470
488
490
500
519
522
519
502
471
463
492
525
542
551
554
548
537
508
502
526
530
506
500
529
525
524
524
512
523
552
552
545
536
532
543
553
548
558
548
528
512
482
483
494
476
463
459
479
485
479
475
451
433
438
453
471
478
480
468
453
449
445
451
465
460
445
440
435
434
425
437
435
415
411
428
449
457
434
429
445
458
452
450
444
438
440
440
446
458
463
486
498
467
465
463
486
478
444
452
436
418
413
433
437
416
424
441
435
425
429
429
435
447
461
464
448
437
455
496
497
470
447
448
452
496
514
487
463
465
506
556
591
603
590
582
598
605
597
621
632
621
646
660
646
654
658
651
649
650
664
671
655
585
508
464
422
384
338
294
258
239
257
260
258
258
264
266
286
291
291
296
298
321
361
378
384
399
400
405
416
430
442
460
464
432
415
425
430
452
471
495
488
467
465
481
474
489
512
515
506
488
488
482
475
466
478
496
489
485
473
474
476
494
512
508
495
469
476
503
515
513
506
521
537
525
536
549
512
485
465
467
493
508
470
474
493
491
469
467
486
500
513
541
561
553
521
508
521
527
517
513
492
503
519
517
509
512
512
517
525
531
507
486
479
520
533
521
528
525
522
529
531
533
515
503
516
520
516
514
516
517
535
543
536
537
530
529
541
534
535
536
526
517
514
517
523
516
522
536
556
555
528
514
533
554
533
526
549
547
538
535
517
508
527
534
525
529
545
558
573
566
556
571
588
576
552
558
548
535
533
538
550
552
542
542
548
525
500
529
573
575
559
547
541
537
546
548
548
529
527
525
542
545
526
531
544
557
537
516
533
556
577
577
558
550
544
558
573
557
537
517
518
528
545
569
543
523
522
514
501
507
499
506
521
516
503
493
484
484
493
504
497
508
493
504
518
512
510
497
484
502
503
466
445
447
459
469
474
470
450
441
453
463
473
452
439
458
453
450
440
422
406
402
413
450
459
434
432
449
466
463
445
424
426
437
444
441
437
435
439
443
432
428
416
437
464
458
450
437
432
436
475
493
458
428
440
444
452
473
487
465
431
399
398
426
468
467
444
429
441
469
491
480
458
429
421
438
457
474
468
465
470
469
447
437
443
450
448
446
441
446
463
494
478
455
446
437
447
471
450
432
449
477
508
525
493
444
422
437
433
435
448
463
474
483
484
498
502
495
473
482
500
502
490
490
481
471
478
481
476
477
485
507
494
469
457
468
481
507
513
482
457
438
425
435
467
463
462
475
487
484
463
458
467
481
503
516
498
506
502
468
433
432
447
463
465
457
464
469
478
470
471
461
461
471
485
489
459
453
485
496
485
464
452
454
459
468
471
474
489
486
485
471
445
427
449
463
493
507
474
445
471
491
491
467
438
467
499
531
530
490
463
452
454
467
469
462
471
490
533
535
514
467
433
423
427
445
464
469
458
462
468
485
508
508
505
504
493
476
483
495
498
496
531
539
524
519
497
488
495
506
517
510
508
494
496
508
484
470
502
528
553
574
560
534
526
509
478
483
478
486
508
535
564
575
558
521
493
485
515
556
578
576
571
556
531
509
508
502
491
481
468
470
478
495
501
494
498
508
493
471
454
457
468
464
471
468
440
450
459
441
439
454
461
461
452
446
441
455
485
480
439
429
445
459
455
454
444
457
478
493
479
454
437
444
439
454
463
457
447
435
443
410
415
432
424
410
412
420
458
469
462
464
471
474
462
449
444
437
438
452
451
467
468
443
428
421
432
460
463
454
455
464
480
487
496
512
521
526
528
550
571
585
597
610
630
636
620
641
651
674
673
664
648
645
650
666
676
656
638
616
562
518
449
371
339
327
322
301
289
279
267
253
254
241
231
256
278
280
304
338
368
378
378
367
383
416
432
411
412
441
425
421
432
442
466
488
491
485
486
493
479
460
456
460
466
490
487
464
466
474
470
467
462
489
509
502
500
508
509
492
492
507
515
510
500
518
525
525
516
500
475
461
487
507
509
497
507
523
549
559
535
495
485
482
480
471
489
514
535
550
539
502
485
476
496
520
516
517
530
524
516
513
535
544
528
512
517
527
518
497
493
507
518
535
515
541
555
538
527
520
513
493
485
504
521
524
524
529
538
535
531
532
526
525
511
517
543
542
560
553
541
523
512
496
491
504
539
566
564
545
526
511
527
553
563
543
518
521
560
578
572
560
538
517
529
566
573
586
565
536
520
532
524
522
525
539
569
591
597
575
543
541
547
531
523
534
539
537
526
547
558
544
525
519
543
548
537
536
552
562
596
589
563
537
517
508
515
550
575
560
533
527
533
536
532
520
523
518
523
529
539
550
566
566
569
561
535
526
501
494
491
497
525
525
515
510
510
504
499
495
492
502
502
489
492
498
499
497
485
464
471
483
473
485
477
494
531
493
424
415
426
428
445
447
443
442
457
448
428
409
422
463
472
445
437
450
435
424
434
430
439
430
435
436
434
418
414
409
417
441
427
424
428
439
459
436
417
441
461
464
455
455
459
451
431
414
406
413
427
436
449
446
445
475
470
437
443
450
438
430
434
438
471
499
477
460
470
473
458
450
455
461
452
452
448
450
436
448
474
489
493
468
451
440
441
454
473
462
453
461
467
474
469
466
466
463
466
468
461
466
478
485
485
479
473
462
458
470
462
436
433
457
468
462
458
464
475
460
434
465
498
529
521
483
456
449
461
468
472
473
475
469
471
480
487
506
499
474
456
455
479
453
424
444
469
481
480
474
461
463
481
478
456
447
461
485
491
483
475
471
483
487
482
478
486
489
485
479
479
490
494
467
449
441
451
471
471
478
496
499
474
469
484
510
524
513
487
475
480
485
468
460
466
482
487
483
504
517
527
541
551
524
497
477
461
484
515
505
506
524
552
551
502
483
498
525
512
497
508
520
527
513
494
502
510
522
535
550
566
557
564
553
514
494
501
507
508
504
513
512
503
499
506
501
487
465
461
483
511
502
469
473
466
464
475
490
480
467
453
457
456
435
455
445
420
410
418
430
452
450
447
455
459
471
472
475
488
490
477
433
394
407
430
434
438
442
453
459
450
449
465
483
467
433
438
453
459
461
431
426
436
456
484
447
420
420
420
440
455
462
472
444
461
472
445
427
445
459
480
481
468
469
480
478
469
487
488
473
491
511
525
539
562
587
605
589
590
592
618
651
652
649
650
654
658
650
628
641
656
645
646
627
584
539
501
484
440
369
297
315
317
272
260
256
231
229
247
296
316
316
287
266
295
330
361
377
374
377
373
401
430
452
466
473
474
466
462
468
478
498
511
521
521
504
494
507
530
501
486
483
485
494
509
510
497
481
488
504
497
471
467
473
490
510
521
514
499
496
492
511
528
534
535
517
501
506
504
520
534
510
482
486
528
547
526
509
493
487
490
487
496
504
531
567
579
536
486
499
507
505
520
522
503
508
520
537
537
528
531
529
536
520
527
504
496
490
497
504
501
512
516
522
516
526
527
522
517
521
533
531
544
547
514
487
488
519
549
552
541
521
527
527
547
576
552
495
488
519
536
542
547
547
563
551
530
522
543
560
559
543
544
547
534
531
535
553
552
524
527
531
535
545
556
547
537
528
541
559
561
551
537
537
533
535
540
545
548
558
565
578
598
601
573
557
558
549
535
521
519
517
514
519
540
545
537
508
528
574
594
573
547
522
536
534
516
509
528
543
563
602
573
541
521
506
517
537
523
513
502
508
505
517
533
542
507
487
496
485
485
505
533
528
496
499
503
473
477
496
507
492
478
479
484
480
459
460
476
486
471
470
467
488
478
423
399
411
429
443
460
469
468
454
454
451
443
435
407
387
386
410
418
427
448
472
473
457
426
434
439
439
450
460
438
416
410
401
411
412
415
415
405
418
437
445
445
455
451
457
458
456
451
450
442
447
445
438
436
435
441
458
443
434
451
451
436
442
460
460
442
438
439
431
442
482
473
472
477
458
436
445
467
465
454
453
461
496
500
484
482
456
466
477
460
452
460
462
455
459
458
458
439
440
457
487
491
476
450
446
464
482
503
500
471
462
475
479
476
476
471
458
452
458
462
455
484
505
509
490
467
483
522
501
465
452
462
475
476
488
489
480
480
478
471
449
438
455
468
474
492
489
489
511
510
471
445
431
442
438
431
440
466
502
510
512
508
495
475
471
480
496
502
498
497
484
472
481
483
472
459
463
473
499
512
518
519
511
517
522
527
536
544
520
479
475
492
497
508
501
497
509
518
496
479
497
519
505
504
518
531
535
540
539
535
529
538
545
540
542
546
534
504
501
508
516
513
538
538
509
496
480
486
488
460
440
438
450
447
449
460
475
472
463
447
438
437
445
448
461
452
446
455
443
440
432
423
436
444
459
443
458
449
436
435
461
475
476
486
479
453
411
421
453
480
468
466
464
461
450
457
472
465
434
437
457
458
451
442
425
427
438
444
459
479
475
474
473
466
447
431
440
452
455
455
454
467
480
485
486
498
485
477
491
514
525
514
496
500
523
542
538
555
572
596
595
610
627
626
612
613
638
652
659
654
646
612
588
600
578
539
496
472
450
399
358
351
336
316
299
289
286
285
271
271
290
307
323
308
316
333
351
365
375
387
401
411
420
426
445
458
468
483
473
474
471
483
513
542
531
526
508
481
458
477
484
459
464
487
506
504
486
474
498
532
522
499
473
451
477
490
488
483
471
486
521
510
478
495
515
509
517
517
511
477
481
500
500
514
528
501
486
501
515
517
509
529
536
522
501
502
507
509
513
514
509
508
491
493
502
492
473
510
520
515
523
527
538
535
521
546
539
526
528
517
505
496
507
509
530
545
546
556
554
538
522
514
504
505
518
519
504
519
544
551
535
543
546
535
533
540
538
528
512
534
556
549
512
498
542
573
551
531
541
557
563
550
564
566
539
553
568
559
552
554
567
561
549
542
527
532
541
553
567
567
546
549
543
539
546
538
532
521
512
516
530
516
527
555
555
557
563
558
555
535
544
575
581
556
534
525
524
560
566
564
560
556
566
558
536
527
553
554
536
548
547
544
546
511
470
496
522
515
515
510
505
521
526
530
526
516
512
512
520
520
504
482
481
501
506
507
512
496
480
501
525
515
480
464
464
470
463
460
466
468
453
434
429
430
439
445
422
405
448
476
458
447
425
411
427
444
438
424
425
443
466
453
433
409
394
409
430
440
435
433
445
440
419
426
456
493
485
461
424
394
405
437
444
425
412
410
421
440
458
462
481
482
449
438
460
481
463
441
426
411
417
428
436
448
463
462
448
436
437
434
424
426
446
445
453
460
465
448
445
450
446
455
481
489
456
442
452
476
487
483
468
467
469
457
443
433
445
445
446
474
490
508
504
471
435
435
466
486
453
444
454
457
447
452
468
473
478
485
484
477
481
468
449
465
491
496
459
470
506
498
458
442
458
477
478
473
467
465
481
477
484
487
477
484
500
499
482
487
502
506
489
474
450
434
445
475
484
493
503
487
474
479
473
483
500
531
557
558
523
484
458
446
462
475
514
531
534
536
535
520
532
519
501
517
498
488
505
501
470
454
464
467
488
512
510
524
543
524
517
519
513
505
531
542
532
524
507
500
507
494
489
495
498
496
484
481
484
477
462
458
453
449
464
464
446
439
442
462
466
456
438
444
464
498
500
493
476
447
433
430
419
392
376
410
451
465
465
455
437
432
447
472
479
444
441
474
471
432
412
424
443
447
446
425
422
444
456
447
420
426
444
456
471
477
474
463
468
452
446
455
460
449
425
408
415
439
474
505
494
471
447
434
449
445
435
482
505
510
510
533
559
571
574
565
575
593
612
618
614
607
632
659
661
636
630
630
645
659
627
580
564
568
555
490
433
384
345
336
318
303
286
260
247
254
268
277
297
317
327
353
359
353
344
357
384
415
419
400
390
417
437
449
448
445
449
498
534
530
493
458
456
464
460
469
478
479
482
495
499
490
468
457
454
452
453
490
508
472
448
456
476
488
495
493
498
489
486
498
494
489
489
502
512
498
498
502
483
505
491
478
498
507
527
537
538
546
513
463
452
452
467
497
512
520
511
508
519
515
518
528
523
507
493
483
495
507
504
507
523
522
519
513
485
478
503
532
558
523
519
521
533
544
533
514
494
477
488
506
497
500
516
518
519
534
552
553
517
516
528
526
541
561
585
575
544
514
513
519
509
508
512
510
526
553
565
549
532
546
552
551
552
565
574
561
550
535
515
523
546
547
537
522
524
539
559
568
570
549
548
557
553
545
558
560
561
558
559
546
517
515
519
508
506
509
506
518
543
560
571
592
591
591
591
567
526
509
514
546
552
540
512
507
518
542
553
545
539
542
522
511
518
528
524
509
514
536
543
535
531
536
527
511
491
491
498
508
499
496
493
491
488
490
481
476
442
425
441
489
507
479
450
453
448
439
447
464
462
465
460
462
471
457
430
422
421
418
406
406
444
436
424
435
426
414
421
436
438
412
385
393
428
468
484
473
463
461
442
421
406
406
391
399
418
432
442
467
462
448
450
458
477
463
443
445
451
447
446
430
431
425
417
401
391
415
442
472
471
472
471
487
502
495
466
432
427
444
467
472
460
439
422
418
409
408
441
483
499
495
497
495
472
457
467
488
497
490
449
425
415
415
424
421
441
449
444
430
448
497
495
472
462
459
467
481
480
469
476
487
491
481
472
478
483
469
446
441
470
493
482
491
506
508
479
445
441
439
453
508
529
533
499
448
462
475
472
474
476
469
445
473
493
486
490
489
464
435
460
487
505
480
441
421
443
491
496
473
478
499
484
474
482
488
496
498
508
503
483
484
489
501
536
538
515
490
461
448
456
479
506
531
513
512
500
499
494
495
492
502
519
549
564
558
523
518
523
515
522
529
506
468
470
484
497
527
534
538
554
557
534
517
511
507
504
482
489
498
535
522
506
499
483
478
479
480
481
487
486
477
462
466
483
486
487
466
466
442
439
453
448
452
450
444
447
441
431
431
425
423
441
454
449
452
438
439
455
477
470
452
449
439
434
445
463
451
439
452
462
454
453
461
446
432
422
418
446
474
491
470
431
401
402
428
476
503
476
439
436
455
481
484
445
426
430
437
457
461
457
473
471
462
470
487
515
540
553
548
521
510
521
526
538
569
580
590
606
631
645
660
684
679
686
678
669
661
672
677
634
583
549
524
503
441
358
336
324
311
300
279
268
266
274
275
285
284
286
303
340
362
334
320
329
369
422
440
447
443
431
435
436
438
436
435
444
463
465
464
472
477
491
486
477
480
487
473
459
487
511
507
502
489
482
487
486
460
449
449
445
446
459
453
464
483
489
508
524
529
530
521
510
504
501
501
512
513
504
486
481
496
504
489
469
458
473
478
481
493
515
541
523
497
494
498
520
526
512
519
533
535
544
558
532
489
489
532
520
497
487
482
484
513
516
506
511
519
518
518
527
521
527
527
476
460
492
526
526
517
515
529
546
543
538
525
529
520
514
516
523
516
536
540
528
520
506
516
535
537
562
585
580
544
552
555
540
532
533
531
535
539
554
560
559
565
565
528
517
523
539
560
570
554
540
547
579
577
542
534
539
531
539
555
