29,520
29,520
29,528
30,533
30,540
31,545
31,540
31,522
32,517
32,513
32,508
33,519
33,534
33,531
34,521
34,509
34,506
35,502
36,490
36,469
37,464
38,468
38,479
39,483
40,481
40,487
41,489
43,496
43,506
44,500
58,500
59,493
59,477
59,469
60,475
60,484
60,484
61,478
61,473
61,472
62,472
62,472
62,482
63,486
63,482
63,473
64,469
64,461
65,466
66,472
66,466
67,464
68,476
68,485
69,491
70,496
70,489
71,483
72,482
72,476
89,461
89,457
89,460
90,467
90,484
90,495
91,498
91,493
91,484
92,475
92,474
92,470
93,474
93,476
93,486
94,487
94,481
95,479
95,470
96,463
97,460
97,470
98,489
99,505
99,513
100,508
101,506
101,504
102,505
103,502
117,502
117,493
118,493
118,497
118,502
119,521
119,520
119,522
120,524
120,526
121,544
121,544
121,546
122,552
122,578
123,625
124,659
124,682
125,694
126,708
128,717
128,729
129,750
130,761
131,781
131,820
132,861
133,896
134,934
134,969
147,990
147,990
148,989
148,990
149,990
149,989
149,990
150,990
150,966
151,907
151,835
151,751
152,673
152,606
153,545
153,495
154,438
155,400
155,361
156,329
157,301
158,285
158,292
159,297
160,301
161,306
161,311
162,315
163,326
164,344
176,344
177,357
177,370
178,382
178,398
178,413
179,416
179,413
180,424
180,427
180,416
181,402
181,401
182,402
182,415
182,416
183,424
184,430
185,438
185,438
186,431
187,419
188,414
189,424
189,442
190,464
191,486
192,490
192,476
193,470
206,452
206,426
206,411
207,414
207,417
208,419
208,430
208,438
209,457
209,457
210,449
210,444
210,441
211,444
211,457
212,464
214,481
214,476
215,471
216,462
217,459
217,463
218,461
219,466
220,475
220,470
221,473
222,468
223,458
223,450
235,450
235,442
236,426
236,431
237,444
237,455
237,462
238,478
238,490
239,496
239,494
239,488
240,486
240,481
240,481
241,489
242,490
243,493
243,494
244,491
245,485
246,477
246,474
247,467
248,457
249,464
249,484
250,502
251,495
252,490
265,491
266,494
266,496
267,490
267,499
267,504
268,507
268,514
268,518
269,521
269,520
270,524
270,525
270,501
271,491
271,489
272,486
273,492
274,487
274,487
275,485
276,495
277,500
277,504
278,508
279,515
280,518
280,517
281,512
282,514
294,514
294,509
294,510
295,508
295,510
296,519
296,535
296,544
297,551
297,543
297,528
299,515
299,520
300,528
300,529
301,528
302,535
302,532
303,531
304,522
305,520
305,518
306,515
307,519
308,528
308,538
309,542
310,543
311,546
311,539
324,540
324,556
325,568
325,560
325,534
326,523
326,523
327,526
327,548
327,549
328,551
328,549
329,546
329,545
329,543
330,555
331,561
332,560
332,566
333,562
334,559
335,560
335,558
336,550
337,544
338,545
338,547
339,545
340,552
342,553
353,553
354,554
354,550
354,546
355,537
355,539
356,545
356,555
356,563
357,572
357,572
358,569
358,572
358,578
359,567
359,560
360,551
361,541
362,528
362,532
363,525
364,517
365,520
365,523
366,528
367,533
368,535
368,539
369,540
370,547
384,546
384,547
384,538
385,528
385,513
385,498
386,487
386,484
387,488
387,499
387,509
388,528
388,534
389,530
389,521
390,505
390,489
391,479
392,475
393,481
393,472
394,462
395,460
396,464
396,467
397,462
398,457
399,455
399,457
400,469
412,469
412,467
413,462
413,455
413,442
414,431
414,439
415,451
415,456
415,463
416,450
416,419
417,411
417,407
417,408
418,405
419,403
419,411
420,412
421,421
422,427
422,416
423,409
424,407
425,407
425,392
427,386
428,390
429,396
430,410
442,421
443,417
443,413
443,403
444,391
444,376
445,371
445,383
445,384
446,384
446,393
446,398
447,394
447,393
448,397
448,394
449,400
450,402
451,412
451,413
452,417
453,419
454,407
454,394
455,387
456,389
457,402
457,416
458,414
459,417
472,417
472,426
472,423
473,418
473,405
473,392
474,386
474,406
475,424
475,429
475,440
476,441
476,435
477,436
477,434
478,428
478,421
479,421
480,421
481,421
481,424
482,422
483,424
484,425
484,421
485,419
486,426
487,424
487,436
488,440
501,446
501,446
502,440
502,434
502,434
503,430
503,424
503,427
504,435
504,440
505,438
505,438
505,448
506,446
506,440
507,441
508,447
508,447
509,457
510,467
512,484
512,488
513,478
514,464
515,449
515,442
516,437
517,435
518,438
518,442
530,442
531,453
531,465
531,484
532,476
532,451
532,438
533,435
533,442
534,450
534,460
534,464
535,460
535,457
536,458
536,456
537,449
538,445
538,437
539,449
540,468
541,483
541,478
542,467
543,457
544,453
544,447
545,448
546,449
547,460
560,470
561,477
561,474
562,471
562,467
562,461
563,453
563,447
564,455
564,467
564,478
565,489
565,479
566,472
566,468
566,470
567,474
568,462
569,460
569,465
570,471
571,489
572,479
573,469
573,466
574,465
575,457
576,447
576,451
577,460
589,460
589,464
589,468
590,470
590,472
591,462
591,460
591,471
592,470
592,466
593,474
593,482
593,491
594,483
594,479
595,478
596,476
596,473
598,463
599,457
600,460
600,477
601,493
602,482
603,476
603,477
604,486
605,481
606,473
606,467
619,480
619,495
620,502
620,494
621,488
621,483
621,471
622,458
622,448
623,446
623,456
623,461
624,471
624,473
624,465
625,455
626,460
627,469
627,471
628,476
629,482
630,478
630,483
631,478
632,485
633,486
633,478
634,469
635,461
636,462
648,462
649,465
649,462
650,475
650,487
650,487
651,490
651,490
652,490
652,487
652,495
653,487
653,469
653,468
654,468
654,479
655,479
656,470
657,470
657,465
658,464
659,460
660,465
660,472
661,473
662,485
663,488
663,491
664,489
665,480
678,468
678,464
678,472
679,486
679,487
680,496
680,497
680,490
681,476
681,471
681,473
683,468
683,467
684,469
684,463
685,464
686,470
686,469
687,466
688,467
689,471
689,478
690,477
691,476
692,473
692,474
693,473
694,474
695,475
695,482
707,482
707,493
708,487
708,482
709,487
709,480
709,482
710,484
710,488
710,485
711,484
711,486
712,491
712,493
712,500
713,497
714,492
715,482
715,472
716,464
717,455
718,456
718,467
719,479
720,490
721,494
721,498
722,491
723,489
724,488
737,475
738,470
738,478
738,487
739,497
739,484
740,460
740,461
740,465
741,463
741,462
742,472
742,493
742,507
743,515
743,509
744,499
745,489
746,482
746,479
747,468
748,476
749,485
749,492
750,489
751,484
752,482
752,482
753,481
754,476
766,476
766,476
766,475
768,478
768,480
768,489
769,493
769,496
770,488
770,475
770,466
771,475
771,477
772,474
772,475
773,491
774,489
774,476
775,467
776,474
776,473
777,476
778,482
779,492
779,500
780,501
781,501
782,497
782,487
783,476
796,466
796,465
797,478
797,480
797,478
798,490
798,497
799,500
799,496
799,489
800,474
800,465
801,471
801,482
801,487
802,487
803,478
803,479
804,479
805,488
806,492
806,492
807,504
808,513
809,502
809,493
811,496
812,509
813,509
814,501
825,501
826,485
826,474
826,474
827,474
827,481
828,493
828,495
828,492
829,480
829,473
830,469
830,459
830,467
831,468
831,471
832,475
833,476
834,480
834,477
835,479
836,482
837,476
837,475
838,490
839,494
840,500
840,511
841,519
842,513
856,501
856,491
856,480
857,482
857,486
857,492
858,489
858,480
859,483
859,485
859,478
860,469
860,467
861,474
861,475
862,479
862,486
863,487
864,478
865,478
865,482
866,477
867,471
868,479
868,498
869,519
870,511
871,494
871,493
872,483
884,483
884,479
885,475
885,477
885,491
886,495
886,494
887,497
887,497
887,487
888,475
888,474
888,475
889,475
889,474
890,482
891,492
891,496
892,496
893,499
894,493
894,481
896,479
897,478
898,479
898,479
899,481
900,495
901,499
902,502
914,508
915,505
915,497
915,499
916,499
916,489
916,485
917,482
917,481
918,475
918,485
918,497
919,497
919,487
920,483
920,488
921,491
922,494
922,498
923,501
924,498
925,493
925,482
926,475
927,475
928,477
928,487
929,485
930,485
931,485
944,485
944,481
944,473
945,467
945,474
945,488
946,496
946,504
947,501
947,495
947,489
948,484
948,486
949,492
949,490
950,496
950,501
951,503
952,506
953,506
953,510
954,509
955,501
956,495
956,494
957,490
958,488
959,487
959,479
960,482
973,495
973,495
973,488
974,478
974,468
975,470
975,474
975,487
976,495
976,507
977,514
977,519
977,527
978,518
978,514
979,512
980,511
980,513
982,509
983,501
984,508
984,511
985,507
986,502
987,499
987,509
988,521
989,542
990,548
990,542
1002,542
1002,516
1003,501
1003,504
1004,505
1004,505
1005,509
1005,515
1006,527
1006,530
1006,534
1007,536
1007,544
1008,537
1009,527
1009,510
1010,518
1011,520
1012,522
1013,524
1014,522
1014,515
1015,509
1016,510
1017,501
1018,499
1019,500
1019,493
1020,489
1021,486
1032,483
1033,477
1033,470
1034,467
1034,461
1035,459
1035,463
1036,467
1036,467
1036,459
1037,459
1037,448
1038,450
1038,458
1039,456
1040,452
1041,457
1041,451
1042,460
1043,467
1044,477
1045,478
1046,474
1046,461
1047,450
1048,446
1049,465
1050,479
1051,486
1051,475
1061,475
1061,467
1061,464
1062,466
1062,463
1063,448
1063,447
1064,456
1064,457
1065,471
1065,475
1065,468
1067,454
1067,449
1068,443
1069,435
1070,440
1071,466
1072,486
1072,492
1073,479
1074,479
1075,478
1076,468
1077,452
1077,444
1078,446
1079,460
1080,465
1081,468
1091,459
1091,454
1092,446
1092,446
1093,453
1093,460
1094,477
1094,486
1095,487
1095,497
1095,481
1096,482
1096,484
1097,489
1097,493
1098,490
1099,491
1100,499
1101,509
1102,534
1102,561
1103,580
1104,595
1105,619
1106,639
1107,664
1108,679
1108,704
1110,752
1111,799
1120,799
1121,805
1121,808
1122,819
1122,840
1123,866
1123,901
1123,931
1124,960
1124,986
1125,989
1125,989
1126,989
1126,989
1127,989
1128,990
1128,990
1129,989
1130,981
1131,917
1132,859
1133,776
1134,663
1134,553
1135,481
1136,419
1137,360
1138,305
1139,260
1139,234
1150,233
1150,230
1150,236
1152,261
1152,298
1153,313
1153,313
1154,301
1154,269
1155,251
1155,294
1155,321
1156,330
1156,324
1157,334
1158,352
1159,349
1160,345
1160,334
1161,323
1162,315
1163,312
1164,319
1165,325
1165,338
1166,351
1167,364
1168,360
1169,360
1170,387
1179,387
1179,421
1180,426
1180,457
1181,482
1181,487
1182,480
1182,470
1182,467
1183,452
1183,438
1184,456
1184,440
1185,412
1185,392
1186,401
1187,421
1188,432
1189,449
1190,443
1190,427
1191,404
1192,382
1193,361
1195,329
1196,333
1197,376
1197,427
1198,488
1199,514
1209,535
1210,574
1210,591
1211,592
1211,576
1211,554
1212,547
1212,530
1213,514
1213,508
1214,514
1214,542
1215,556
1215,568
1216,552
1217,514
1217,493
1218,468
1219,443
1220,440
1221,439
1222,454
1222,443
1223,436
1224,462
1225,521
1226,558
1227,555
1227,571
1228,576
1239,576
1239,570
1239,554
1240,547
1240,519
1241,491
1241,465
1242,442
1242,418
1243,403
1243,393
1243,399
1244,420
1244,445
1245,472
1246,496
1247,508
1248,509
1248,538
1249,552
1250,546
1251,543
1252,521
1253,475
1253,471
1254,453
1255,453
1256,470
1257,473
1258,495
1268,495
1268,508
1269,526
1269,561
1270,597
1270,622
1270,627
1271,618
1271,608
1272,607
1272,602
1273,629
1273,656
1274,650
1274,634
1275,578
1276,528
1277,522
1278,532
1280,532
1280,525
1281,518
1282,521
1283,526
1284,526
1285,505
1286,482
1286,477
1287,489
1288,515
1297,515
1298,573
1298,638
1298,628
1299,593
1299,558
1300,534
1300,504
1301,473
1301,478
1302,500
1302,476
1302,446
1303,458
1304,474
1304,454
1305,482
1306,552
1307,567
1308,537
1309,539
1309,546
1310,574
1311,578
1312,620
1313,680
1314,699
1315,660
1315,594
1316,554
1328,543
1328,542
1328,562
1329,607
1329,639
1330,616
1330,602
1331,587
1331,560
1331,536
1332,545
1332,558
1333,585
1333,583
1334,577
1335,574
1336,573
1336,572
1337,583
1338,588
1339,593
1340,572
1341,563
1
0774,423
30775,429
30776,472
30777,516
30778,562
30779,587
30780,630772,477
30772,476
30773,469
30773,438
30774,424
30774,423
30775,429
30776,472
30777,516
30778,562
30779,587
30780,603
30781,601
30782,564
30783,517
30784,498
30784,494
30785,507
30786,520
30787,531
30788,522
30789,515
30790,505
30797,505
30797,493
30798,504
30798,522
30799,546
30799,579
30800,590
30800,591
30801,587
30801,541
30802,509
30802,475
30803,452
30804,440
30804,438
30806,452
30807,476
30808,487
30809,483
30810,477
30811,498
30812,525
30813,560
30814,580
30815,590
30816,621
30816,621
30817,618
30818,630
30819,611
30827,582
30828,536
30828,514
30829,523
30829,555
30830,616
30830,623
30831,618
30831,632
30832,649
30832,675
30833,715
30833,762
30834,793
30835,818
30836,864
30837,890
30838,919
30838,943
30839,964
30840,990
30841,990
30842,989
30843,989
30844,989
30845,989
30846,989
30848,990
30849,990
30850,971
30856,971
30857,974
30857,970
30858,920
30858,846
30859,794
30859,753
30860,642
30860,527
30861,444
30861,368
30862,315
30862,272
30863,253
30864,283
30865,328
30866,360
30867,359
30868,380
30869,401
30870,384
30871,354
30871,326
30872,316
30873,305
30874,308
30875,326
30876,312
30877,310
30878,299
30886,291
30886,290
30887,292
30887,318
30888,358
30888,404
30889,466
30889,477
30891,481
30891,480
30892,453
30892,412
30893,361
30894,333
30894,339
30895,353
30896,365
30897,364
30898,407
30899,458
30900,505
30901,523
30902,513
30903,525
30904,522
30904,519
30905,531
30906,522
30907,514
30908,508
30915,508
30915,507
30916,524
30916,521
30917,520
30917,527
30918,514
30918,530
30919,527
30919,504
30920,477
30920,488
30921,507
30922,500
30923,492
30924,488
30925,488
30925,495
30926,494
30927,525
30928,527
30929,479
30930,416
30931,362
30932,347
30934,356
30935,349
30936,384
30937,400
30938,396
30945,384
30946,387
30946,382
30947,386
30947,392
30948,401
30948,409
30949,439
30949,446
30950,444
30950,440
30951,428
30951,414
30952,398
30953,409
30954,410
30955,403
30956,431
30957,435
30958,436
30959,437
30959,455
30960,469
30961,454
30962,453
30963,481
30964,527
30965,575
30966,584
30967,565
30974,565
30974,543
30974,532
30976,519
30977,525
30977,535
30978,545
30978,552
30979,561
30979,534
30980,524
30980,521
30981,525
30982,509
30982,497
30983,507
30984,530
30985,542
30986,568
30987,567
30988,577
30989,583
30990,585
30991,586
30992,582
30992,578
30993,579
30994,569
30995,556
30996,529
31004,524
31004,512
31005,504
31005,516
31006,514
31006,530
31007,542
31007,542
31008,551
31008,538
31009,511
31009,488
31010,480
31011,472
31012,455
31013,457
31013,470
31014,500
31015,540
31016,568
31017,596
31019,595
31020,569
31021,541
31022,541
31023,563
31024,568
31025,558
31025,571
31026,588
31033,588
31034,593
31034,574
31035,544
31035,518
31036,534
31036,573
31037,597
31037,614
31038,622
31038,608
31039,583
31039,559
31040,529
31041,476
31042,438
31043,419
31044,415
31045,434
31046,473
31046,504
31047,526
31048,528
31049,529
31050,515
31051,509
31052,523
31053,537
31054,557
31055,587
31064,602
31064,601
31064,598
31065,588
31066,577
31066,584
31067,577
31067,585
31068,608
31068,639
31069,650
31069,632
31070,606
31070,577
31071,543
31072,494
31073,473
31074,473
31075,505
31076,522
31077,525
31078,541
31079,551
31080,532
31080,507
31081,489
31082,483
31083,479
31084,495
31085,522
31092,522
31092,529
31093,510
31093,486
31094,465
31094,448
31095,444
31095,460
31096,508
31096,543
31097,559
31097,559
31098,553
31099,537
31100,507
31100,468
31101,445
31102,443
31104,453
31105,475
31106,480
31107,472
31108,477
31109,468
31110,455
31111,429
31112,413
31113,423
31113,426
31114,446
31122,466
31123,469
31123,482
31124,534
31124,574
31125,589
31125,600
31126,601
31126,564
31127,511
31127,457
31128,412
31128,368
31129,341
31130,332
31131,322
31132,322
31133,351
31134,386
31134,409
31135,392
31136,371
31137,362
31138,367
31139,368
31140,368
31141,363
31142,351
31143,346
31144,380
31152,380
31152,392
31152,401
31153,428
31153,446
31154,457
31154,443
31155,413
31155,388
31156,391
31156,412
31157,399
31158,395
31158,394
31159,401
31160,407
31161,408
31162,402
31163,392
31164,382
31165,397
31166,410
31167,428
31167,447
31168,459
31169,463
31170,456
31171,425
31172,392
31173,373
31181,396
31181,409
31182,420
31182,432
31183,426
31183,393
31184,362
31184,364
31185,373
31185,391
31186,428
31186,433
31187,405
31188,386
31188,383
31190,382
31191,377
31192,379
31193,396
31194,401
31195,414
31196,410
31197,406
31198,413
31199,399
31200,392
31201,411
31201,434
31202,429
31203,421
31210,421
31211,433
31211,417
31212,408
31212,421
31213,438
31213,438
31214,437
31214,441
31215,457
31215,463
31216,480
31216,458
31217,457
31218,442
31219,409
31220,398
31221,387
31221,395
31222,414
31223,429
31224,460
31225,454
31226,463
31227,478
31228,478
31229,461
31230,433
31232,410
31233,411
31240,428
31241,459
31241,460
31242,447
31242,433
31243,428
31243,419
31244,419
31244,425
31245,436
31245,445
31246,460
31246,446
31247,435
31248,423
31249,409
31250,404
31251,419
31252,435
31253,465
31254,484
31255,493
31255,484
31256,469
31257,438
31258,426
31259,433
31260,439
31261,443
31262,455
31269,455
31269,456
31270,471
31270,472
31271,460
31271,440
31272,436
31272,431
31273,424
31273,434
31275,441
31275,451
31276,468
31277,460
31277,449
31278,447
31279,449
31280,431
31281,413
31282,418
31283,434
31284,444
31285,462
31286,461
31287,451
31288,427
31288,414
31289,425
31290,442
31291,449
31299,457
31299,469
31300,506
31300,522
31301,526
31301,523
31302,510
31302,484
31303,469
31303,457
31304,447
31304,446
31305,473
31306,484
31307,508
31308,508
31309,505
31309,492
31310,470
31311,464
31312,466
31313,473
31314,483
31315,489
31316,483
31318,457
31319,444
31320,423
31321,401
31322,419
31328,419
31329,427
31329,433
31330,464
31330,477
31331,468
31331,447
31332,435
31332,438
31333,449
31333,458
31334,469
31334,488
31335,497
31336,486
31337,491
31338,495
31339,502
31340,481
31341,464
31342,456
31342,457
31343,469
31344,488
31345,499
31346,487
31347,450
31348,425
31349,423
31350,431
31358,448
31358,463
31360,485
31360,500
31361,483
31361,474
31362,466
31362,455
31363,447
31363,439
31364,430
31364,454
31365,477
31366,491
31366,494
31367,463
31368,444
31369,430
31370,402
31371,388
31372,410
31373,441
31374,523
31375,582
31376,573
31376,534
31377,509
31378,471
31379,417
31380,406
31387,406
31387,429
31388,458
31388,489
31389,500
31389,489
31390,480
31390,474
31391,485
31391,483
31392,474
31392,494
31393,510
31394,537
31395,558
31396,551
31396,530
31397,510
31398,484
31399,453
31400,447
31401,462
31403,465
31404,484
31405,492
31406,488
31407,473
31408,454
31409,441
31409,435
31417,431
31418,455
31418,483
31419,500
31419,493
31420,494
31420,499
31421,500
31421,484
31422,463
31422,445
31423,445
31423,450
31424,490
31425,492
31426,473
31427,476
31428,488
31429,487
31430,482
31430,483
31431,492
31432,499
31433,509
31434,491
31435,487
31436,494
31437,484
31438,474
31439,453
31447,453
31447,445
31447,455
31448,461
31449,489
31449,489
31450,479
31450,483
31451,486
31451,491
31452,479
31452,475
31453,484
31453,497
31454,538
31455,533
31456,532
31457,515
31458,497
31459,497
31460,478
31461,478
31462,499
31463,505
31463,518
31464,506
31465,495
31466,476
31467,467
31468,453
31476,443
31476,447
31477,476
31477,494
31478,531
31478,521
31479,502
31479,493
31480,491
31480,491
31481,479
31481,482
31482,490
31483,489
31484,522
31484,529
31485,526
31486,514
31488,495
31489,466
31490,438
31491,435
31492,457
31493,475
31494,501
31495,511
31496,525
31497,533
31497,533
31498,508
31505,508
31506,480
31506,462
31507,456
31507,456
31508,476
31508,482
31509,486
31509,477
31510,465
31510,468
31511,455
31511,447
31512,457
31513,469
31514,507
31515,489
31516,462
31517,464
31517,475
31518,475
31519,473
31520,476
31521,479
31522,494
31523,517
31524,495
31525,475
31526,464
31527,442
31536,438
31536,443
31536,461
31537,502
31537,530
31538,554
31538,547
31539,544
31539,525
31540,519
31541,505
31541,492
31542,492
31542,485
31543,479
31544,484
31545,472
31546,475
31547,478
31548,479
31549,464
31550,458
31551,473
31551,473
31552,488
31553,515
31554,506
31555,508
31556,503
31557,497
31564,497
31564,485
31565,481
31565,498
31566,512
31566,514
31567,519
31567,498
31568,483
31568,470
31569,472
31569,461
31570,458
31571,470
31571,485
31572,500
31574,519
31575,518
31576,526
31577,521
31578,507
31579,509
31580,501
31581,496
31582,491
31583,497
31584,521
31584,515
31585,507
31586,500
31594,494
31595,484
31595,465
31596,459
31596,471
31597,502
31597,529
31598,519
31598,509
31599,497
31599,503
31600,481
31600,444
31601,441
31602,467
31603,480
31604,502
31605,508
31605,527
31606,512
31607,503
31608,470
31609,460
31610,500
31611,560
31612,597
31613,595
31614,589
31616,568
31617,548
31623,548
31624,535
31624,504
31625,478
31625,471
31626,495
31626,540
31627,584
31627,580
31628,550
31628,530
31629,529
31629,521
31630,502
31631,496
31632,504
31633,514
31634,521
31635,531
31636,545
31637,564
31638,566
31638,537
31639,535
31640,562
31641,573
31642,577
31643,592
31644,586
31645,561
31653,533
31653,504
31654,481
31654,479
31655,508
31655,508
31656,506
31656,505
31657,503
31657,489
31659,473
31659,471
31660,444
31661,440
31661,469
31662,504
31663,533
31664,555
31665,560
31666,531
31667,487
31668,478
31669,460
31670,438
31671,441
31672,449
31672,458
31673,460
31674,460
31675,472
31682,472
31682,473
31683,462
31683,443
31684,436
31684,451
31685,468
31685,489
31686,493
31686,483
31687,481
31687,474
31688,459
31689,448
31690,447
31691,456
31692,483
31692,508
31693,504
31694,501
31695,511
31696,509
31697,527
31698,511
31699,498
31700,494
31702,482
31703,486
31704,504
31705,516
31712,501
31713,501
31713,513
31714,531
31714,532
31715,533
31715,526
31716,534
31716,530
31717,518
31717,500
31718,489
31718,469
31719,447
31720,431
31721,440
31722,457
31723,483
31724,488
31725,478
31726,459
31726,437
31727,437
31728,449
31729,460
31730,475
31731,503
31732,543
31733,541
31734,528
31741,528
31741,528
31742,532
31742,552
31744,549
31744,553
31745,587
31745,625
31746,687
31746,711
31747,723
31747,741
31748,758
31749,784
31749,814
31750,834
31751,876
31752,898
31753,926
31754,953
31755,974
31756,985
31757,990
31758,990
31759,990
31759,990
31760,989
31761,989
31762,989
31763,989
31771,989
31771,990
31772,942
31772,852
31773,760
31773,685
31774,654
31774,600
31775,533
31775,464
31776,395
31776,351
31777,332
31778,308
31779,298
31780,303
31780,292
31781,269
31782,292
31783,304
31784,297
31785,289
31787,304
31788,318
31789,332
31790,341
31791,354
31792,375
31793,409
31793,420
31800,420
31801,413
31801,413
31802,416
31802,412
31803,396
31803,393
31804,398
31804,417
31805,455
31805,485
31806,473
31806,453
31807,440
31808,436
31809,423
31810,430
31811,437
31812,424
31813,423
31813,433
31814,441
31815,455
31816,457
31817,453
31818,452
31819,450
31820,460
31821,480
31822,497
31831,485
31831,483
31831,483
31832,481
31833,473
31833,453
31834,446
31834,444
31835,449
31835,479
31836,476
31836,467
31837,470
31837,480
31838,481
31839,481
31840,452
31841,408
31842,380
31843,398
31844,434
31845,472
31846,489
31847,492
31847,485
31848,490
31849,494
31850,491
31851,488
31852,490
31859,490
31859,491
31860,497
31860,501
31861,500
31861,502
31862,500
31862,492
31863,474
31863,467
31864,489
31864,483
31865,478
31866,488
31867,485
31867,476
31868,457
31869,463
31870,474
31872,493
31873,514
31874,516
31875,519
31876,501
31877,489
31878,478
31879,462
31880,472
31880,476
31881,471
31889,498
31890,508
31890,506
31891,499
31891,499
31892,494
31892,481
31893,479
31893,493
31894,521
31894,543
31895,525
31895,510
31896,513
31897,515
31898,476
31899,448
31900,470
31901,498
31901,499
31902,511
31903,520
31904,519
31905,532
31906,538
31907,521
31908,506
31909,514
31910,529
31911,551
31919,551
31919,580
31919,561
31920,543
31921,528
31921,515
31922,486
31922,477
31923,496
31923,508
31924,495
31924,517
31925,534
31925,549
31926,542
31927,529
31928,525
31929,546
31930,567
31931,567
31932,565
31933,577
31934,573
31935,582
31935,590
31936,583
31937,553
31938,550
31939,554
31940,549
31948,568
31948,579
31949,577
31949,576
31950,562
31950,557
31951,544
31951,537
31952,550
31952,566
31953,564
31953,593
31954,612
31955,617
31956,609
31956,588
31958,555
31959,542
31960,557
31961,573
31962,575
31963,581
31964,573
31965,560
31966,557
31967,566
31968,559
31968,554
31969,570
31970,590
31977,590
31978,599
31978,597
31979,602
31979,604
31980,607
31980,612
31981,607
31981,609
31982,611
31982,588
31983,574
31983,581
31984,593
31985,584
31986,560
31987,531
31988,523
31988,524
31989,533
31990,542
31991,567
31992,577
31993,552
31994,549
31995,538
31996,511
31997,497
31998,498
32000,514
32007,534
32008,547
32008,548
32009,548
32009,530
32010,532
32010,528
32011,522
32011,520
32012,536
32012,551
32013,558
32013,562
32014,551
32015,535
32016,529
32017,532
32018,526
32019,509
32020,498
32021,504
32022,512
32022,496
32023,483
32024,478
32025,460
32026,459
32027,469
32028,457
32029,442
32036,442
32036,453
32037,461
32037,464
32038,452
32038,452
32039,439
32039,437
32040,440
32040,440
32041,445
32041,455
32043,461
32044,455
32044,451
32045,438
32046,413
32047,399
32048,396
32049,390
32050,396
32051,397
32052,410
32053,410
32054,400
32055,380
32055,370
32056,365
32057,368
32058,370
32066,385
32066,409
32067,414
32067,396
32068,392
32068,390
32069,402
32069,404
32070,402
32070,398
32071,402
32071,403
32072,414
32073,416
32074,432
32075,439
32076,420
32076,407
32077,400
32078,400
32079,395
32080,406
32081,408
32082,398
32083,404
32084,398
32086,410
32087,424
32088,418
32089,411
32095,411
32096,408
32096,409
32097,421
32097,420
32098,418
32098,408
32099,406
32099,410
32100,422
32100,422
32101,416
32101,409
32102,423
32103,436
32104,442
32105,430
32106,420
32107,413
32108,411
32109,416
32110,429
32110,427
32111,440
32112,439
32113,443
32114,432
32115,422
32116,416
32117,403
32125,401
32125,410
32126,422
32126,437
32128,456
32128,458
32129,453
32129,455
32130,456
32130,443
32131,452
32131,463
32132,450
32133,454
32133,445
32134,444
32135,447
32136,448
32137,428
32138,428
32139,443
32140,443
32141,428
32142,438
32143,460
32143,451
32144,437
32145,465
32146,464
32147,445
32154,445
32154,467
32155,483
32155,472
32156,460
32156,447
32157,441
32157,457
32158,476
32158,470
32159,461
32159,449
32160,459
32161,468
32162,491
32163,492
32163,496
32164,483
32165,469
32166,455
32167,451
32168,458
32169,474
32171,461
32172,471
32173,478
32174,488
32175,491
32176,485
32177,462
32184,437
32185,428
32185,449
32186,477
32186,472
32187,452
32187,442
32188,448
32188,454
32189,443
32189,416
32190,398
32190,421
32191,444
32192,463
32193,460
32194,473
32195,476
32196,470
32197,457
32197,455
32198,448
32199,452
32200,463
32201,475
32202,468
32203,449
32204,442
32205,446
32206,445
32214,445
32214,441
32214,460
32215,481
32216,493
32216,501
32217,498
32217,499
32218,502
32218,496
32219,491
32219,484
32220,484
32220,494
32221,492
32222,472
32223,469
32224,457
32225,446
32226,446
32227,446
32228,449
32229,447
32230,460
32231,486
32231,482
32232,464
32233,464
32234,464
32235,453
32243,448
32243,447
32244,460
32244,478
32245,502
32245,493
32246,471
32246,454
32247,448
32247,461
32248,458
32248,439
32249,438
32250,471
32251,497
32251,496
32252,478
32253,475
32254,478
32256,475
32257,468
32258,472
32259,493
32260,520
32261,525
32262,527
32263,519
32264,524
32264,513
32265,499
32272,499
32273,477
32273,464
32274,471
32274,473
32275,472
32275,475
32276,469
32276,473
32277,467
32277,474
32278,472
32278,468
32279,470
32280,472
32281,483
32282,478
32283,476
32284,473
32284,470
32285,469
32286,448
32287,439
32288,456
32289,476
32290,494
32291,500
32292,495
32293,489
32294,490
32303,492
32303,481
32303,474
32304,470
32305,482
32305,485
32306,467
32306,457
32307,465
32307,484
32308,487
32308,488
32309,506
32309,521
32310,515
32311,512
32312,509
32313,497
32314,496
32315,487
32316,481
32317,480
32318,479
32319,472
32319,478
32320,493
32321,503
32322,512
32323,493
32324,460
32331,460
32331,436
32332,432
32332,451
32333,475
32333,494
32334,508
32334,496
32335,479
32335,469
32336,457
32336,457
32337,461
32338,458
32338,465
32339,453
32340,453
32342,447
32343,445
32344,451
32345,466
32346,463
32347,454
32348,452
32349,462
32350,476
32351,482
32351,485
32352,497
32353,494
32361,482
32362,473
32362,451
32363,444
32363,466
32364,486
32364,499
32365,479
32365,484
32366,483
32366,476
32367,461
32367,462
32368,465
32369,463
32370,462
32371,487
32372,504
32372,512
32373,498
32374,484
32375,471
32376,467
32377,477
32378,484
32379,498
32380,510
32381,507
32382,496
32384,489
32390,489
32391,486
32391,480
32392,468
32392,473
32393,479
32393,486
32394,503
32394,520
32395,535
32395,517
32396,483
32396,470
32397,458
32398,443
32399,456
32400,494
32401,523
32402,523
32403,517
32404,507
32405,496
32406,504
32406,504
32407,497
32408,488
32409,489
32410,506
32411,491
32412,482
32420,486
32420,496
32421,491
32421,484
32422,487
32422,479
32423,465
32423,486
32424,501
32424,513
32425,514
32425,527
32427,517
32428,493
32428,475
32429,475
32430,482
32431,495
32432,485
32433,487
32434,495
32435,494
32436,488
32437,491
32438,507
32439,509
32439,512
32440,527
32441,524
32442,520
32449,520
32449,532
32450,531
32450,519
32451,510
32451,521
32452,529
32453,536
32453,553
32454,557
32454,555
32455,548
32455,525
32456,476
32457,455
32458,457
32459,474
32459,489
32460,498
32461,502
32462,519
32463,513
32464,492
32465,478
32466,472
32467,479
32468,482
32470,479
32471,491
32472,493
32479,483
32480,474
32480,477
32481,481
32481,470
32482,462
32482,457
32483,464
32483,474
32484,467
32484,467
32485,471
32485,471
32486,472
32487,453
32488,452
32489,460
32490,462
32491,477
32492,461
32493,444
32494,435
32494,437
32495,436
32496,430
32497,446
32498,478
32499,505
32500,518
32501,493
32508,493
32508,476
32509,468
32509,456
32510,453
32510,441
32512,444
32512,450
32513,441
32513,451
32514,454
32514,464
32515,453
32516,444
32516,442
32517,449
32518,461
32519,473
32520,482
32521,485
32522,480
32523,476
32524,464
32525,454
32526,446
32526,437
32527,433
32528,444
32529,462
32530,491
32538,507
32538,522
32539,528
32539,528
32540,507
32540,502
32541,507
32541,504
32542,492
32542,492
32543,496
32543,498
32544,492
32545,479
32546,463
32547,465
32547,483
32548,513
32549,544
32550,562
32551,567
32552,593
32553,611
32555,623
32556,633
32557,636
32558,631
32559,636
32560,672
32561,714
32567,714
32568,752
32568,771
32569,784
32569,806
32570,835
32570,854
32571,877
32571,909
32572,948
32572,980
32573,986
32573,990
32574,989
32575,990
32576,990
32577,965
32578,958
32579,924
32580,862
32581,794
32581,712
32582,631
32583,565
32584,493
32585,425
32586,350
32587,298
32588,281
32589,272
32598,265
32598,273
32598,280
32599,288
32600,289
32600,278
32601,261
32601,264
32602,278
32602,300
32603,317
32603,332
32604,343
32604,351
32605,354
32606,354
32607,357
32608,373
32609,386
32610,411
32611,417
32612,421
32613,428
32614,426
32615,425
32615,412
32616,411
32617,409
32618,424
32619,454
32626,454
32626,472
32627,474
32627,455
32628,427
32628,414
32629,408
32629,410
32630,413
32630,436
32631,454
32631,464
32632,487
32633,483
32634,461
32635,441
32635,425
32636,411
32637,405
32638,423
32640,440
32641,438
32642,432
32643,435
32644,448
32645,454
32646,437
32647,413
32647,413
32648,438
32656,471
32657,486
32657,480
32658,477
32658,471
32659,461
32659,445
32660,444
32660,444
32661,432
32661,445
32662,459
32662,462
32663,472
32664,481
32665,479
32666,472
32667,485
32668,501
32668,510
32669,526
32670,522
32671,513
32672,505
32673,503
32674,501
32675,479
32676,477
32677,487
32678,487
32686,487
32686,492
32686,475
32687,458
32688,454
32688,456
32689,457
32689,454
32690,462
32690,467
32691,468
32691,481
32692,479
32692,481
32693,483
32694,504
32695,515
32696,501
32697,493
32698,493
32699,498
32700,512
32701,506
32702,507
32702,512
32703,518
32704,508
32705,500
32706,496
32707,499
32715,496
32715,513
32716,502
32716,506
32717,512
32717,524
32718,518
32718,500
32719,519
32719,537
32720,534
32720,540
32721,532
32722,544
32722,543
32723,523
32724,514
32726,515
32727,513
32728,516
32729,524
32730,548
32731,541
32732,536
32733,530
32734,521
32735,520
32735,509
32736,512
32737,516
32744,516
32745,515
32745,526
32746,515
32746,509
32747,507
32747,510
32748,521
32748,534
32749,542
32749,549
32750,555
32750,574
32751,568
32752,559
32753,555
32754,551
32755,544
32756,548
32756,562
32757,578
32758,582
32759,590
32760,591
32761,585
32762,578
32763,575
32764,564
32765,550
32766,550
32774,558
32775,559
32775,578
32776,579
32776,580
32777,572
32777,564
32778,551
32778,552
32779,559
32779,550
32780,550
32780,570
32781,577
32782,571
32783,577
32784,598
32785,620
32786,633
32787,620
32788,602
32789,593
32790,585
32790,574
32791,567
32792,567
32793,574
32794,569
32795,553
32796,549
32803,549
32803,545
32804,560
32804,576
32805,566
32805,552
32806,550
32806,560
32807,566
32807,565
32808,547
32808,529
32809,526
32811,536
32811,554
32812,564
32813,546
32814,523
32815,516
32816,524
32817,527
32818,525
32819,523
32820,550
32821,556
32822,556
32822,540
32823,527
32824,519
32825,512
32833,509
32833,505
32834,504
32834,508
32835,500
32835,492
32836,483
32837,483
32837,473
32838,456
32838,452
32839,462
32839,468
32840,465
32841,452
32842,440
32843,422
32843,409
32844,384
32845,367
32846,383
32847,387
32848,390
32849,404
32850,418
32851,419
32852,418
32854,412
32855,398
32856,387
32862,387
32863,385
32863,385
32864,383
32864,395
32865,403
32865,398
32866,384
32866,368
32867,345
32867,334
32868,335
32868,352
32869,364
32870,368
32871,365
32872,363
32873,349
32874,330
32875,315
32876,340
32877,351
32877,336
32878,348
32879,371
32880,385
32881,379
32882,380
32883,375
32884,359
32892,367
32892,379
32893,393
32893,413
32894,418
32894,405
32896,396
32896,373
32897,354
32897,354
32898,361
32898,362
32899,374
32900,380
32900,391
32901,386
32902,400
32903,397
32904,384
32905,366
32906,359
32907,372
32908,374
32909,385
32910,409
32910,425
32911,426
32912,423
32913,423
32914,410
32921,410
32921,392
32922,393
32922,405
32923,411
32923,413
32924,412
32924,408
32925,404
32925,419
32926,426
32926,424
32927,414
32928,410
32929,418
32930,432
32931,437
32931,433
32932,424
32933,409
32934,394
32935,376
32936,392
32937,415
32939,433
32940,436
32941,433
32942,423
32943,420
32944,433
32951,442
32952,430
32952,416
32953,434
32953,465
32954,468
32954,464
32955,460
32955,443
32956,423
32956,408
32957,400
32957,415
32958,430
32959,452
32960,458
32961,450
32962,434
32963,434
32964,439
32965,432
32965,441
32966,448
32967,454
32968,461
32969,453
32970,456
32971,463
32972,475
32973,463
32980,463
32980,428
32980,410
32982,415
32983,404
32983,408
32984,416
32984,423
32985,433
32985,439
32986,430
32986,430
32987,446
32987,453
32988,458
32989,464
32990,463
32991,457
32992,452
32993,452
32994,456
32995,448
32996,442
32997,445
32998,442
32998,449
32999,445
33000,450
33001,463
33002,462
33010,440
33010,435
33011,438
33011,454
33012,472
33012,479
33013,467
33013,467
33014,468
33014,462
33015,455
33015,454
33016,467
33017,475
33018,482
33019,481
33019,465
33020,462
33021,455
33022,436
33024,433
33025,438
33026,432
33027,438
33028,451
33029,473
33030,466
33031,454
33031,444
33032,442
33039,442
33040,441
33040,450
33041,470
33041,476
33042,469
33042,465
33043,457
33043,451
33044,459
33044,482
33045,486
33045,476
33046,460
33047,462
33048,456
33049,458
33050,467
33051,474
33052,473
33052,472
33053,472
33054,468
33055,466
33056,473
33057,474
33058,477
33059,476
33060,477
33061,472
33070,471
33070,466
33070,460
33071,455
33072,452
33072,456
33073,463
33073,460
33074,455
33074,445
33075,443
33075,437
33076,430
33076,435
33077,450
33078,467
33079,483
33080,491
33081,485
33082,464
33083,456
33084,450
33085,448
33086,450
33086,455
33087,474
33088,482
33089,468
33090,457
33091,460
33098,460
33098,468
33099,465
33099,452
33100,442
33100,454
33101,478
33101,497
33102,493
33102,491
33103,483
33103,480
33104,467
33105,456
33106,440
33106,445
33107,451
33108,459
33110,468
33111,477
33112,473
33113,471
33114,464
33115,456
33116,457
33117,459
33118,474
33119,490
33119,494
33120,495
33128,477
33129,468
33129,465
33130,458
33130,467
33131,471
33131,482
33132,490
33132,485
33133,496
33133,499
33134,483
33134,472
33135,464
33136,463
33137,466
33138,463
33139,466
33140,461
33140,451
33141,448
33142,455
33143,466
33144,452
33145,452
33146,458
33147,461
33148,464
33149,467
33150,479
33157,479
33158,481
33158,478
33159,476
33159,475
33160,480
33160,479
33161,481
33161,485
33162,480
33162,484
33163,496
33163,495
33164,463
33165,433
33166,425
33167,439
33168,453
33169,458
33170,465
33171,476
33172,480
33173,501
33173,507
33174,496
33175,489
33176,482
33177,475
33178,471
33179,460
33187,459
33187,461
33188,460
33188,452
33189,459
33189,479
33190,496
33190,501
33191,489
33191,481
33192,471
33192,450
33193,448
33195,454
33195,477
33196,488
33197,490
33198,493
33199,498
33200,493
33201,486
33202,489
33203,504
33204,507
33205,514
33206,514
33207,517
33207,528
33208,522
33209,505
33216,505
33217,502
33217,504
33218,503
33218,502
33219,487
33219,489
33220,495
33220,496
33221,496
33221,507
33222,499
33222,480
33223,465
33224,464
33225,462
33226,463
33227,484
33227,517
33228,526
33229,526
33230,517
33231,516
33232,519
33233,511
33234,501
33235,497
33236,493
33238,504
33239,513
33246,509
33247,513
33247,522
33248,523
33248,522
33249,520
33249,514
33250,506
33250,513
33251,516
33251,517
33252,522
33252,517
33253,505
33254,486
33255,477
33256,480
33257,490
33258,507
33259,499
33260,494
33261,486
33261,485
33262,478
33263,472
33264,462
33265,469
33266,486
33267,499
33268,490
33275,490
33275,489
33276,497
33276,488
33277,471
33277,442
33278,427
33278,427
33280,427
33280,454
33281,464
33281,450
33282,452
33283,461
33283,469
33284,471
33285,452
33286,456
33287,466
33288,487
33289,484
33290,479
33291,471
33292,461
33293,462
33294,464
33294,464
33295,462
33296,469
33297,478
33305,468
33305,467
33306,464
33306,468
33307,473
33307,475
33308,467
33308,463
33309,470
33309,490
33310,494
33310,493
33311,485
33312,477
33313,460
33314,438
33315,432
33315,437
33316,460
33317,485
33318,501
33319,497
33320,489
33321,492
33323,489
33324,470
33325,456
33326,459
33327,471
33328,481
33334,481
33335,487
33335,488
33336,482
33336,486
33337,473
33337,450
33338,442
33338,448
33339,456
33339,491
33340,537
33340,548
33341,522
33342,505
33343,513
33344,524
33345,534
33346,555
33347,589
33348,621
33348,641
33349,652
33350,663
33351,666
33352,696
33353,721
33354,742
33355,765
33356,775
33364,797
33364,815
33364,845
33366,876
33367,909
33367,939
33368,962
33368,990
33369,989
33369,989
33370,989
33370,989
33371,990
33371,990
33372,984
33373,936
33374,863
33375,799
33376,729
33377,656
33378,577
33379,494
33380,424
33381,377
33382,352
33382,333
33383,314
33384,304
33385,291
33386,294
33393,294
33393,311
33394,307
33394,307
33395,291
33395,285
33396,287
33396,289
33397,299
33397,319
33398,347
33398,374
33399,394
33400,400
33401,389
33402,383
33402,377
33403,373
33404,370
33405,384
33406,391
33408,408
33409,413
33410,424
33411,433
33412,439
33413,444
33414,435
33415,423
33415,416
33423,413
33424,430
33424,433
33425,433
33425,436
33426,443
33426,444
33427,438
33427,437
33428,435
33428,437
33429,445
33429,439
33430,429
33431,424
33432,423
33433,430
33434,434
33435,429
33436,409
33436,403
33437,426
33438,437
33439,449
33440,468
33441,495
33442,501
33443,480
33444,482
33445,477
33453,477
33453,477
33453,478
33454,460
33455,451
33455,447
33456,456
33456,464
33457,464
33457,471
33458,482
33458,478
33459,473
33459,481
33460,480
33461,470
33462,455
33463,448
33464,461
33465,471
33466,476
33467,491
33468,493
33469,489
33469,492
33470,507
33471,507
33472,500
33473,498
33474,482
33482,467
33482,456
33483,466
33483,481
33484,494
33484,487
33485,466
33485,461
33486,480
33486,482
33487,490
33487,498
33488,504
33489,499
33490,503
33490,508
33491,500
33492,493
33494,491
33495,497
33496,495
33497,486
33498,488
33499,491
33500,494
33501,493
33502,489
33503,494
33503,500
33504,515
33511,515
33512,522
33512,529
33513,539
33513,535
33514,538
33514,533
33515,524
33515,510
33516,502
33516,495
33517,494
33517,514
33518,528
33519,527
33520,522
33521,518
33522,515
33523,512
33523,518
33524,516
33525,527
33526,548
33527,549
33528,550
33529,535
33530,516
33531,515
33532,510
33533,513
33541,529
33542,540
33542,549
33543,543
33543,535
33544,526
33544,525
33545,533
33545,540
33546,553
33546,561
33547,561
33547,574
33548,578
33549,570
33550,558
33551,561
33552,568
33553,572
33554,577
33555,577
33556,566
33557,572
33557,586
33558,596
33559,594
33560,584
33561,567
33562,564
33563,567
33570,567
33570,572
33571,570
33571,571
33572,576
33572,571
33573,567
33573,561
33574,559
33574,554
33575,553
33575,571
33576,573
33577,578
33577,579
33579,581
33580,579
33581,571
33582,572
33583,573
33584,571
33585,572
33586,578
33587,575
33588,560
33589,543
33590,538
33590,538
33591,537
33592,545
33600,557
33601,567
33601,564
33602,581
33602,582
33603,576
33603,562
33604,543
33604,535
33605,526
33605,523
33606,539
33606,542
33607,548
33608,544
33609,544
33610,539
33611,532
33611,516
33612,498
33613,497
33614,501
33615,503
33616,513
33617,510
33618,509
33619,500
33620,493
33622,484
33623,475
33629,475
33630,475
33630,479
33631,481
33631,494
33632,496
33632,486
33633,469
33633,457
33634,440
33634,434
33635,444
33635,446
33636,442
33637,458
33638,453
33639,447
33640,438
33641,441
33642,437
33643,427
33644,432
33644,443
33645,434
33646,435
33647,415
33648,414
33649,421
33650,418
33651,406
33659,392
33659,382
33660,382
33660,396
33661,410
33661,410
33662,391
33662,371
33664,362
33664,354
33665,349
33665,350
33666,366
33667,389
33667,415
33668,414
33669,401
33670,395
33671,386
33672,382
33673,371
33674,375
33675,396
33676,397
33677,395
33678,390
33678,393
33679,410
33680,415
33681,403
33688,403
33688,386
33689,381
33689,391
33690,402
33690,428
33691,431
33691,418
33692,406
33692,399
33693,392
33693,379
33694,381
33695,389
33696,401
33697,418
33698,407
33698,395
33699,390
33700,393
33701,394
33702,389
33703,393
33704,406
33705,413
33707,431
33708,441
33709,442
33710,436
33711,425
33718,411
33719,397
33719,396
33720,405
33720,416
33721,424
33721,421
33722,424
33722,424
33723,436
33723,443
33724,453
33724,462
33725,481
33726,494
33727,499
33728,466
33729,442
33730,446
33731,449
33732,434
33732,425
33733,420
33734,414
33735,410
33736,428
33737,437
33738,432
33739,432
33740,428
33747,428
33747,421
33748,421
33748,426
33750,431
33750,433
33751,445
33751,447
33752,447
33752,447
33753,451
33753,455
33754,449
33755,442
33755,443
33756,448
33757,455
33758,448
33759,440
33760,429
33761,428
33762,440
33763,447
33764,461
33765,468
33765,468
33766,475
33767,474
33768,484
33769,477
33777,460
33777,440
33778,430
33778,443
33779,454
33779,457
33780,460
33780,455
33781,466
33781,469
33782,477
33782,468
33783,450
33784,451
33785,466
33786,486
33786,509
33787,497
33788,479
33789,468
33790,466
33792,465
33793,459
33794,459
33795,464
33796,467
33797,488
33798,496
33799,497
33799,481
33806,481
33807,460
33807,445
33808,449
33808,477
33809,497
33809,496
33810,500
33810,486
33811,471
33811,466
33812,462
33812,458
33813,448
33814,455
33815,484
33816,489
33817,485
33818,489
33819,481
33819,470
33820,461
33821,453
33822,446
33823,448
33824,443
33825,449
33826,473
33827,483
33828,479
33837,473
33837,471
33837,463
33838,455
33839,449
33839,451
33840,465
33840,476
33841,476
33841,478
33842,480
33842,486
33843,484
33843,474
33844,470
33845,468
33846,474
33847,482
33848,481
33849,471
33850,462
33851,461
33852,469
33853,472
33853,480
33854,496
33855,504
33856,517
33857,498
33858,487
33865,487
33865,484
33866,478
33866,469
33867,445
33867,437
33868,446
33868,466
33869,470
33869,469
33870,483
33870,481
33871,471
33872,472
33873,477
33873,476
33874,465
33875,469
33876,470
33878,478
33879,482
33880,479
33881,474
33882,478
33883,480
33884,494
33885,509
33886,520
33886,520
33887,516
33895,501
33896,474
33896,450
33897,439
33897,427
33898,438
33898,451
33899,467
33899,472
33900,476
33900,466
33901,460
33901,461
33902,461
33903,467
33904,478
33905,487
33906,499
33907,493
33907,487
33908,480
33909,472
33910,465
33911,454
33912,459
33913,480
33914,491
33915,500
33916,499
33917,490
33925,490
33925,487
33925,488
33926,491
33926,494
33927,490
33927,493
33928,498
33928,507
33929,500
33929,491
33930,490
33930,486
33931,475
33932,471
33933,467
33934,467
33935,468
33936,485
33937,492
33938,494
33939,485
33940,469
33940,458
33941,458
33942,470
33943,485
33944,497
33945,507
33946,503
33954,505
33954,502
33955,500
33955,489
33956,471
33956,464
33957,464
33957,476
33958,507
33958,513
33959,509
33959,488
33960,471
33961,481
33961,495
33963,496
33964,494
33965,501
33966,512
33967,501
33968,487
33969,476
33970,474
33971,483
33972,480
33973,473
33974,471
33974,479
33975,489
33976,488
33983,488
33984,479
33984,475
33985,479
33985,481
33986,482
33986,484
33987,494
33987,491
33988,483
33988,480
33989,496
33989,504
33990,502
33991,486
33992,475
33993,466
33994,464
33994,469
33995,477
33996,477
33997,480
33998,479
33999,479
34000,477
34001,488
34002,500
34003,510
34004,512
34006,519
34013,520
34014,501
34014,488
34015,484
34015,481
34016,478
34016,484
34017,481
34017,470
34018,466
34018,476
34019,477
34019,470
34020,478
34021,485
34022,492
34023,498
34024,506
34025,508
34026,507
34027,500
34028,500
34028,500
34029,495
34030,487
34031,481
34032,490
34033,492
34034,496
34035,512
34042,512
34042,503
34043,484
34043,482
34044,495
34044,491
34045,483
34045,488
34046,501
34046,503
34048,506
34048,500
34049,504
34050,502
34050,504
34051,486
34052,486
34053,505
34054,499
34055,489
34056,512
34057,525
34058,527
34059,519
34060,519
34061,510
34061,489
34062,494
34063,496
34064,503
34072,516
34072,523
34073,525
34073,528
34074,533
34074,509
34075,484
34075,496
34076,514
34076,538
34077,555
34077,549
34078,538
34079,524
34080,528
34081,540
34082,539
34082,552
34083,560
34084,565
34085,574
34086,564
34087,554
34088,544
34089,530
34091,511
34092,493
34093,481
34094,476
34095,478
34101,478
34102,488
34102,499
34103,512
34103,508
34104,493
34104,481
34105,470
34105,467
34106,472
34106,469
34107,470
34107,478
34108,499
34109,507
34110,494
34111,479
34112,472
34113,465
34114,457
34115,460
34115,473
34116,477
34117,481
34118,479
34119,476
34120,474
34121,467
34122,465
34123,473
34131,489
34131,494
34132,486
34132,482
34134,477
34134,475
34135,463
34135,458
34136,469
34136,470
34137,479
34137,489
34138,486
34139,482
34139,470
34140,464
34141,461
34142,477
34143,493
34144,495
34145,495
34146,495
34147,481
34148,466
34149,459
34149,463
34150,464
34151,466
34152,488
34153,495
34160,495
34160,500
34161,496
34161,486
34162,475
34162,470
34163,467
34163,466
34164,467
34164,461
34165,471
34165,486
34166,484
34167,475
34168,488
34169,488
34169,465
34170,429
34171,422
34172,445
34173,459
34174,485
34176,506
34177,514
34178,506
34179,501
34180,495
34181,484
34182,474
34182,493
34190,503
34191,521
34191,528
34192,528
34192,544
34193,567
34193,590
34194,584
34194,587
34195,606
34195,628
34196,645
34196,664
34197,682
34198,716
34199,748
34200,762
34201,775
34202,796
34203,838
34203,865
34204,907
34205,939
34206,965
34207,990
34208,990
34209,989
34210,989
34211,989
34212,988
34220,988
34220,989
34220,989
34221,989
34222,990
34222,956
34223,865
34223,775
34224,693
34224,602
34225,531
34225,463
34226,420
34226,387
34227,363
34228,326
34229,293
34230,269
34231,234
34232,228
34233,255
34234,287
34235,322
34236,331
34236,330
34237,321
34238,332
34239,340
34240,335
34241,344
34249,366
34249,373
34250,399
34250,403
34251,412
34251,414
34252,405
34252,402
34253,388
34253,393
34254,415
34254,436
34255,445
34256,438
34257,431
34257,420
34258,422
34259,416
34260,396
34262,381
34263,403
34264,421
34265,448
34266,441
34267,444
34268,446
34269,443
34270,444
34270,445
34271,436
34278,436
34279,446
34279,451
34280,465
34280,461
34281,456
34281,453
34282,441
34282,432
34283,420
34283,420
34284,438
34284,454
34285,476
34286,454
34287,453
34288,454
34289,449
34290,452
34290,453
34291,452
34292,456
34293,463
34294,485
34295,480
34296,473
34297,465
34298,464
34299,455
34300,445
34309,459
34309,474
34309,482
34310,502
34310,500
34311,500
34312,486
34312,481
34312,481
34313,473
34314,462
34314,465
34315,473
34315,505
34316,532
34317,543
34318,530
34319,513
34320,484
34321,471
34322,481
34323,493
34324,500
34324,513
34325,483
34326,481
34327,490
34328,476
34329,463
34330,455
34337,455
34337,461
34338,478
34338,508
34339,538
34339,533
34340,528
34340,533
34341,538
34341,525
34342,505
34342,500
34343,505
34344,513
34344,537
34345,524
34347,521
34348,513
34349,495
34350,471
34351,455
34352,467
34353,491
34354,505
34355,527
34356,539
34357,550
34357,556
34358,529
34359,493
34367,470
34368,480
34368,508
34369,534
34369,561
34370,557
34370,555
34371,550
34371,541
34372,520
34372,506
34373,509
34373,530
34374,549
34375,578
34376,580
34377,575
34378,567
34378,555
34379,532
34380,520
34381,531
34382,552
34383,564
34384,591
34385,589
34386,576
34387,557
34388,539
34390,520
34396,520
34397,508
34397,527
34398,545
34398,557
34399,568
34399,569
34400,574
34400,568
34401,569
34401,558
34402,536
34402,546
34403,566
34404,585
34405,598
34406,592
34407,588
34408,578
34409,569
34410,573
34411,573
34411,571
34412,573
34413,586
34414,615
34415,621
34416,620
34417,614
34418,596
34426,577
34426,561
34427,579
34427,600
34428,620
34428,624
34429,595
34429,565
34430,557
34430,559
34432,544
34432,537
34433,534
34434,534
34434,545
34435,572
34436,574
34437,577
34438,570
34439,562
34440,554
34441,534
34442,533
34443,545
34444,560
34445,568
34445,569
34446,578
34447,588
34448,580
34455,580
34455,539
34456,517
34456,526
34457,532
34457,536
34458,548
34458,548
34459,539
34459,535
34460,526
34460,504
34461,482
34462,479
34463,481
34464,504
34465,515
34465,514
34466,512
34467,512
34468,503
34469,475
34470,451
34471,456
34472,474
34473,483
34475,480
34476,471
34477,455
34478,446
34485,446
34486,453
34486,448
34487,446
34487,459
34488,484
34488,494
34489,480
34489,458
34490,433
34490,408
34491,376
34491,372
34492,396
34493,420
34494,448
34495,460
34496,435
34497,428
34498,430
34499,427
34499,404
34500,394
34501,418
34502,435
34503,449
34504,465
34505,462
34506,461
34507,443
34514,443
34514,406
34515,367
34515,338
34516,332
34516,354
34518,386
34518,399
34519,419
34519,423
34520,413
34520,394
34521,377
34522,372
34522,384
34523,389
34524,399
34525,390
34526,383
34527,381
34528,384
34529,390
34530,380
34531,378
34532,408
34532,414
34533,422
34534,436
34535,454
34536,478
34544,486
34544,455
34545,385
34545,315
34546,297
34546,327
34547,387
34547,396
34548,397
34548,402
34549,394
34549,394
34550,376
34551,386
34552,404
34553,423
34553,465
34554,471
34555,474
34556,471
34557,455
34558,420
34560,372
34561,343
34562,343
34563,355
34564,389
34565,385
34566,395
34566,406
34573,406
34574,414
34574,415
34575,401
34575,406
34576,436
34576,448
34577,461
34577,449
34578,453
34578,469
34579,471
34579,432
34580,389
34581,384
34582,404
34583,441
34584,500
34585,492
34586,465
34586,457
34587,441
34588,405
34589,369
34590,374
34591,414
34592,443
34593,478
34594,498
34595,503
34604,484
34604,472
34604,436
34605,414
34606,408
34606,433
34607,483
34607,544
34608,560
34608,583
34609,591
34609,577
34610,544
34610,503
34611,492
34612,497
34613,510
34614,531
34615,529
34616,524
34617,530
34618,521
34619,478
34620,432
34620,397
34621,410
34622,438
34623,489
34624,502
34625,516
34632,516
34632,524
34633,520
34633,508
34634,485
34634,483
34635,480
34635,477
34636,495
34636,490
34637,490
34637,502
34638,531
34639,561
34640,593
34640,632
34641,643
34642,630
34643,620
34644,565
34646,530
34647,504
34648,471
34649,437
34650,414
34651,399
34652,401
34653,447
34653,522
34654,564
34662,573
34663,540
34663,518
34664,508
34664,497
34665,505
34665,532
34666,561
34666,581
34667,550
34667,524
34668,523
34668,521
34669,545
34670,544
34671,523
34672,508
34673,492
34674,491
34674,473
34675,464
34676,473
34677,463
34678,428
34679,404
34680,390
34681,376
34682,378
34683,405
34684,420
34692,420
34692,443
34692,463
34693,472
34694,456
34694,457
34695,468
34695,465
34696,461
34696,474
34697,477
34697,505
34698,519
34698,519
34699,495
34700,475
34701,485
34702,513
34703,533
34704,551
34705,519
34706,490
34707,475
34708,478
34708,497
34709,501
34710,537
34711,585
34712,627
34713,660
34721,668
34721,658
34722,645
34722,642
34723,646
34723,637
34724,643
34724,612
34725,558
34725,513
34726,496
34726,493
34727,471
34728,464
34728,410
34729,359
34731,333
34732,330
34733,337
34734,380
34735,398
34736,391
34737,396
34738,393
34739,388
34740,394
34741,407
34741,425
34742,453
34743,470
34750,470
34751,467
34751,475
34752,468
34752,464
34753,455
34753,448
34754,444
34754,429
34755,398
34755,393
34756,410
34756,452
34757,486
34758,530
34759,531
34760,470
34761,419
34761,398
34762,404
34763,418
34764,425
34765,427
34766,435
34767,443
34768,454
34769,464
34770,501
34771,549
34772,578
34780,581
34781,573
34781,587
34782,576
34782,598
34783,644
34783,674
34784,654
34784,635
34785,612
34785,565
34786,521
34786,509
34787,476
34788,448
34789,450
34790,465
34791,469
34792,482
34793,510
34794,555
34795,567
34795,555
34796,525
34797,487
34798,432
34799,383
34800,404
34801,432
34802,438
34809,438
34809,440
34810,441
34810,471
34811,484
34811,484
34812,465
34812,442
34813,443
34813,470
34814,520
34814,536
34816,530
34817,502
34817,478
34818,473
34819,461
34820,448
34821,461
34822,428
34823,389
34824,372
34825,369
34826,379
34827,390
34828,419
34828,450
34829,458
34830,495
34831,492
34839,494
34839,530
34840,581
34840,576
34841,536
34841,496
34842,477
34842,508
34843,543
34843,559
34844,545
34844,492
34845,472
34846,441
34847,440
34848,479
34849,471
34849,454
34850,459
34851,470
34852,516
34853,554
34854,574
34855,554
34856,547
34857,541
34859,530
34860,547
34861,560
34862,561
34868,561
34869,583
34869,542
34870,539
34870,551
34871,516
34871,489
34872,480
34872,515
34873,546
34873,571
34874,604
34874,583
34875,558
34876,556
34877,563
34878,575
34879,617
34880,653
34881,642
34882,579
34883,556
34883,507
34884,462
34885,423
34886,378
34887,355
34888,337
34889,333
34890,345
34898,375
34898,428
34899,437
34899,449
34900,457
34900,498
34902,531
34902,540
34903,577
34903,609
34904,609
34904,637
34905,618
34906,588
34906,570
34907,559
34908,541
34909,495
34910,455
34911,450
34912,475
34913,501
34914,483
34915,479
34916,479
34916,475
34917,431
34918,385
34919,365
34920,368
34927,368
34927,422
34928,493
34928,528
34929,530
34929,538
34930,531
34930,508
34931,511
34931,553
34932,579
34932,572
34933,578
34934,598
34935,631
34936,694
34936,709
34937,656
34938,594
34939,556
34940,537
34941,510
34942,511
34944,493
34945,491
34946,464
34947,448
34948,422
34949,406
34950,384
34957,369
34958,395
34958,428
34959,453
34959,482
34960,501
34960,514
34961,520
34961,525
34962,549
34962,586
34963,639
34963,678
34964,675
34965,653
34966,641
34967,617
34968,570
34969,521
34970,506
34970,540
34971,570
34972,592
34973,574
34974,545
34975,517
34976,466
34977,439
34978,425
34979,452
34987,452
34987,498
34987,545
34988,558
34989,538
34989,528
34990,527
34990,549
34991,572
34991,586
34992,606
34992,610
34993,639
34993,654
34994,597
34995,541
34996,484
34997,441
34998,423
34999,435
35000,484
35001,505
35002,485
35003,503
35003,529
35004,538
35005,486
35006,420
35007,363
35008,353
35016,364
35016,370
35017,389
35017,435
35018,483
35018,515
35019,511
35019,514
35020,509
35020,523
35021,585
35021,634
35022,643
35023,639
35024,602
35025,561
35025,486
35026,407
35027,350
35028,327
35030,346
35031,390
35032,442
35033,494
35034,537
35035,578
35036,613
35037,594
35037,548
35038,534
35045,534
35046,541
35046,541
35047,529
35047,482
35048,440
35048,440
35049,470
35049,515
35050,516
35050,488
35051,517
35051,560
35052,571
35053,538
35054,476
35055,417
35056,373
35057,334
35057,280
35058,294
35059,348
35060,389
35061,436
35062,496
35063,546
35064,606
35065,649
35066,665
35067,641
35076,604
35076,575
35076,533
35077,505
35078,482
35078,456
35079,450
35079,457
35080,482
35080,508
35081,529
35081,557
35082,577
35082,588
35083,581
35084,567
35085,561
35086,587
35087,641
35088,668
35089,726
35090,768
35091,820
35092,865
35092,876
35093,877
35094,881
35095,903
35096,923
35097,928
35104,928
35104,922
35105,960
35105,990
35106,989
35106,989
35107,989
35107,990
35108,989
35108,989
35109,989
35109,990
35110,990
35111,944
35111,867
35112,781
35113,673
35115,568
35116,469
35117,413
35118,376
35119,366
35120,396
35121,389
35122,371
35123,350
35124,329
35124,318
35125,330
35126,354
35134,353
35135,370
35135,385
35136,397
35136,408
35137,405
35137,389
35138,363
35138,351
35139,369
35139,381
35140,406
35140,412
35141,421
35142,465
35143,497
35144,530
35145,514
35146,473
35146,468
35147,450
35148,407
35149,409
35150,390
35151,402
35152,417
35153,422
35154,403
35155,410
35156,435
35163,435
35164,460
35164,467
35165,493
35165,501
35166,514
35166,521
35167,506
35167,495
35168,503
35168,492
35169,435
35169,436
35170,443
35171,435
35172,436
35173,407
35174,396
35175,373
35176,341
35177,309
35178,304
35179,331
35179,372
35180,408
35181,478
35182,502
35183,490
35184,464
35185,479
35193,462
35193,427
35194,419
35194,375
35195,372
35195,425
35196,471
35196,537
35197,553
35197,545
35198,524
35198,520
35200,535
35201,535
35201,517
35202,549
35203,545
35204,525
35205,502
35206,509
35207,554
35208,569
35209,574
35210,542
35211,541
35212,622
35213,610
35213,566
35214,505
35215,452
35222,452
35223,448
35223,443
35224,439
35224,474
35225,489
35225,518
35226,515
35226,547
35227,567
35227,547
35228,490
35228,446
35229,435
35230,435
35231,433
35232,434
35232,467
35233,492
35234,466
35235,469
35236,461
35237,462
35238,476
35239,509
35240,545
35241,604
35243,582
35244,559
35245,552
35252,513
35253,482
35253,470
35254,454
35254,450
35255,476
35255,504
35256,504
35256,527
35257,543
35257,550
35258,521
35258,505
35259,522
35260,541
35261,579
35262,631
35263,611
35264,582
35265,576
35266,583
35267,565
35267,532
35268,513
35269,508
35270,510
35271,530
35272,540
35273,534
35274,518
35281,518
35281,528
35282,554
35282,569
35283,582
35283,592
35284,575
35284,557
35286,523
35286,511
35287,518
35287,525
35288,574
35289,612
35289,626
35290,625
35291,626
35292,638
35293,624
35294,620
35295,639
35296,649
35297,619
35298,551
35299,501
35299,472
35300,455
35301,515
35302,570
35303,603
35311,585
35311,574
35312,557
35312,548
35313,564
35313,577
35314,568
35314,568
35315,566
35315,560
35316,566
35316,574
35317,580
35318,583
35319,578
35320,578
35320,575
35321,622
35322,627
35323,604
35324,565
35325,547
35326,527
35328,521
35329,548
35330,600
35331,623
35332,625
35333,604
35334,569
35340,569
35341,537
35341,530
35342,526
35342,517
35343,520
35343,537
35344,557
35344,584
35345,599
35345,599
35346,591
35346,596
35347,572
35348,543
35349,524
35350,503
35351,472
35352,460
35353,393
35354,358
35354,364
35355,414
35356,466
35357,492
35358,513
35359,500
35360,475
35361,465
35362,449
35371,452
35371,482
35371,510
35372,496
35373,518
35373,518
35374,520
35374,564
35375,590
35375,545
35376,506
35376,486
35377,449
35377,396
35378,359
35379,378
35380,392
35381,409
35382,405
35383,361
35384,342
35385,349
35386,366
35387,372
35387,362
35388,374
35389,413
35390,440
35391,435
35392,441
35399,441
35399,454
35400,442
35400,440
35401,410
35401,384
35402,389
35402,397
35403,412
35403,415
35404,415
35404,414
35405,369
35406,335
35407,324
35408,336
35408,352
35409,359
35410,387
35411,421
35412,435
35414,425
35415,417
35416,437
35417,439
35418,442
35419,451
35420,454
35420,479
35421,470
35429,448
35430,423
35430,407
35431,411
35431,401
35432,404
35432,405
35433,411
35433,447
35434,442
35434,438
35435,447
35435,456
35436,450
35437,414
35438,397
35439,405
35440,399
35441,428
35441,441
35442,444
35443,443
35444,449
35445,406
35446,347
35447,333
35448,353
35449,361
35450,379
35451,387
35459,387
35459,384
35459,387
35460,388
35461,385
35461,381
35462,399
35462,425
35463,434
35463,452
35464,440
35464,438
35465,448
35465,442
35466,412
35467,394
35468,397
35469,408
35470,406
35471,422
35472,413
35473,394
35474,363
35475,356
35475,361
35476,357
35477,365
35478,396
35479,398
35480,431
35488,447
35488,467
35489,469
35489,460
35490,447
35490,445
35491,463
35491,483
35492,481
35492,479
35493,474
35493,482
35494,479
35495,485
35496,495
35496,498
35497,499
35499,503
35500,491
35501,482
35502,443
35503,417
35504,410
35505,436
35506,449
35507,412
35508,396
35509,392
35509,378
35510,409
35517,409
35518,443
35518,459
35519,472
35519,482
35520,482
35520,480
35521,508
35521,538
35522,546
35522,570
35523,553
35523,523
35524,471
35525,442
35526,443
35527,441
35528,449
35529,449
35529,452
35530,464
35531,463
35532,429
35533,412
35534,413
35535,408
35536,416
35537,422
35538,437
35539,449
35547,468
35548,454
35548,466
35549,491
35549,479
35550,463
35550,446
35551,451
35551,457
35552,470
35552,503
35553,499
35553,489
35554,464
35555,450
35556,441
35557,447
35558,464
35559,468
35560,460
35561,461
35562,427
35563,406
35563,413
35564,416
35565,404
35566,393
35567,396
35568,418
35569,466
35576,466
35576,549
35577,609
35577,613
35578,582
35578,549
35579,509
35579,483
35580,464
35580,459
35581,435
35581,433
35582,431
35584,437
35584,434
35585,443
35586,431
35587,438
35588,460
35589,478
35590,482
35591,477
35592,460
35593,458
35594,461
35595,465
35595,438
35596,418
35597,415
35598,430
35606,436
35607,445
35607,443
35608,447
35608,458
35609,469
35609,469
35610,457
35610,447
35611,442
35611,444
35612,460
35612,465
35613,469
35614,465
35615,465
35616,456
35617,449
35617,462
35618,469
35619,477
35620,487
35621,468
35622,473
35623,486
35624,499
35625,496
35627,488
35628,486
35629,487
35635,487
35636,493
35636,499
35637,476
35637,455
35638,436
35638,425
35639,418
35639,428
35640,452
35640,469
35641,486
35641,491
35642,478
35643,469
35644,458
35645,449
35646,433
35647,425
35648,424
35649,413
35650,416
35650,450
35651,471
35652,475
35653,484
35654,499
35655,488
35656,478
35657,481
35665,469
35665,481
35666,507
35666,523
35667,547
35667,530
35668,466
35668,413
35670,401
35670,433
35671,472
35671,508
35672,536
35673,536
35673,521
35674,488
35675,465
35676,470
35677,498
35678,548
35679,553
35680,550
35681,538
35682,521
35683,510
35683,495
35684,493
35685,486
35686,492
35687,517
35694,517
35694,537
35695,565
35695,574
35696,553
35696,533
35697,518
35697,511
35698,498
35698,494
35699,491
35699,490
35700,522
35701,542
35702,554
35703,562
35704,545
35704,518
35705,476
35706,443
35707,440
35708,454
35709,480
35710,496
35712,509
35713,491
35714,471
35715,435
35716,401
35717,405
35724,424
35725,424
35725,440
35726,433
35726,437
35727,445
35727,438
35728,429
35728,422
35729,435
35729,456
35730,458
35730,483
35731,504
35732,497
35733,469
35734,446
35735,433
35736,439
35737,447
35738,466
35738,469
35739,494
35740,487
35741,474
35742,482
35743,493
35744,493
35745,470
35746,454
35753,454
35753,470
35753,511
35755,560
35756,562
35756,567
35757,578
35757,553
35758,504
35758,455
35759,451
35759,482
35760,516
35761,562
35761,559
35762,541
35763,528
35764,526
35765,526
35766,515
35767,524
35768,532
35769,532
35770,525
35771,501
35771,486
35772,488
35773,508
35774,510
35775,495
35783,512
35783,540
35784,542
35784,552
35785,523
35785,491
35786,482
35786,479
35787,471
35787,454
35788,466
35788,490
35789,510
35790,531
35791,535
35792,534
35792,535
35793,547
35794,539
35795,519
35796,520
35798,527
35799,526
35800,543
35801,539
35802,550
35803,547
35804,538
35805,524
35805,507
35812,507
35813,512
35813,519
35814,517
35814,547
35815,560
35815,562
35816,555
35816,519
35817,477
35817,457
35818,482
35818,532
35819,569
35820,595
35821,583
35822,571
35823,552
35824,534
35825,523
35825,514
35826,533
35827,535
35828,520
35829,519
35830,505
35831,505
35832,499
35833,518
35834,546
35843,510
35843,461
35843,437
35844,429
35845,441
35845,440
35846,464
35846,467
35847,448
35847,424
35848,394
35848,370
35849,373
35849,421
35850,493
35851,537
35852,561
35853,551
35854,514
35855,477
35856,457
35857,456
35858,484
35859,515
35859,542
35860,529
35861,520
35862,510
35863,500
35864,483
35871,483
35871,453
35872,439
35872,439
35873,458
35873,491
35874,500
35874,500
35875,488
35875,475
35876,454
35876,443
35877,454
35878,477
35879,498
35879,519
35880,500
35881,481
35883,469
35884,480
35885,498
35886,491
35887,476
35888,491
35889,506
35890,530
35891,534
35892,509
35892,487
35893,471
35901,452
35902,442
35902,461
35903,465
35903,459
35904,489
35904,519
35905,551
35905,575
35906,565
35906,548
35907,521
35907,497
35908,495
35909,493
35910,505
35911,502
35912,498
35913,493
35913,493
35914,487
35915,480
35916,494
35917,495
35918,512
35919,525
35920,517
35921,513
35922,517
35923,518
35930,518
35931,519
35931,530
35932,593
35932,662
35933,733
35933,827
35934,899
35934,952
35935,968
35935,969
35936,965
35936,975
35937,989
35938,990
35939,989
35940,988
35941,988
35942,988
35943,988
35944,989
35945,989
35946,989
35946,990
35947,981
35948,920
35949,864
35950,784
35951,693
35952,611
35960,525
35960,429
35961,353
35961,317
35962,292
35962,285
35963,283
35963,265
35964,272
35964,298
35965,300
35965,279
35966,276
35968,289
35968,298
35969,328
35970,385
35971,421
35972,428
35973,402
35974,382
35975,363
35976,352
35977,358
35978,370
35979,391
35979,412
35980,416
35981,418
35982,419
35989,419
35990,417
35990,401
35991,404
35991,405
35992,406
35992,406
35993,413
35993,403
35994,390
35994,377
35995,376
35995,370
35996,392
35997,446
35998,487
35999,515
36000,526
36000,509
36001,505
36002,506
36003,490
36004,462
36005,448
36006,438
36007,430
36008,437
36009,436
36011,434
36012,432
36019,425
36020,431
36020,433
36021,443
36021,467
36022,485
36022,516
36023,519
36023,494
36024,470
36024,437
36025,426
36025,422
36026,413
36027,431
36028,460
36029,495
36030,507
36031,476
36032,457
36033,460
36034,467
36034,451
36035,445
36036,462
36037,487
36038,522
36039,521
36040,513
36041,501
36048,501
36048,486
36049,461
36049,427
36050,416
36050,423
36051,434
36051,479
36052,489
36052,479
36054,457
36054,435
36055,409
36056,392
36056,407
36057,449
36058,466
36059,499
36060,514
36061,520
36062,528
36063,536
36064,535
36065,506
36066,511
36067,527
36067,548
36068,570
36069,576
36070,573
36078,555
36078,540
36079,528
36079,503
36080,478
36080,475
36081,459
36081,454
36082,450
36082,475
36083,496
36083,516
36084,529
36085,541
36086,573
36087,598
36088,577
36088,559
36089,514
36090,497
36091,465
36092,451
36093,436
36094,423
36096,444
36097,490
36098,519
36099,551
36100,530
36101,525
36107,525
36108,530
36108,517
36109,505
36109,463
36110,450
36110,499
36111,576
36111,658
36112,682
36112,677
36113,626
36113,554
36114,517
36115,496
36116,481
36117,491
36118,493
36119,519
36120,512
36121,504
36121,502
36122,502
36123,494
36124,497
36125,502
36126,514
36127,538
36128,582
36129,612
36137,628
36137,611
36137,583
36139,572
36140,553
36140,553
36141,581
36141,595
36142,606
36142,564
36143,557
36143,561
36144,547
36144,535
36145,524
36146,527
36147,533
36148,526
36149,548
36150,558
36151,564
36152,588
36153,589
36154,563
36155,547
36155,553
36156,572
36157,608
36158,646
36159,651
36166,651
36166,655
36167,652
36167,649
36168,655
36168,656
36169,664
36169,680
36170,676
36170,653
36171,598
36171,569
36172,559
36173,531
36174,500
36175,485
36175,492
36176,502
36177,507
36178,520
36179,513
36180,500
36182,458
36183,425
36184,397
36185,386
36186,388
36187,411
36188,429
36188,452
36196,463
36197,466
36197,472
36198,499
36198,522
36199,525
36199,523
36200,523
36200,538
36201,564
36201,563
36202,544
36202,532
36203,521
36204,488
36205,469
36206,462
36207,464
36208,470
36209,486
36209,483
36210,482
36211,468
36212,453
36213,433
36214,418
36215,412
36216,410
36217,418
36218,436
36226,436
36226,433
36226,431
36227,412
36228,388
36228,359
36229,350
36229,358
36230,369
36230,385
36231,416
36231,419
36232,414
36232,415
36233,400
36234,369
36235,341
36236,342
36237,360
36238,399
36239,432
36240,429
36241,411
36242,397
36242,401
36243,398
36244,406
36245,436
36246,451
36247,441
36255,426
36255,398
36256,390
36256,388
36257,388
36257,377
36258,362
36258,347
36259,350
36259,364
36260,388
36260,400
36261,426
36262,437
36263,448
36263,454
36264,451
36265,432
36267,405
36268,355
36269,346
36270,336
36271,355
36272,378
36273,394
36274,382
36275,384
36276,397
36276,408
36277,408
36284,408
36285,398
36285,371
36286,376
36286,392
36287,399
36287,373
36288,335
36288,319
36289,321
36289,340
36290,377
36290,405
36291,427
36292,440
36293,459
36294,451
36295,437
36296,435
36296,444
36297,464
36298,466
36299,457
36300,449
36301,446
36302,444
36303,406
36304,378
36305,387
36306,402
36314,436
36315,457
36315,448
36316,433
36316,422
36317,401
36317,377
36318,353
36318,355
36319,361
36319,379
36320,391
36320,396
36321,381
36322,344
36323,318
36324,314
36325,339
36326,391
36327,443
36328,500
36329,526
36330,549
36330,562
36331,568
36332,550
36333,511
36334,476
36335,462
36336,452
36343,452
36343,476
36344,481
36344,482
36345,485
36345,478
36346,467
36346,470
36347,470
36347,456
36348,443
36348,458
36349,462
36350,470
36350,467
36352,459
36353,456
36354,445
36355,442
36356,462
36357,482
36358,506
36359,502
36360,504
36361,503
36362,510
36363,505
36363,479
36364,453
36365,436
36373,414
36374,435
36374,453
36375,472
36375,474
36376,484
36376,482
36377,490
36377,504
36378,526
36378,548
36379,556
36379,531
36380,528
36381,513
36382,484
36383,464
36384,453
36384,457
36385,460
36386,455
36387,476
36388,483
36389,495
36390,490
36391,478
36392,481
36393,484
36395,486
36396,483
36402,483
36403,491
36403,495
36404,465
36404,453
36405,445
36405,430
36406,404
36406,372
36407,362
36407,376
36408,401
36408,440
36409,453
36410,455
36411,446
36412,435
36413,439
36414,443
36415,440
36416,455
36417,466
36417,488
36418,485
36419,479
36420,469
36421,460
36422,451
36423,442
36424,453
36432,476
36432,503
36433,524
36433,510
36434,494
36434,483
36435,472
36435,471
36436,464
36436,467
36438,489
36438,508
36439,534
36440,517
36440,494
36441,481
36442,473
36443,457
36444,432
36445,443
36446,463
36447,492
36448,505
36449,480
36450,463
36451,455
36451,452
36452,441
36453,443
36454,456
36461,456
36461,476
36462,480
36462,484
36463,483
36463,476
36464,478
36464,479
36465,471
36465,460
36466,470
36466,476
36467,444
36468,424
36469,433
36470,456
36471,463
36471,474
36472,455
36473,431
36474,430
36475,459
36476,488
36477,498
36478,485
36480,485
36481,472
36482,469
36483,474
36484,457
36491,437
36492,421
36492,452
36493,502
36493,525
36494,537
36494,525
36495,518
36495,502
36496,462
36496,452
36497,489
36497,519
36498,522
36499,510
36500,515
36501,520
36502,534
36503,530
36504,507
36505,459
36505,421
36506,416
36507,457
36508,456
36509,464
36510,462
36511,470
36512,466
36513,469
36520,469
36520,480
36521,495
36521,496
36523,513
36523,516
36524,514
36524,502
36525,477
36525,433
36526,427
36526,452
36527,454
36528,474
36528,506
36529,498
36530,486
36531,502
36532,525
36533,538
36534,553
36535,567
36536,555
36537,536
36538,511
36538,482
36539,466
36540,460
36541,471
36542,494
36550,504
36550,507
36551,500
36551,516
36552,545
36552,565
36553,553
36553,499
36554,446
36554,420
36555,423
36555,428
36556,421
36557,440
36558,448
36559,439
36559,443
36560,427
36561,435
36562,426
36563,410
36564,436
36566,467
36567,494
36568,539
36569,554
36570,546
36571,526
36572,503
36572,460
36579,460
36580,411
36580,380
36581,362
36581,343
36582,338
36582,360
36583,406
36583,430
36584,478
36584,516
36585,543
36585,535
36586,502
36587,477
36588,448
36589,399
36590,383
36591,444
36592,504
36592,541
36593,568
36594,569
36595,517
36596,457
36597,418
36598,408
36599,457
36600,511
36601,527
36610,514
36610,513
36610,543
36611,597
36612,648
36612,717
36613,787
36613,811
36614,777
36614,684
36615,581
36615,519
36616,499
36616,495
36617,523
36618,498
36619,434
36620,380
36621,378
36622,391
36623,368
36624,353
36625,393
36626,441
36626,485
36627,466
36628,462
36629,421
36630,379
36631,403
36638,403
36638,451
36639,441
36639,414
36640,410
36640,437
36641,436
36641,417
36642,391
36642,393
36643,433
36643,482
36644,550
36645,620
36646,641
36646,604
36647,557
36648,525
36649,497
36651,486
36652,488
36653,476
36654,473
36655,506
36656,535
36657,566
36658,545
36659,555
36659,595
36660,588
36668,551
36669,543
36669,545
36670,574
36670,608
36671,602
36671,545
36672,470
36672,414
36673,372
36673,346
36674,364
36674,397
36675,432
36676,468
36677,552
36678,582
36679,594
36680,594
36680,593
36681,598
36682,535
36683,494
36684,495
36685,485
36686,494
36687,482
36688,499
36689,537
36690,570
36698,570
36698,602
36698,608
36699,612
36700,606
36700,593
36701,572
36701,525
36702,518
36702,510
36703,480
36703,464
36704,463
36704,480
36705,504
36706,526
36707,567
36708,574
36709,563
36710,529
36711,502
36712,487
36713,472
36713,485
36714,524
36715,535
36716,546
36717,538
36718,536
36719,527
36727,517
36727,499
36728,469
36728,456
36729,460
36729,463
36730,488
36730,505
36731,519
36731,490
36732,458
36732,430
36733,413
36734,401
36734,429
36736,461
36737,503
36738,493
36739,483
36740,490
36741,496
36742,493
36743,500
36744,522
36745,535
36746,526
36747,515
36747,480
36748,464
36749,453
36756,453
36757,454
36757,455
36758,454
36758,481
36759,506
36759,512
36760,527
36760,512
36761,495
36761,469
36762,464
36762,465
36763,490
36764,543
36765,552
36766,538
36767,530
36767,498
36768,476
36769,470
36770,432
36771,395
36772,378
36773,399
36774,421
36775,432
36776,445
36777,427
36779,432
36786,442
36787,461
36787,467
36788,464
36788,463
36789,479
36789,486
36790,514
36790,535
36791,532
36791,513
36792,491
36792,466
36793,451
36794,455
36795,460
36796,444
36797,443
36798,447
36799,466
36800,492
36801,493
36801,489
36802,480
36803,473
36804,480
36805,491
36806,521
36807,541
36808,552
36815,552
36815,564
36816,583
36816,600
36817,612
36817,640
36818,675
36818,715
36819,755
36819,768
36820,784
36820,797
36822,814
36823,827
36823,859
36824,909
36825,954
36826,986
36827,990
36828,989
36829,989
36830,989
36831,989
36832,989
36833,990
36834,990
36834,989
36835,990
36836,955
36837,882
36845,807
36845,719
36846,618
36846,517
36847,440
36847,415
36848,402
36848,388
36849,367
36849,330
36850,297
36850,272
36851,241
36852,222
36853,231
36854,265
36855,299
36855,342
36856,356
36857,365
36858,391
36859,405
36860,390
36861,374
36862,392
36864,427
36865,471
36866,489
36867,481
36868,448
36874,448
36875,390
36875,354
36876,364
36876,361
36877,359
36877,380
36878,406
36878,445
36879,469
36879,465
36880,461
36880,437
36881,445
36882,461
36883,488
36884,517
36885,511
36886,515
36887,482
36888,417
36888,388
36889,395
36890,392
36891,360
36892,339
36893,347
36894,361
36895,397
36896,400
36904,405
36904,412
36905,414
36905,417
36907,412
36907,418
36908,418
36908,429
36909,448
36909,441
36910,453
36910,469
36911,472
36912,469
36912,461
36913,465
36914,468
36915,452
36916,473
36917,490
36918,498
36919,512
36920,511
36921,486
36922,450
36922,447
36923,469
36924,479
36925,501
36926,514
36933,514
36933,512
36934,489
36934,476
36935,475
36935,471
36936,462
36936,461
36937,470
36937,511
36938,516
36938,528
36939,527
36940,500
36941,467
36942,440
36942,445
36943,463
36944,485
36945,511
36946,523
36947,520
36948,508
36950,506
36951,487
36952,468
36953,471
36954,497
36955,510
36955,524
36963,511
36964,490
36964,482
36965,472
36965,460
36966,449
36966,470
36967,511
36967,528
36968,546
36968,540
36969,536
36969,513
36970,504
36971,496
36972,487
36973,483
36974,491
36975,514
36976,546
36976,546
36977,542
36978,526
36979,521
36980,510
36981,490
36982,490
36983,491
36984,498
36985,536
36993,536
36993,557
36993,567
36994,562
36995,551
36995,525
36996,493
36996,485
36997,511
36997,533
36998,550
36998,530
36999,533
36999,534
37000,535
37001,534
37002,520
37003,511
37004,517
37005,533
37006,551
37007,549
37008,552
37009,546
37009,551
37010,555
37011,549
37012,542
37013,543
37014,543
37022,559
37022,552
37023,551
37023,563
37024,560
37024,547
37025,544
37025,565
37026,583
37026,586
37027,584
37027,576
37028,582
37029,589
37030,603
37030,599
37031,588
37032,580
37033,581
37035,588
37036,596
37037,560
37038,541
37039,532
37040,535
37041,535
37042,535
37043,545
37043,554
37044,561
37051,561
37052,570
37052,576
37053,568
37053,557
37054,549
37054,538
37055,517
37055,501
37056,510
37056,537
37057,578
37057,583
37058,603
37059,613
37060,594
37061,544
37062,521
37063,523
37063,536
37064,553
37065,569
37066,555
37067,529
37068,511
37069,493
37070,488
37071,513
37072,523
37073,554
37082,577
37082,582
37082,555
37083,543
37084,529
37084,519
37085,493
37085,476
37086,470
37086,469
37087,478
37087,499
37088,495
37088,478
37089,452
37090,440
37091,430
37092,434
37093,444
37094,459
37095,467
37096,474
37097,478
37097,479
37098,471
37099,453
37100,430
37101,412
37102,408
37103,405
37110,405
37110,410
37111,413
37111,402
37112,401
37112,408
37113,417
37113,418
37114,411
37114,416
37115,418
37115,429
37116,436
37117,422
37117,406
37118,404
37120,418
37121,400
37122,383
37123,390
37124,393
37125,395
37126,412
37127,417
37128,395
37129,385
37130,393
37130,395
37131,384
37132,383
37140,388
37141,403
37141,413
37142,404
37142,397
37143,390
37143,374
37144,339
37144,318
37145,329
37145,349
37146,400
37146,433
37147,442
37148,430
37149,417
37150,402
37151,387
37151,376
37152,377
37153,385
37154,398
37155,403
37156,401
37157,402
37158,405
37159,404
37160,406
37161,417
37163,437
37169,437
37170,441
37170,445
37171,434
37171,415
37172,440
37172,448
37173,425
37173,400
37174,388
37174,402
37175,431
37175,461
37176,443
37177,430
37178,441
37179,446
37180,447
37181,435
37182,424
37183,423
37184,435
37184,454
37185,456
37186,454
37187,449
37188,439
37189,424
37190,407
37191,414
37199,453
37199,473
37200,471
37200,449
37201,453
37201,459
37202,451
37202,435
37203,407
37203,404
37204,427
37204,462
37206,512
37207,526
37207,512
37208,494
37209,476
37210,477
37211,463
37212,424
37213,429
37214,449
37215,482
37216,496
37217,518
37218,529
37218,514
37219,472
37220,410
37221,382
37228,382
37228,394
37229,426
37229,469
37230,473
37230,478
37231,467
37231,462
37232,469
37232,449
37233,442
37234,451
37234,477
37235,501
37236,487
37237,458
37238,440
37238,441
37239,445
37240,435
37241,438
37242,450
37243,457
37244,488
37245,499
37246,495
37248,470
37249,464
37250,455
37251,450
37258,462
37259,473
37259,481
37260,503
37260,487
37261,490
37261,503
37262,485
37262,467
37263,453
37263,452
37264,454
37264,457
37265,496
37266,509
37267,504
37268,502
37269,486
37270,460
37271,436
37272,424
37272,448
37273,477
37274,503
37275,485
37276,477
37277,486
37278,483
37279,467
37280,457
37287,457
37287,457
37288,478
37288,506
37289,530
37289,501
37291,465
37291,439
37292,438
37292,436
37293,428
37293,417
37294,416
37295,428
37295,453
37296,463
37297,486
37298,513
37299,522
37300,497
37301,483
37302,484
37303,484
37304,488
37305,515
37305,515
37306,511
37307,506
37308,498
37309,486
37317,471
37317,464
37318,464
37318,467
37319,488
37319,477
37320,477
37320,465
37321,455
37321,439
37322,430
37322,445
37323,465
37324,494
37325,512
37326,510
37326,508
37327,495
37328,482
37329,478
37330,469
37331,480
37332,491
37334,488
37335,486
37336,471
37337,474
37338,489
37339,485
37340,469
37346,469
37347,449
37347,443
37348,471
37348,465
37349,470
37349,475
37350,491
37350,504
37351,502
37351,485
37352,475
37352,476
37353,481
37354,486
37355,497
37356,486
37357,476
37358,472
37359,473
37360,458
37360,448
37361,457
37362,464
37363,472
37364,496
37365,499
37366,505
37367,521
37368,514
37377,484
37377,456
37377,452
37378,470
37379,489
37379,499
37380,503
37380,497
37381,472
37381,461
37382,481
37382,485
37383,494
37383,484
37384,461
37385,462
37386,479
37387,483
37388,480
37389,474
37390,467
37391,460
37392,471
37393,501
37393,519
37394,527
37395,521
37396,511
37397,493
37398,483
37405,483
37405,481
37406,464
37406,446
37407,446
37407,460
37408,484
37408,486
37409,482
37409,474
37410,486
37410,488
37411,487
37412,495
37413,493
37414,503
37414,518
37415,531
37416,533
37417,509
37419,485
37420,456
37421,438
37422,447
37423,451
37424,473
37425,484
37426,489
37426,488
37427,482
37435,485
37436,472
37436,486
37437,497
37437,488
37438,502
37438,500
37439,497
37439,497
37440,495
37440,479
37441,453
37441,450
37442,470
37443,491
37444,517
37445,528
37446,517
37447,494
37447,468
37448,462
37449,461
37450,460
37451,474
37452,476
37453,508
37454,508
37455,483
37456,469
37457,455
37465,455
37465,448
37465,440
37466,445
37467,438
37467,437
37468,463
37468,482
37469,494
37469,479
37470,473
37470,480
37471,478
37471,477
37472,500
37473,537
37474,548
37475,531
37476,512
37477,487
37478,467
37479,470
37480,468
37481,466
37481,468
37482,466
37483,489
37484,496
37485,492
37486,476
37494,469
37494,467
37495,476
37495,484
37496,511
37496,524
37497,541
37497,521
37498,508
37498,506
37499,503
37499,497
37500,484
37501,473
37502,483
37502,494
37504,508
37505,503
37506,507
37507,490
37508,470
37509,470
37510,467
37511,467
37512,464
37513,470
37514,498
37514,489
37515,487
37516,486
37523,486
37524,495
37524,491
37525,479
37525,481
37526,488
37526,479
37527,496
37527,499
37528,513
37528,510
37529,502
37529,498
37530,499
37531,505
37532,509
37533,494
37534,498
37535,488
37535,501
37536,504
37537,511
37538,507
37539,499
37540,505
37541,513
37542,512
37543,525
37544,522
37545,513
37553,519
37554,541
37554,533
37555,498
37555,486
37556,491
37556,504
37557,533
37557,514
37558,505
37558,497
37559,493
37559,482
37560,465
37561,464
37562,472
37563,483
37564,516
37565,521
37566,513
37567,518
37568,510
37568,494
37569,482
37570,488
37571,508
37572,504
37573,506
37574,493
37575,501
37582,501
37582,508
37583,513
37583,505
37584,493
37584,519
37585,537
37585,534
37586,542
37586,551
37587,534
37587,511
37588,491
37590,485
37590,496
37591,504
37592,518
37593,525
37594,539
37595,534
37596,539
37597,539
37598,544
37599,545
37600,533
37601,527
37601,523
37602,525
37603,546
37604,558
37612,547
37612,531
37613,517
37613,501
37614,488
37614,489
37615,488
37615,494
37616,511
37617,509
37617,509
37618,501
37618,500
37619,482
37620,459
37621,464
37622,465
37622,471
37623,500
37624,511
37625,529
37626,532
37627,517
37628,502
37629,496
37630,492
37632,481
37633,473
37634,464
37635,456
37641,456
37642,464
37642,478
37643,486
37643,471
37644,465
37644,466
37645,450
37645,443
37646,459
37646,477
37647,484
37647,480
37648,470
37649,447
37650,431
37651,450
37652,471
37653,474
37654,470
37655,458
37656,467
37656,472
37657,475
37658,467
37659,458
37660,457
37661,462
37662,467
37663,478
37671,494
37671,507
37672,505
37672,503
37673,499
37673,490
37675,479
37675,471
37676,488
37676,496
37677,485
37677,475
37678,467
37679,454
37679,427
37680,418
37681,424
37682,444
37683,469
37684,501
37685,504
37686,500
37687,490
37688,463
37689,436
37689,424
37690,454
37691,476
37692,516
37693,532
37700,532
37700,506
37701,492
37701,491
37702,493
37702,484
37703,489
37703,507
37704,530
37704,570
37705,609
37705,635
37706,635
37707,630
37708,647
37709,659
37710,685
37710,722
37711,765
37712,812
37713,839
37714,873
37715,922
37716,958
37718,970
37719,982
37720,990
37721,989
37722,989
37723,988
37730,988
37731,988
37731,988
37732,989
37732,990
37733,990
37733,911
37734,845
37734,779
37735,717
37735,638
37736,557
37736,485
37737,427
37738,375
37739,328
37740,309
37741,295
37742,276
37743,283
37744,279
37744,276
37745,280
37746,293
37747,300
37748,300
37749,320
37750,362
37751,382
37752,400
37760,400
37760,393
37760,395
37761,407
37762,401
37762,391
37763,367
37763,324
37764,299
37764,302
37765,344
37765,353
37766,371
37766,377
37767,376
37768,376
37769,379
37770,390
37771,409
37772,418
37773,439
37774,425
37775,428
37776,443
37776,443
37777,428
37778,414
37779,414
37780,415
37781,421
37789,442
37789,434
37790,427
37790,403
37791,389
37791,377
37792,360
37792,353
37793,365
37793,382
37794,414
37794,402
37795,405
37796,401
37797,389
37798,372
37798,348
37799,339
37800,354
37801,393
37803,439
37804,449
37805,466
37806,499
37807,528
37808,547
37809,545
37810,538
37810,543
37811,554
37818,554
37819,584
37819,568
37820,551
37820,518
37821,488
37821,451
37822,416
37822,419
37823,438
37823,437
37824,447
37824,446
37825,457
37826,472
37827,489
37828,496
37829,495
37830,494
37831,522
37831,552
37832,579
37833,580
37834,602
37835,620
37836,644
37837,644
37838,594
37839,553
37840,534
37849,539
37849,581
37849,591
37850,584
37851,565
37851,547
37852,504
37852,460
37853,430
37853,420
37854,414
37854,412
37855,385
37855,374
37856,355
37857,363
37858,375
37859,400
37860,437
37861,466
37862,482
37863,507
37864,515
37865,521
37865,516
37866,504
37867,482
37868,478
37869,497
37870,519
37877,519
37877,536
37878,550
37878,535
37879,527
37879,512
37880,509
37880,507
37881,505
37881,504
37882,514
37882,538
37883,541
37884,528
37885,507
37885,501
37886,498
37888,474
37889,483
37890,532
37891,579
37892,612
37893,642
37894,649
37895,663
37896,662
37897,604
37897,565
37898,505
37899,385
37907,299
37908,268
37908,280
37909,289
37909,303
37910,352
37910,376
37911,363
37911,346
37912,342
37912,343
37913,338
37913,355
37914,388
37915,438
37916,480
37917,522
37918,587
37919,639
37919,713
37920,753
37921,771
37922,779
37923,766
37924,779
37925,783
37926,739
37927,686
37928,676
37929,674
37936,674
37937,672
37937,675
37938,662
37938,649
37939,643
37939,634
37940,617
37940,598
37941,586
37941,591
37942,608
37942,620
37943,625
37944,616
37945,600
37946,590
37947,586
37948,578
37949,570
37950,580
37951,591
37952,596
37952,585
37953,564
37954,555
37955,554
37956,554
37957,541
37958,530
37966,517
37966,508
37967,529
37967,550
37968,554
37968,545
37969,533
37969,529
37970,524
37970,525
37971,530
37971,524
37972,510
37974,514
37974,523
37975,530
37976,518
37977,515
37978,511
37979,506
37980,513
37981,502
37982,478
37983,437
37984,402
37985,366
37985,349
37986,338
37987,317
37988,314
37995,314
37996,325
37996,334
37997,361
37997,378
37998,354
37998,346
37999,371
37999,395
38000,373
38000,343
38001,349
38001,369
38002,429
38003,460
38004,465
38005,425
38006,398
38006,426
38007,435
38008,416
38009,414
38010,435
38011,487
38012,502
38013,509
38014,502
38016,472
38017,438
38018,408
38025,406
38026,414
38026,404
38027,380
38027,321
38028,291
38028,330
38029,382
38029,390
38030,347
38030,297
38031,261
38031,244
38032,245
38033,234
38034,211
38035,209
38036,214
38037,235
38038,249
38039,291
38040,329
38040,341
38041,367
38042,410
38043,462
38044,473
38045,480
38046,478
38047,463
38054,463
38054,446
38055,470
38055,501
38056,509
38056,484
38057,475
38057,474
38059,486
38059,478
38060,460
38060,455
38061,449
38062,405
38062,392
38063,369
38064,357
38065,383
38066,406
38067,426
38068,414
38069,419
38070,461
38071,472
38072,503
38072,479
38073,464
38074,466
38075,463
38076,468
38084,485
38084,525
38085,555
38085,548
38086,528
38086,480
38087,445
38087,400
38088,379
38088,372
38089,382
38089,393
38090,424
38091,434
38092,465
38093,471
38094,469
38094,459
38095,463
38096,459
38097,450
38098,480
38099,531
38100,546
38102,541
38103,516
38104,512
38105,483
38106,412
38107,349
38113,349
38114,317
38114,312
38115,327
38115,346
38116,375
38116,383
38117,386
38117,400
38118,411
38118,401
38119,381
38119,364
38120,384
38121,397
38122,406
38123,393
38124,385
38125,365
38126,349
38127,351
38127,382
38128,424
38129,449
38130,448
38131,470
38132,508
38133,567
38134,592
38135,578
38144,541
38144,496
38144,483
38145,485
38146,500
38146,512
38147,471
38147,419
38148,377
38148,376
38149,371
38149,345
38150,344
38150,354
38151,398
38152,453
38153,481
38154,468
38155,421
38156,396
38157,431
38158,441
38159,450
38160,462
38161,489
38161,505
38162,483
38163,487
38164,486
38165,474
38172,474
38172,449
38173,449
38173,498
38174,529
38174,523
38175,516
38175,471
38176,423
38176,409
38177,417
38177,436
38178,446
38179,454
38180,465
38181,456
38181,459
38182,483
38183,512
38184,512
38185,518
38187,502
38188,465
38189,470
38190,499
38191,511
38192,508
38193,490
38193,485
38194,480
38202,452
38203,392
38203,354
38204,361
38204,373
38205,384
38205,411
38206,409
38206,429
38207,483
38207,518
38208,525
38208,528
38209,522
38210,498
38211,475
38212,457
38213,434
38214,412
38215,373
38215,321
38216,309
38217,348
38218,400
38219,446
38220,484
38221,530
38222,548
38223,546
38224,564
38232,564
38232,573
38232,558
38233,558
38234,580
38234,584
38235,597
38235,585
38236,565
38236,571
38237,546
38237,525
38238,524
38238,508
38239,485
38240,425
38241,392
38242,380
38243,376
38244,376
38245,355
38246,302
38247,271
38248,262
38248,283
38249,309
38250,362
38251,425
38252,448
38253,466
38261,491
38261,458
38262,389
38262,381
38263,396
38263,381
38264,379
38264,380
38265,401
38265,395
38266,398
38266,401
38267,395
38268,405
38269,422
38269,469
38270,514
38272,520
38273,535
38274,539
38275,543
38276,518
38277,473
38278,456
38279,458
38280,479
38281,526
38282,537
38282,537
38283,526
38290,526
38291,520
38291,511
38292,485
38292,471
38293,495
38293,554
38294,625
38294,641
38295,634
38295,618
38296,627
38296,634
38297,607
38298,527
38299,448
38300,419
38301,392
38302,374
38302,368
38303,338
38304,332
38305,302
38306,273
38307,330
38308,465
38309,603
38310,754
38311,792
38312,805
38320,803
38321,758
38321,685
38322,545
38322,422
38323,333
38323,318
38324,403
38324,440
38325,457
38325,451
38326,443
38326,442
38327,405
38328,363
38329,396
38330,418
38331,439
38332,422
38333,403
38334,370
38335,339
38336,304
38336,266
38337,251
38338,269
38339,292
38340,316
38341,317
38342,345
38349,345
38349,392
38350,449
38350,512
38351,512
38351,524
38352,562
38352,587
38353,621
38353,609
38354,555
38354,502
38355,460
38356,416
38356,371
38358,365
38359,385
38360,398
38361,409
38362,381
38363,371
38364,374
38365,424
38366,476
38367,501
38368,508
38369,526
38369,571
38370,638
38371,638
38379,651
38380,670
38380,715
38381,744
38381,764
38382,802
38382,806
38383,771
38383,750
38384,689
38384,598
38385,563
38385,596
38386,599
38387,562
38388,514
38389,463
38390,420
38390,426
38391,398
38392,362
38393,331
38394,320
38395,318
38396,311
38397,294
38398,288
38400,294
38401,328
38402,340
38408,340
38409,366
38409,403
38410,471
38410,533
38411,549
38411,542
38412,538
38412,511
38413,488
38413,452
38414,418
38414,405
38415,409
38416,399
38417,389
38418,393
38419,398
38420,414
38421,441
38422,445
38423,447
38423,457
38424,469
38425,476
38426,508
38427,601
38428,676
38429,712
38430,739
38438,741
38438,732
38439,722
38439,683
38440,621
38440,574
38441,544
38441,522
38443,508
38443,513
38444,517
38444,522
38445,512
38446,494
38446,469
38447,457
38448,476
38449,504
38450,527
38451,556
38452,558
38453,546
38454,524
38455,506
38456,482
38456,460
38457,459
38458,475
38459,489
38460,521
38467,521
38467,525
38468,520
38468,521
38469,523
38469,507
38470,480
38470,499
38471,536
38471,554
38472,548
38472,527
38473,509
38474,492
38475,491
38476,475
38477,452
38477,443
38478,450
38479,460
38480,468
38481,463
38482,461
38483,463
38484,466
38486,453
38487,436
38488,448
38489,471
38490,495
38497,500
38498,480
38498,490
38499,513
38499,508
38500,481
38500,459
38501,464
38501,466
38502,471
38502,475
38503,476
38503,472
38504,458
38505,451
38506,441
38507,433
38508,444
38509,457
38510,478
38511,498
38511,509
38512,517
38513,516
38514,516
38515,512
38516,502
38517,481
38518,463
38519,469
38526,469
38526,486
38526,487
38528,492
38529,478
38529,478
38530,465
38530,464
38531,477
38531,497
38532,517
38532,506
38533,495
38534,499
38534,501
38535,482
38536,461
38537,456
38538,476
38539,515
38540,569
38541,581
38542,582
38543,561
38544,532
38544,514
38545,503
38546,488
38547,514
38548,549
38556,598
38556,604
38557,617
38557,645
38558,672
38558,680
38559,676
38559,651
38560,671
38560,714
38561,766
38561,785
38562,780
38563,741
38564,722
38565,735
38565,751
38566,818
38567,917
38568,962
38569,977
38571,990
38572,990
38573,989
38574,989
38575,989
38576,989
38577,989
38577,989
38578,989
38585,989
38586,989
38586,989
38587,987
38587,931
38588,833
38588,713
38589,565
38589,432
38590,399
38590,469
38591,481
38591,416
38592,386
38593,364
38594,350
38595,275
38596,205
38597,200
38598,222
38598,246
38599,291
38600,367
38601,483
38602,432
38603,336
38604,334
38605,349
38606,369
38607,393
38616,404
38616,414
38616,424
38617,403
38618,436
38618,476
38619,497
38619,461
38620,440
38620,408
38621,313
38621,224
38622,254
38622,316
38623,441
38624,498
38625,548
38626,554
38627,390
38628,368
38629,419
38630,477
38631,541
38632,516
38632,415
38633,357
38634,362
38635,384
38636,417
38637,427
38644,427
38644,405
38645,442
38645,486
38646,511
38646,530
38647,604
38647,581
38648,662
38648,712
38649,620
38649,564
38650,598
38651,545
38652,560
38652,659
38653,599
38654,512
38656,461
38657,371
38658,379
38659,416
38660,454
38661,504
38662,494
38663,482
38664,475
38665,455
38665,392
38666,400
38674,439
38675,448
38675,550
38676,564
38676,496
38677,486
38677,487
38678,491
38678,512
38679,504
38679,466
38680,462
38680,511
38681,527
38682,567
38683,633
38684,685
38685,685
38686,622
38686,536
38687,425
38688,386
38689,389
38690,371
38691,369
38692,398
38693,435
38694,456
38695,454
38696,462
38704,462
38704,460
38704,440
38705,447
38705,453
38706,453
38706,453
38707,454
38707,446
38708,429
38708,440
38709,450
38709,466
38710,489
38711,493
38712,502
38713,503
38714,509
38715,495
38716,467
38717,481
38718,501
38719,515
38719,511
38720,503
38721,494
38722,478
38723,486
38724,518
38725,474
38733,496
38733,520
38734,514
38734,519
38735,523
38735,552
38736,565
38736,604
38737,641
38737,543
38738,438
38738,394
38739,467
38740,541
38740,511
38742,514
38743,551
38744,562
38745,528
38746,492
38747,500
38748,514
38749,528
38750,544
38751,549
38752,565
38752,590
38753,583
38754,527
38755,485
38762,485
38763,528
38763,565
38764,550
38764,559
38765,573
38765,572
38766,569
38766,580
38767,571
38767,569
38768,593
38768,602
38769,592
38770,565
38771,552
38772,549
38773,531
38773,535
38774,525
38775,523
38776,553
38777,568
38778,565
38779,560
38780,559
38781,568
38782,556
38784,544
38785,541
38792,546
38793,576
38793,582
38794,614
38794,632
38795,611
38795,594
38796,584
38796,582
38797,566
38797,565
38798,563
38798,569
38799,581
38800,586
38801,569
38802,556
38803,551
38804,530
38805,509
38806,524
38807,541
38807,539
38808,575
38809,587
38810,588
38811,577
38812,557
38813,535
38814,511
38821,511
38821,500
38822,523
38822,524
38823,530
38823,540
38824,506
38824,484
38825,477
38825,478
38827,495
38827,511
38828,497
38829,475
38829,472
38830,478
38831,510
38832,524
38833,493
38834,468
38835,443
38836,447
38837,451
38838,438
38839,454
38840,453
38840,454
38841,429
38842,419
38843,411
38851,392
38851,387
38852,404
38852,423
38853,468
38853,467
38854,483
38854,530
38855,523
38855,451
38856,348
38856,319
38857,336
38858,347
38859,365
38860,351
38861,373
38861,388
38862,353
38863,346
38864,343
38865,337
38866,344
38867,373
38868,398
38870,389
38871,377
38872,381
38873,392
38874,381
38880,381
38881,396
38881,427
38882,467
38882,450
38883,410
38883,358
38884,358
38884,357
38885,367
38885,367
38886,363
38886,349
38887,366
38888,357
38889,356
38890,368
38891,411
38892,425
38893,404
38894,362
38894,340
38895,342
38896,373
38897,405
38898,437
38899,429
38900,405
38901,372
38902,386
38910,388
38910,371
38910,374
38912,388
38913,394
38913,404
38914,395
38914,407
38915,411
38915,411
38916,402
38916,387
38917,385
38918,395
38918,406
38919,430
38920,440
38921,452
38922,461
38923,457
38924,421
38925,411
38926,380
38927,391
38928,424
38928,448
38929,428
38930,407
38931,400
38932,400
38939,400
38939,425
38940,427
38940,432
38941,428
38941,400
38942,422
38942,476
38943,457
38943,421
38944,399
38944,383
38945,372
38946,394
38947,429
38948,453
38948,494
38949,503
38950,492
38951,476
38952,459
38953,430
38955,378
38956,383
38957,416
38958,435
38959,466
38960,466
38961,451
38961,448
38969,449
38970,444
38970,431
38971,435
38971,444
38972,454
38972,467
38973,467
38973,468
38974,473
38974,485
38975,478
38975,471
38976,456
38977,444
38978,438
38979,432
38980,426
38981,435
38982,458
38982,481
38983,479
38984,475
38985,481
38986,467
38987,456
38988,459
38989,422
38990,436
38991,449
38999,449
38999,462
38999,465
39000,473
39001,485
39001,521
39002,519
39002,560
39003,547
39003,487
39004,474
39004,473
39005,458
39005,410
39006,424
39007,434
39008,436
39009,448
39010,454
39011,454
39012,457
39013,460
39014,448
39015,439
39015,456
39016,450
39017,450
39018,458
39019,484
39020,500
39028,488
39028,479
39029,475
39029,468
39030,488
39030,489
39031,472
39031,459
39032,453
39032,462
39033,470
39033,484
39034,474
39035,456
39036,441
39036,435
39037,449
39038,482
39040,476
39041,449
39042,431
39043,429
39044,431
39045,431
39046,442
39047,454
39048,478
39049,495
39049,508
39050,516
39057,516
39058,506
39058,493
39059,476
39059,444
39060,433
39060,437
39061,462
39061,479
39062,498
39062,495
39063,485
39063,462
39064,433
39065,438
39066,473
39067,480
39068,489
39069,503
39069,514
39070,503
39071,468
39072,469
39073,473
39074,467
39075,453
39076,450
39077,470
39078,474
39079,477
39088,463
39088,479
39088,494
39089,503
39089,499
39090,506
39090,479
39091,497
39091,496
39092,475
39092,476
39093,484
39094,488
39094,481
39095,489
39096,516
39097,558
39098,639
39099,597
39100,504
39101,408
39102,401
39103,435
39103,442
39104,463
39105,457
39106,430
39107,453
39108,445
39109,451
39116,451
39116,450
39117,454
39117,453
39118,444
39118,444
39119,445
39119,444
39120,483
39120,516
39121,530
39121,490
39122,474
39123,471
39123,444
39124,447
39126,494
39127,536
39128,575
39129,547
39130,496
39131,475
39132,467
39133,470
39134,469
39135,466
39136,470
39136,473
39137,485
39138,485
39146,494
39147,494
39147,496
39148,492
39148,475
39149,486
39149,493
39150,504
39150,548
39151,585
39151,578
39152,517
39152,505
39153,437
39154,434
39155,400
39156,390
39157,423
39157,457
39158,474
39159,477
39160,461
39161,459
39162,462
39163,457
39164,475
39165,509
39166,516
39168,519
39169,502
39175,502
39176,513
39176,541
39177,556
39177,564
39178,523
39178,479
39179,451
39179,472
39180,532
39180,541
39181,491
39181,464
39182,476
39183,468
39184,453
39185,432
39186,441
39187,463
39188,477
39189,473
39190,483
39190,495
39191,477
39192,442
39193,437
39194,449
39195,452
39196,488
39197,496
39205,504
39205,524
39206,518
39206,523
39207,521
39207,500
39208,442
39208,461
39209,475
39209,518
39211,500
39211,490
39212,497
39213,467
39213,450
39214,433
39215,439
39216,482
39217,525
39218,505
39219,504
39220,494
39221,457
39222,466
39223,451
39224,452
39224,468
39225,479
39226,486
39227,497
39234,497
39234,489
39235,484
39235,489
39236,495
39236,489
39237,478
39237,467
39238,474
39238,487
39239,514
39239,535
39240,539
39241,515
39242,527
39243,507
39244,446
39244,449
39245,469
39246,499
39247,516
39248,494
39249,492
39250,493
39251,506
39252,504
39254,488
39255,482
39256,486
39257,489
39264,503
39265,514
39265,509
39266,486
39266,462
39267,454
39267,465
39268,489
39268,509
39269,531
39269,530
39270,512
39270,506
39271,521
39272,541
39273,531
39274,520
39275,501
39276,463
39277,471
39278,498
39278,512
39279,503
39280,499
39281,496
39282,484
39283,479
39284,486
39285,504
39286,523
39293,523
39293,525
39294,541
39294,508
39296,441
39296,438
39297,427
39297,462
39298,496
39298,559
39299,557
39299,485
39300,447
39301,458
39301,478
39302,486
39303,475
39304,480
39305,501
39306,514
39307,543
39308,569
39309,568
39310,512
39311,461
39311,460
39312,472
39313,472
39314,479
39315,499
39323,529
39323,533
39324,540
39324,545
39325,541
39325,521
39326,505
39326,495
39327,517
39327,543
39328,588
39328,571
39329,563
39330,555
39331,539
39332,549
39332,522
39333,501
39334,498
39335,505
39336,525
39337,531
39339,543
39340,540
39341,535
39342,518
39343,513
39344,512
39345,529
39345,532
39352,532
39353,550
39353,544
39354,546
39354,529
39355,513
39355,495
39356,483
39356,471
39357,479
39357,473
39358,490
39358,487
39359,492
39360,492
39361,482
39362,468
39363,454
39364,453
39365,468
39366,477
39366,495
39367,478
39368,476
39369,475
39370,487
39371,473
39372,432
39373,426
39374,441
39383,451
39383,473
39383,475
39384,489
39385,497
39385,500
39386,507
39386,488
39387,451
39387,440
39388,423
39388,438
39389,465
39389,497
39390,509
39391,507
39392,486
39393,473
39394,473
39395,476
39396,466
39397,483
39398,479
39399,470
39399,470
39400,486
39401,492
39402,477
39403,472
39404,479
39411,479
39411,482
39412,515
39412,511
39413,497
39413,481
39414,471
39414,461
39415,474
39415,476
39416,456
39416,470
39417,517
39418,528
39419,531
39419,492
39420,475
39421,465
39422,461
39424,463
39425,483
39426,495
39427,519
39428,513
39429,504
39430,498
39431,488
39432,465
39432,454
39433,470
39441,495
39442,507
39442,539
39443,555
39443,566
39444,564
39444,563
39445,585
39445,600
39446,651
39446,679
39447,706
39447,742
39448,749
39449,769
39450,786
39451,808
39452,802
39453,796
39453,855
39454,933
39455,980
39456,990
39457,989
39458,989
39459,989
39460,989
39461,989
39462,989
39463,989
39471,989
39471,988
39471,989
39472,990
39473,928
39473,860
39474,792
39474,713
39475,609
39475,525
39476,469
39476,415
39477,366
39477,358
39478,339
39479,320
39480,299
39481,280
39482,265
39483,274
39484,296
39485,293
39486,307
39487,325
39487,321
39488,337
39489,353
39490,351
39491,370
39492,364
39500,361
39500,368
39501,390
39501,433
39502,428
39502,427
39503,439
39503,419
39504,398
39504,395
39505,388
39505,393
39506,411
39507,421
39508,412
39508,410
39510,419
39511,417
39512,394
39513,388
39514,402
39515,422
39516,437
39517,477
39518,474
39519,442
39520,431
39520,426
39521,416
39522,419
39529,419
39530,421
39530,435
39531,439
39531,441
39532,442
39532,464
39533,475
39533,455
39534,415
39534,394
39535,409
39535,425
39536,458
39537,483
39538,485
39539,486
39540,493
39540,462
39541,414
39542,399
39543,431
39544,462
39545,490
39546,499
39547,499
39548,503
39549,499
39550,475
39552,439
39559,441
39560,462
39560,462
39561,480
39561,493
39562,506
39562,490
39563,475
39563,425
39564,431
39564,458
39565,499
39565,501
39566,494
39567,461
39568,463
39569,488
39570,512
39571,497
39572,464
39573,455
39574,467
39574,471
39575,488
39576,498
39577,501
39578,510
39579,516
39580,521
39581,516
39588,516
39588,481
39589,478
39589,499
39590,529
39590,526
39591,524
39591,517
39592,510
39592,509
39593,492
39593,505
39595,548
39596,581
39596,594
39597,525
39598,483
39599,480
39600,487
39601,489
39602,481
39603,493
39604,505
39605,492
39606,520
39607,528
39607,544
39608,560
39609,549
39610,513
39618,491
39618,489
39619,492
39619,510
39620,547
39620,534
39621,548
39621,568
39622,563
39622,546
39623,529
39623,524
39624,549
39625,537
39626,571
39627,570
39628,536
39629,512
39629,537
39630,525
39631,499
39632,507
39633,525
39634,539
39635,566
39636,574
39638,578
39639,578
39640,562
39641,557
39647,557
39648,551
39648,547
39649,550
39649,552
39650,573
39650,583
39651,582
39651,580
39652,578
39652,560
39653,545
39653,554
39654,562
39655,577
39656,602
39657,614
39658,593
39659,571
39660,570
39661,561
39662,565
39662,582
39663,566
39664,551
39665,591
39666,602
39667,597
39668,596
39669,599
39677,600
39677,594
39678,595
39678,593
39680,595
39680,638
39681,639
39681,601
39682,575
39682,570
39683,562
39683,553
39684,543
39685,563
39685,573
39686,583
39687,580
39688,582
39689,589
39690,585
39691,574
39692,564
39693,574
39694,570
39695,555
39695,585
39696,590
39697,569
39698,541
39699,528
39706,528
39706,522
39707,518
39707,528
39708,537
39708,546
39709,562
39709,548
39710,558
39710,573
39711,556
39711,485
39712,444
39713,465
39714,502
39715,513
39715,513
39716,500
39717,509
39718,510
39719,500
39720,478
39721,463
39723,461
39724,460
39725,479
39726,497
39727,485
39728,479
39729,475
39736,462
39737,446
39737,441
39738,451
39738,444
39739,440
39739,458
39740,446
39740,430
39741,421
39741,405
39742,397
39742,398
39743,410
39744,437
39745,443
39746,426
39747,389
39748,377
39749,379
39750,399
39750,405
39751,403
39752,425
39753,425
39754,414
39755,388
39756,353
39757,383
39758,424
39766,424
39766,425
39766,411
39767,388
39768,377
39768,386
39769,421
39769,446
39770,445
39770,416
39771,403
39771,398
39772,377
39772,367
39773,366
39774,372
39775,373
39776,380
39777,383
39778,389
39779,424
39780,444
39781,425
39782,382
39783,363
39783,355
39784,361
39785,368
39786,384
39787,415
39795,410
39795,410
39796,386
39796,373
39797,392
39797,405
39798,412
39798,421
39799,435
39799,432
39800,435
39800,420
39801,383
39802,369
39803,391
39804,409
39804,432
39805,436
39806,437
39808,448
39809,453
39810,437
39811,410
39812,398
39813,410
39814,418
39815,440
39816,454
39816,448
39817,453
39824,453
39825,463
39825,451
39826,438
39826,432
39827,432
39827,427
39828,435
39828,426
39829,430
39829,444
39830,449
39830,448
39831,423
39832,411
39833,415
39834,422
39835,455
39836,464
39836,477
39837,471
39838,455
39839,446
39840,436
39841,436
39842,453
39843,462
39844,492
39845,494
39846,487
39855,479
39855,470
39855,446
39856,418
39857,401
39857,413
39858,442
39858,484
39859,493
39859,492
39860,481
39860,470
39861,426
39861,416
39862,434
39863,468
39864,505
39865,563
39866,546
39867,504
39868,464
39869,437
39870,425
39871,402
39871,418
39872,448
39873,455
39874,484
39875,480
39876,479
39883,479
39883,479
39884,485
39884,467
39885,427
39885,438
39886,463
39886,477
39887,505
39887,499
39888,486
39888,475
39889,475
39890,466
39890,446
39891,443
39892,463
39894,494
39895,505
39896,496
39897,488
39898,484
39899,485
39900,481
39901,469
39902,452
39903,450
39903,461
39904,502
39905,510
39913,519
39914,498
39914,474
39915,477
39915,505
39916,519
39916,517
39917,510
39917,502
39918,477
39918,445
39919,439
39919,439
39920,432
39921,419
39922,432
39923,454
39924,472
39925,509
39925,508
39926,516
39927,514
39928,495
39929,468
39930,451
39931,459
39932,473
39933,490
39934,518
39936,524
39942,524
39943,512
39943,492
39944,485
39944,466
39945,429
39945,432
39946,466
39946,507
39947,536
39947,519
39948,524
39948,517
39949,507
39950,470
39951,450
39952,454
39953,464
39954,454
39955,482
39956,486
39957,475
39958,476
39958,467
39959,456
39960,454
39961,452
39962,456
39963,485
39964,514
39972,495
39972,482
39973,474
39973,473
39974,466
39974,462
39975,466
39975,470
39976,483
39976,513
39977,529
39977,519
39979,487
39980,459
39980,435
39981,442
39982,451
39983,463
39984,500
39985,522
39986,536
39987,522
39988,492
39989,478
39990,475
39991,474
39992,482
39992,476
39993,477
39994,493
40001,493
40001,500
40002,508
40002,504
40003,495
40003,483
40004,490
40004,474
40005,469
40005,486
40006,510
40006,511
40007,513
40008,510
40009,498
40010,471
40011,460
40011,476
40012,478
40013,472
40014,490
40015,502
40016,504
40017,498
40018,495
40019,491
40020,487
40022,503
40023,515
40024,518
40031,490
40032,484
40032,499
40033,500
40033,495
40034,478
40034,468
40035,472
40035,459
40036,458
40036,485
40037,508
40037,526
40038,533
40039,516
40040,481
40041,451
40042,470
40043,484
40044,489
40045,498
40046,506
40046,514
40047,509
40048,480
40049,454
40050,441
40051,439
40052,454
40053,482
40060,482
40060,473
40061,488
40061,496
40062,495
40062,499
40064,506
40064,492
40065,489
40065,486
40066,505
40066,502
40067,490
40068,491
40068,503
40069,480
40070,467
40071,459
40072,457
40073,462
40074,503
40075,520
40076,517
40077,499
40078,488
40078,485
40079,486
40080,497
40081,508
40082,482
40090,498
40090,500
40091,520
40091,524
40092,512
40092,489
40093,462
40093,448
40094,454
40094,474
40095,508
40095,518
40096,519
40097,497
40098,487
40099,473
40099,458
40100,466
40101,493
40102,508
40103,549
40104,555
40105,556
40107,549
40108,514
40109,474
40110,447
40111,466
40112,498
40113,529
40119,529
40120,549
40120,515
40121,502
40121,484
40122,475
40122,471
40123,454
40123,452
40124,467
40124,482
40125,492
40125,489
40126,511
40127,528
40128,540
40129,513
40130,482
40131,486
40132,500
40133,505
40133,530
40134,525
40135,521
40136,521
40137,514
40138,500
40139,489
40140,486
40141,506
40150,516
40150,535
40150,533
40151,548
40152,570
40152,557
40153,525
40153,520
40154,531
40154,528
40155,530
40155,542
40156,525
40156,527
40157,541
40158,538
40159,528
40160,508
40161,517
40162,521
40163,503
40164,515
40165,508
40166,507
40167,510
40167,514
40168,508
40169,487
40170,481
40171,484
40178,484
40178,496
40179,516
40179,502
40180,503
40180,500
40181,484
40181,477
40182,467
40182,487
40183,510
40183,526
40184,545
40185,522
40186,510
40187,515
40187,483
40188,456
40189,440
40190,442
40192,444
40193,443
40194,487
40195,486
40196,479
40197,465
40198,464
40199,464
40199,442
40200,417
40208,422
40209,471
40209,532
40210,504
40210,489
40211,478
40211,472
40212,464
40212,447
40213,453
40213,465
40214,482
40214,497
40215,492
40216,480
40217,463
40218,467
40219,477
40220,462
40220,467
40221,477
40222,493
40223,530
40224,510
40225,495
40226,474
40227,462
40228,467
40229,493
40230,519
40238,519
40238,524
40238,483
40239,476
40240,483
40240,472
40241,463
40241,462
40242,468
40242,476
40243,482
40243,496
40244,490
40244,488
40245,478
40246,500
40247,508
40248,508
40249,484
40250,477
40251,482
40252,486
40253,492
40254,517
40254,495
40255,489
40256,499
40257,519
40258,499
40259,477
40267,502
40267,553
40268,589
40268,619
40269,632
40269,643
40270,672
40270,704
40271,706
40271,703
40272,713
40272,738
40273,779
40274,810
40274,835
40275,864
40276,896
40278,914
40279,919
40280,933
40281,962
40282,990
40283,989
40284,989
40285,989
40286,988
40287,989
40287,989
40288,986
40289,924
40296,924
40297,857
40297,780
40298,720
40298,638
40299,551
40299,490
40300,427
40300,379
40301,345
40301,334
40302,327
40302,329
40303,352
40304,337
40305,307
40306,291
40307,291
40308,303
40308,302
40309,304
40310,321
40311,360
40312,392
40313,404
40314,394
40315,392
40316,389
40317,403
40318,391
40326,379
40327,399
40327,394
40328,422
40328,411
40329,389
40329,416
40330,427
40330,413
40331,395
40331,397
40332,419
40332,433
40333,445
40334,455
40335,456
40336,446
40337,431
40338,416
40339,408
40340,410
40341,423
40342,433
40342,463
40343,458
40344,447
40345,434
40346,437
40347,434
40348,425
40355,425
40355,444
40356,469
40356,488
40357,504
40357,482
40358,471
40358,452
40359,428
40359,435
40360,436
40360,441
40361,458
40363,482
40363,519
40364,512
40365,498
40366,500
40367,505
40368,494
40369,474
40370,439
40371,430
40372,442
40373,470
40374,479
40374,495
40375,501
40376,482
40377,456
40385,444
40385,443
40386,459
40386,485
40387,513
40388,495
40388,484
40389,473
40389,478
40390,485
40390,477
40391,477
40391,478
40392,475
40393,494
40394,518
40395,541
40395,527
40396,519
40397,515
40398,492
40399,488
40400,502
40401,517
40402,528
40403,495
40404,483
40406,491
40407,498
40408,497
40414,497
40415,479
40415,514
40416,551
40416,580
40417,548
40417,463
40418,459
40418,460
40419,467
40419,474
40420,472
40420,491
40421,513
40422,527
40423,559
40424,540
40425,528
40426,512
40427,514
40428,504
40429,494
40429,502
40430,512
40431,515
40432,531
40433,542
40434,545
40435,539
40436,515
40444,514
40444,524
40445,535
40445,556
40446,575
40446,565
40448,527
40448,525
40449,524
40449,518
40450,512
40450,505
40451,510
40452,520
40452,534
40453,566
40454,564
40455,556
40456,556
40457,550
40458,531
40459,528
40460,535
40461,553
40462,582
40462,618
40463,618
40464,608
40465,589
40466,555
40473,555
40473,534
40474,521
40474,540
40475,575
40475,585
40476,593
40476,588
40477,573
40477,554
40478,553
40478,557
40479,563
40480,548
40481,543
40482,560
40483,569
40483,577
40484,576
40485,585
40486,594
40487,575
40488,581
40489,600
40491,600
40492,603
40493,610
40494,596
40495,602
40496,597
40503,596
40504,584
40504,561
40505,563
40505,592
40506,625
40506,636
40507,625
40507,637
40508,613
40508,584
40509,532
40509,515
40510,551
40511,571
40512,578
40513,595
40514,597
40515,573
40516,566
40517,545
40517,511
40518,513
40519,542
40520,563
40521,578
40522,572
40523,551
40524,541
40525,533
40532,533
40532,527
40532,520
40534,517
40535,526
40535,522
40536,515
40536,532
40537,535
40537,522
40538,519
40538,499
40539,464
40539,462
40540,478
40541,489
40542,511
40543,506
40544,476
40545,494
40546,508
40547,472
40548,438
40549,429
40550,432
40550,434
40551,460
40552,463
40553,443
40554,431
40562,416
40562,390
40563,383
40563,394
40564,438
40564,455
40565,460
40565,457
40566,415
40566,397
40567,393
40567,392
40568,380
40569,380
40570,387
40571,383
40571,412
40572,418
40573,410
40574,398
40576,393
40577,386
40578,382
40579,395
40580,407
40581,409
40582,427
40583,422
40583,396
40584,391
40591,391
40592,403
40592,401
40593,375
40593,350
40594,347
40594,359
40595,393
40595,407
40596,413
40596,404
40597,380
40597,347
40598,337
40599,353
40600,384
40601,403
40602,425
40603,414
40604,433
40604,446
40605,438
40606,420
40607,387
40608,365
40609,364
40610,378
40611,411
40612,420
40613,421
40622,415
40622,407
40622,412
40623,413
40624,410
40624,425
40625,434
40625,445
40626,444
40626,446
40627,420
40627,404
40628,398
40628,383
40629,382
40630,402
40631,417
40632,447
40633,453
40634,449
40635,429
40636,415
40637,396
40638,392
40638,405
40639,417
40640,429
40641,464
40642,459
40643,464
40650,464
40650,461
40651,449
40651,424
40652,420
40652,429
40653,434
40653,438
40654,446
40654,441
40655,450
40655,453
40656,436
40657,440
40658,435
40658,434
40659,440
40660,438
40662,456
40663,458
40664,471
40665,473
40666,465
40667,458
40668,451
40669,449
40670,456
40671,454
40671,463
40672,471
40680,478
40681,467
40681,423
40682,401
40682,410
40683,405
40683,405
40684,428
40684,464
40685,477
40685,476
40686,475
40686,470
40687,451
40688,438
40689,454
40690,479
40691,502
40692,512
40692,495
40693,476
40694,471
40695,480
40696,478
40697,475
40698,471
40699,489
40700,502
40701,519
40702,504
40709,504
40710,483
40710,462
40711,481
40711,475
40712,462
40712,447
40713,437
40713,461
40714,496
40714,502
40715,498
40715,490
40716,495
40717,480
40718,478
40719,480
40720,461
40721,447
40722,468
40723,472
40724,479
40725,476
40725,476
40726,464
40727,449
40728,458
40729,467
40730,485
40731,505
40739,503
40739,509
40740,495
40740,491
40741,480
40741,452
40742,455
40742,476
40743,491
40743,502
40744,508
40744,514
40745,482
40747,464
40747,470
40748,460
40749,469
40750,477
40751,495
40752,504
40753,504
40754,493
40755,447
40756,448
40757,448
40758,447
40759,439
40759,462
40760,499
40761,526
40768,526
40769,519
40769,498
40770,469
40770,475
40771,469
40771,490
40772,511
40772,487
40773,493
40773,511
40774,486
40774,470
40775,454
40776,458
40777,450
40778,433
40779,448
40779,458
40780,492
40781,523
40782,501
40783,497
40784,488
40785,477
40786,464
40787,457
40788,455
40790,460
40791,487
40798,482
40799,472
40799,481
40800,501
40800,495
40801,471
40801,455
40802,462
40802,477
40803,512
40803,513
40804,489
40804,499
40805,512
40806,504
40807,477
40808,460
40809,466
40810,471
40811,482
40812,491
40813,488
40813,475
40814,459
40815,456
40816,461
40817,454
40818,468
40819,484
40820,513
40827,513
40827,512
40828,496
40828,485
40829,479
40829,475
40830,474
40830,479
40832,489
40832,487
40833,499
40833,513
40834,513
40835,504
40835,483
40836,457
40837,444
40838,466
40839,488
40840,485
40841,504
40842,501
40843,487
40844,490
40845,491
40846,467
40846,435
40847,426
40848,461
40849,465
40857,493
40857,494
40858,496
40858,496
40859,492
40859,475
40860,456
40860,457
40861,476
40861,492
40862,529
40862,530
40863,522
40864,512
40865,503
40866,483
40867,448
40867,420
40868,435
40869,466
40870,492
40871,501
40872,511
40873,502
40875,490
40876,491
40877,493
40878,491
40879,493
40880,496
40886,496
40887,524
40887,513
40888,492
40888,463
40889,461
40889,462
40890,465
40890,472
40891,465
40891,479
40892,509
40892,494
40893,483
40894,479
40895,472
40896,465
40897,475
40898,470
40899,476
40900,486
40900,510
40901,499
40902,507
40903,516
40904,506
40905,488
40906,461
40907,452
40908,468
40916,486
40916,512
40916,514
40918,508
40919,499
40919,483
40920,467
40920,453
40921,458
40921,480
40922,498
40922,533
40923,532
40923,519
40924,507
40925,500
40926,478
40927,456
40928,443
40929,448
40930,463
40931,509
40932,522
40933,510
40934,497
40934,495
40935,489
40936,476
40937,473
40938,489
40945,489
40945,523
40946,564
40946,563
40947,527
40947,462
40948,444
40948,444
40949,442
40949,448
40950,462
40950,480
40951,506
40952,500
40953,479
40954,483
40954,488
40955,474
40956,458
40957,460
40958,470
40960,480
40961,493
40962,491
40963,502
40964,523
40965,519
40966,490
40967,473
40967,474
40975,469
40976,472
40976,492
40977,501
40977,527
40978,521
40978,506
40979,505
40979,509
40980,514
40980,527
40981,535
40981,546
40982,514
40983,488
40984,474
40985,480
40986,490
40987,482
40988,498
40988,535
40989,554
40990,560
40991,553
40992,535
40993,518
40994,521
40995,513
40996,508
40997,527
41005,527
41005,557
41005,567
41006,572
41007,552
41007,527
41008,535
41008,526
41009,489
41009,482
41010,503
41010,520
41011,535
41011,543
41012,524
41013,529
41014,514
41015,510
41016,499
41017,498
41018,516
41019,514
41020,525
41021,532
41021,519
41022,499
41023,476
41024,466
41025,463
41026,468
41034,471
41034,466
41035,491
41035,518
41036,512
41036,474
41037,463
41037,460
41038,440
41038,424
41039,447
41039,469
41040,488
41041,488
41042,489
41042,488
41043,477
41044,475
41046,471
41047,477
41048,492
41049,485
41050,488
41051,496
41052,498
41053,491
41054,488
41055,470
41055,448
41056,448
41063,448
41064,467
41064,482
41065,500
41065,507
41066,509
41066,517
41067,487
41067,451
41068,442
41068,450
41069,467
41069,478
41070,503
41071,499
41072,491
41073,479
41074,471
41075,461
41075,448
41076,452
41077,468
41078,490
41079,517
41080,527
41081,516
41082,503
41083,490
41084,486
41085,462
41093,460
41094,481
41094,514
41095,549
41095,540
41096,503
41096,485
41097,490
41097,493
41098,482
41098,476
41099,484
41099,498
41100,542
41101,536
41102,547
41103,551
41104,512
41105,493
41106,500
41107,534
41108,558
41109,578
41109,625
41110,662
41111,690
41112,694
41113,697
41114,703
41115,718
41122,718
41122,738
41123,769
41123,813
41124,870
41124,869
41125,850
41125,917
41126,963
41126,990
41127,990
41127,989
41128,989
41129,989
41129,988
41131,988
41132,989
41133,989
41134,989
41135,990
41136,923
41137,864
41138,790
41139,705
41140,625
41141,519
41142,454
41142,411
41143,368
41144,342
41152,311
41153,290
41153,259
41154,250
41154,266
41155,283
41155,300
41156,309
41156,316
41157,322
41157,320
41158,327
41158,347
41159,356
41160,389
41161,397
41162,404
41163,418
41163,429
41164,422
41165,398
41166,392
41167,391
41168,392
41169,407
41170,411
41171,419
41172,407
41174,390
41175,381
41181,381
41182,398
41182,413
41183,431
41183,440
41184,458
41184,450
41185,447
41185,442
41186,445
41186,435
41187,409
41187,395
41188,391
41189,412
41190,447
41191,451
41192,447
41193,431
41194,427
41195,412
41196,413
41196,417
41197,432
41198,459
41199,493
41200,495
41201,496
41202,472
41203,435
41211,406
41211,393
41212,416
41212,431
41213,460
41213,484
41214,478
41214,490
41216,491
41216,435
41217,405
41217,415
41218,443
41219,467
41219,485
41220,497
41221,493
41222,491
41223,492
41224,482
41225,457
41226,432
41227,430
41228,445
41229,459
41230,485
41230,493
41231,499
41232,478
41233,458
41240,458
41240,440
41241,445
41241,450
41242,451
41242,464
41243,488
41243,489
41244,500
41244,527
41245,514
41245,483
41246,461
41247,473
41248,485
41249,492
41250,510
41250,516
41251,512
41252,497
41253,488
41254,486
41255,497
41256,498
41257,500
41259,511
41260,521
41261,522
41262,530
41263,540
41270,523
41271,462
41271,484
41272,513
41272,524
41273,529
41273,523
41274,517
41274,515
41275,507
41275,499
41276,475
41276,464
41277,495
41278,517
41279,543
41280,554
41281,549
41282,535
41283,524
41284,523
41284,512
41285,494
41286,496
41287,504
41288,536
41289,555
41290,553
41291,544
41292,528
41299,528
41299,522
41300,516
41300,524
41302,538
41302,544
41303,562
41303,582
41304,582
41304,572
41305,559
41305,553
41306,533
41307,514
41307,512
41308,528
41309,561
41310,578
41311,575
41312,561
41313,565
41314,574
41315,549
41316,547
41317,563
41317,541
41318,546
41319,555
41320,554
41321,560
41329,566
41329,564
41330,554
41330,555
41331,557
41331,561
41332,586
41332,597
41333,593
41333,582
41334,575
41334,572
41335,577
41336,587
41337,594
41338,594
41338,606
41339,589
41340,583
41341,591
41342,597
41344,605
41345,590
41346,575
41347,561
41348,527
41349,546
41350,564
41351,567
41351,566
41358,566
41359,565
41359,557
41360,538
41360,528
41361,543
41361,555
41362,588
41362,590
41363,584
41363,560
41364,550
41364,549
41365,534
41366,532
41367,532
41368,530
41369,546
41370,536
41371,538
41371,525
41372,520
41373,525
41374,519
41375,518
41376,528
41377,533
41378,545
41379,536
41380,539
41389,544
41389,523
41389,502
41390,465
41391,458
41391,466
41392,476
41392,497
41393,484
41393,464
41394,438
41394,435
41395,433
41395,446
41396,457
41397,460
41398,458
41399,472
41400,464
41401,464
41402,456
41403,445
41404,441
41405,422
41405,387
41406,371
41407,384
41408,415
41409,423
41410,422
41417,422
41417,414
41418,417
41418,401
41419,390
41419,398
41420,403
41420,404
41421,407
41421,399
41422,410
41422,410
41423,389
41424,383
41425,375
41425,372
41426,378
41427,385
41428,405
41430,403
41431,397
41432,384
41433,366
41434,357
41435,357
41436,373
41437,387
41438,392
41438,422
41439,423
41447,423
41448,416
41448,397
41449,391
41449,385
41450,389
41450,408
41451,403
41451,377
41452,383
41452,400
41453,404
41453,401
41454,394
41455,377
41456,387
41457,407
41458,416
41459,426
41459,411
41460,406
41461,397
41462,415
41463,400
41464,384
41465,396
41466,402
41467,393
41468,418
41469,407
41477,407
41477,404
41477,414
41478,407
41478,402
41479,411
41479,432
41480,440
41480,458
