0.001:479
0.001:465
0.001:464
0.001:479
0.002:484
0.002:493
0.002:500
0.002:502
0.003:503
0.003:510
0.003:509
0.003:516
0.003:529
0.004:536
0.004:542
0.004:544
0.004:546
0.004:541
0.005:542
0.005:548
0.005:538
0.005:529
0.005:505
0.005:486
0.005:475
0.006:464
0.006:454
0.006:478
0.006:510
0.006:529
0.008:529
0.008:542
0.008:551
0.008:538
0.008:523
0.009:507
0.009:531
0.009:545
0.010:530
0.010:489
0.010:480
0.011:501
0.011:529
0.012:528
0.012:515
0.012:502
0.013:518
0.013:531
0.014:546
0.014:547
0.014:543
0.015:546
0.015:549
0.015:560
0.015:572
0.015:575
0.015:576
0.016:569
0.016:540
0.016:491
0.016:453
0.016:439
0.017:433
0.017:412
0.017:391
0.017:376
0.017:358
0.018:349
0.018:329
0.018:296
0.018:258
0.018:215
0.018:164
0.019:99
0.019:39
0.019:17
0.019:17
0.019:17
0.019:18
0.019:18
0.020:18
0.020:18
0.020:19
0.020:19
0.020:19
0.020:19
0.021:19
0.021:20
0.021:20
0.021:19
0.021:19
0.021:19
0.021:18
0.022:18
0.022:17
0.022:17
0.022:80
0.022:206
0.022:321
0.023:465
0.023:605
0.023:693
0.023:746
0.024:770
0.024:754
0.025:735
0.025:713
0.025:686
0.026:658
0.026:643
0.026:613
0.026:604
0.027:645
0.027:654
0.027:642
0.027:605
0.027:585
0.028:599
0.028:620
0.028:633
0.028:631
0.028:630
0.029:619
0.030:600
0.030:581
0.030:571
0.030:594
0.031:624
0.031:627
0.031:609
0.032:601
0.032:606
0.032:607
0.032:616
0.033:640
0.033:650
0.033:649
0.033:635
0.034:623
0.034:615
0.034:604
0.034:588
0.034:588
0.035:600
0.035:600
0.035:595
0.035:589
0.036:599
0.036:596
0.036:592
0.036:592
0.036:602
0.037:613
0.037:613
0.037:617
0.037:634
0.037:622
0.038:604
0.038:589
0.038:592
0.038:593
0.039:579
0.039:564
0.039:571
0.039:572
0.039:563
0.040:556
0.040:547
0.041:549
0.041:549
0.041:548
0.041:543
0.041:546
0.042:563
0.042:543
0.042:548
0.042:567
0.042:555
0.042:548
0.042:564
0.043:575
0.043:578
0.043:591
0.044:590
0.044:571
0.044:547
0.044:539
0.044:529
0.044:525
0.045:518
0.045:518
0.045:525
0.045:551
0.045:559
0.046:564
0.046:562
0.046:548
0.046:518
0.046:495
0.047:504
0.047:511
0.047:520
0.047:533
0.047:527
0.047:514
0.048:500
0.048:485
0.048:493
0.048:518
0.048:507
0.049:507
0.049:511
0.049:540
0.049:549
0.049:538
0.049:528
0.050:527
0.050:519
0.050:517
0.050:516
0.050:515
0.051:509
0.051:502
0.051:490
0.051:490
0.051:496
0.051:487
0.052:482
0.052:470
0.052:465
0.052:476
0.052:485
0.053:474
0.053:459
0.053:465
0.053:468
0.053:473
0.053:476
0.054:493
0.054:524
0.054:527
0.054:516
0.054:511
0.055:512
0.055:500
0.055:479
0.055:467
0.055:455
0.055:428
0.056:435
0.056:455
0.056:467
0.056:473
0.056:471
0.056:467
0.057:477
0.058:482
0.058:479
0.058:487
0.058:471
0.058:461
0.058:451
0.058:459
0.058:455
0.058:452
0.058:455
0.059:431
0.059:418
0.059:407
0.059:396
0.059:396
0.061:407
0.061:405
0.061:382
0.061:356
0.061:370
0.061:413
0.062:464
0.062:497
0.062:505
0.062:481
0.062:457
0.063:449
0.063:444
0.063:446
0.063:446
0.063:435
0.064:420
0.064:420
0.064:419
0.064:423
0.064:427
0.065:414
0.065:401
0.065:408
0.065:418
0.065:427
0.065:429
0.066:427
0.066:431
0.066:429
0.066:421
0.066:407
0.067:386
0.067:388
0.067:396
0.067:405
0.067:414
0.068:432
0.068:449
0.068:475
0.068:485
0.068:478
0.069:467
0.069:469
0.069:466
0.069:466
0.069:456
0.069:445
0.069:446
0.069:454
0.069:464
0.069:471
0.069:471
0.070:470
0.070:504
0.070:521
0.070:501
0.070:508
0.071:512
0.071:512
0.071:501
0.071:493
0.071:513
0.072:539
0.072:548
0.072:557
0.072:555
0.072:539
0.072:528
0.073:541
0.074:554
0.074:564
0.074:562
0.074:552
0.074:553
0.074:551
0.074:544
0.074:540
0.074:542
0.074:547
0.076:555
0.076:555
0.076:561
0.076:572
0.077:595
0.077:597
0.077:577
0.077:572
0.077:571
0.077:591
0.078:591
0.078:576
0.078:555
0.078:551
0.078:547
0.079:550
0.079:578
0.079:600
0.079:599
0.079:588
0.080:578
0.080:568
0.080:567
0.080:574
0.080:590
0.081:602
0.081:616
0.081:625
0.081:616
0.081:605
0.082:595
0.082:594
0.082:591
0.082:588
0.082:584
0.082:589
0.083:586
0.083:571
0.083:570
0.083:570
0.083:574
0.084:574
0.084:574
0.084:572
0.084:567
0.084:556
0.085:567
0.085:568
0.085:571
0.086:571
0.086:571
0.086:566
0.087:559
0.087:571
0.087:580
0.087:566
0.088:549
0.088:531
0.088:526
0.089:533
0.089:557
0.089:565
0.090:567
0.090:574
0.091:584
0.091:596
0.091:603
0.091:596
0.091:592
0.091:587
0.092:585
0.092:574
0.092:556
0.092:555
0.093:565
0.093:562
0.093:567
0.093:570
0.093:559
0.093:553
0.094:536
0.094:517
0.094:509
0.094:514
0.095:526
0.095:547
0.095:573
0.095:575
0.095:553
0.095:552
0.096:556
0.096:556
0.096:548
0.096:538
0.096:529
0.097:530
0.097:541
0.097:547
0.097:553
0.097:553
0.097:547
0.098:525
0.098:505
0.098:507
0.098:527
0.098:529
0.099:532
0.099:548
0.099:555
0.099:550
0.099:539
0.099:528
0.100:530
0.100:528
0.100:535
0.100:546
0.100:539
0.101:533
0.101:521
0.101:502
0.101:492
0.101:486
0.101:480
0.102:517
0.102:543
0.102:538
0.102:525
0.102:538
0.102:537
0.103:526
0.103:512
0.103:510
0.103:533
0.103:559
0.104:557
0.104:528
0.104:497
0.104:499
0.104:502
0.105:490
0.105:477
0.105:471
0.105:469
0.105:474
0.105:495
0.106:512
0.106:508
0.106:515
0.106:516
0.106:495
0.107:488
0.107:501
0.109:516
0.109:523
0.109:519
0.109:511
0.110:508
0.110:502
0.110:501
0.110:501
0.111:496
0.111:484
0.111:479
0.111:481
0.111:495
0.111:507
0.112:511
0.112:506
0.112:504
0.112:498
0.112:492
0.113:495
0.113:482
0.113:477
0.113:492
0.113:502
0.114:507
0.114:506
0.114:498
0.114:491
0.114:480
0.115:465
0.115:461
0.115:469
0.115:481
0.115:486
0.115:495
0.116:507
0.116:514
0.116:522
0.116:525
0.116:521
0.117:511
0.117:510
0.117:516
0.117:517
0.117:513
0.118:501
0.118:481
0.118:475
0.118:480
0.118:483
0.118:470
0.119:476
0.119:481
0.119:483
0.119:496
0.119:503
0.120:501
0.120:501
0.120:507
0.120:519
0.120:519
0.121:517
0.121:519
0.121:509
0.121:501
0.121:502
0.122:493
0.122:493
0.122:496
0.122:496
0.122:480
0.122:469
0.123:462
0.123:458
0.123:471
0.124:488
0.124:509
0.126:520
0.126:523
0.126:529
0.126:533
0.127:528
0.127:522
0.127:513
0.127:508
0.128:505
0.128:506
0.128:499
0.128:496
0.128:498
0.129:502
0.129:504
0.129:502
0.129:491
0.129:498
0.129:513
0.130:522
0.130:538
0.130:542
0.130:547
0.130:550
0.131:522
0.131:499
0.131:479
0.131:474
0.131:480
0.131:491
0.132:513
0.132:520
0.132:515
0.132:507
0.132:493
0.133:474
0.133:466
0.133:487
0.133:508
0.133:528
0.133:556
0.134:561
0.134:560
0.134:564
0.134:557
0.134:558
0.135:547
0.135:525
0.135:515
0.135:504
0.135:504
0.136:493
0.136:480
0.136:470
0.136:467
0.136:476
0.136:484
0.137:479
0.137:480
0.137:485
0.137:510
0.137:522
0.137:510
0.138:503
0.138:501
0.138:487
0.138:490
0.138:493
0.139:486
0.139:489
0.139:492
0.139:495
0.139:505
0.139:500
0.140:481
0.141:478
0.141:476
0.141:484
0.141:495
0.141:503
0.141:506
0.141:502
0.142:496
0.142:480
0.142:482
0.142:491
0.142:512
0.143:529
0.143:532
0.143:537
0.143:528
0.143:501
0.145:487
0.145:495
0.145:497
0.145:494
0.145:491
0.146:489
0.146:479
0.146:472
0.146:475
0.146:492
0.147:503
0.147:506
0.147:515
0.147:530
0.147:535
0.147:535
0.148:535
0.148:523
0.148:523
0.148:518
0.148:511
0.149:505
0.149:510
0.149:513
0.149:521
0.149:524
0.149:533
0.150:540
0.150:548
0.150:558
0.150:551
0.150:526
0.151:509
0.151:520
0.151:548
0.151:565
0.151:561
0.151:529
0.152:500
0.152:480
0.152:459
0.152:457
0.152:479
0.153:485
0.153:495
0.153:481
0.153:447
0.153:434
0.153:431
0.154:435
0.154:440
0.154:477
0.154:535
0.154:548
0.155:515
0.155:487
0.155:473
0.155:468
0.155:472
0.155:482
0.156:486
0.156:479
0.156:464
0.156:447
0.156:451
0.156:456
0.157:467
0.157:467
0.159:468
0.159:474
0.159:489
0.160:507
0.160:515
0.160:509
0.160:494
0.160:484
0.161:480
0.161:490
0.161:490
0.161:492
0.161:484
0.162:471
0.162:471
0.162:481
0.162:487
0.162:487
0.163:490
0.163:504
0.163:509
0.163:515
0.163:520
0.164:522
0.164:523
0.164:522
0.164:525
0.164:524
0.165:524
0.165:526
0.165:529
0.165:531
0.165:531
0.165:525
0.166:517
0.166:507
0.166:491
0.166:483
0.166:478
0.167:492
0.167:510
0.167:514
0.167:521
0.167:521
0.168:529
0.168:545
0.168:555
0.168:549
0.169:548
0.169:532
0.169:518
0.169:511
0.169:498
0.170:491
0.170:511
0.170:545
0.170:557
0.170:556
0.171:557
0.171:573
0.171:581
0.171:579
0.171:572
0.172:574
0.172:556
0.172:535
0.172:541
0.173:541
0.173:533
0.173:535
0.173:535
0.173:551
0.173:564
0.174:576
0.175:580
0.175:574
0.175:568
0.175:547
0.175:533
0.175:513
0.176:501
0.176:495
0.176:500
0.177:500
0.177:502
0.177:496
0.177:489
0.177:482
0.178:475
0.178:481
0.178:487
0.178:494
0.179:488
0.179:498
0.179:515
0.179:529
0.179:531
0.180:517
0.180:504
0.180:511
0.180:520
0.180:539
0.180:543
0.181:546
0.181:545
0.181:555
0.181:561
0.181:561
0.181:544
0.182:524
0.182:538
0.182:552
0.182:536
0.182:532
0.183:524
0.183:508
0.183:511
0.183:523
0.183:541
0.183:542
0.184:527
0.184:497
0.184:462
0.184:407
0.184:380
0.185:357
0.185:334
0.185:331
0.185:322
0.185:293
0.185:293
0.186:255
0.186:222
0.186:184
0.186:137
0.186:82
0.187:33
0.187:17
0.187:17
0.187:17
0.187:18
0.187:18
0.187:18
0.188:18
0.188:18
0.188:18
0.188:19
0.188:19
0.188:19
0.189:19
0.189:19
0.189:19
0.189:18
0.189:17
0.189:17
0.189:17
0.190:103
0.190:205
0.190:286
0.190:376
0.190:520
0.191:668
0.191:784
0.192:838
0.192:862
0.192:859
0.192:847
0.192:844
0.192:815
0.192:790
0.193:784
0.193:769
0.193:777
0.193:775
0.193:734
0.194:687
0.194:665
0.194:653
0.194:606
0.195:555
0.195:529
0.195:520
0.195:501
0.195:486
0.196:493
0.196:500
0.196:498
0.196:497
0.196:524
0.197:526
0.197:526
0.197:503
0.197:468
0.197:477
0.198:518
0.198:539
0.198:517
0.198:531
0.198:552
0.199:564
0.199:563
0.199:560
0.199:540
0.199:539
0.200:552
0.200:576
0.200:579
0.200:567
0.200:556
0.200:555
0.201:552
0.201:571
0.201:613
0.201:649
0.201:663
0.202:665
0.202:686
0.202:695
0.202:707
0.202:680
0.202:627
0.202:560
0.202:507
0.202:536
0.203:585
0.203:613
0.203:624
0.203:601
0.203:583
0.203:587
0.204:591
0.204:584
0.204:571
0.204:563
0.204:565
0.205:576
0.205:615
0.205:604
0.205:589
0.205:567
0.205:517
0.206:449
0.206:400
0.206:379
0.208:378
0.208:396
0.208:430
0.208:483
0.208:545
0.208:564
0.209:564
0.209:539
0.209:512
0.209:480
0.210:461
0.210:453
0.210:478
0.210:509
0.210:510
0.211:504
0.211:510
0.211:483
0.211:460
0.211:455
0.212:441
0.212:455
0.212:456
0.212:472
0.212:484
0.212:453
0.213:439
0.213:429
0.213:425
0.213:433
0.213:426
0.214:424
0.214:431
0.214:482
0.214:538
0.214:546
0.214:506
0.215:441
0.215:387
0.215:360
0.215:361
0.215:384
0.215:424
0.216:528
0.216:639
0.216:698
0.216:721
0.217:699
0.217:668
0.217:704
0.217:729
0.217:693
0.217:595
0.218:477
0.218:404
0.218:393
0.218:395
0.218:372
0.219:368
0.219:382
0.219:402
0.220:373
0.220:365
0.220:388
0.220:387
0.220:355
0.221:355
0.221:336
0.221:355
0.221:363
0.221:390
0.221:430
0.222:474
0.222:512
0.222:519
0.222:531
0.222:560
0.223:555
0.223:517
0.224:516
0.224:493
0.224:437
0.224:418
0.224:462
0.224:518
0.224:559
0.226:559
0.226:547
0.226:548
0.226:551
0.226:539
0.226:516
0.226:497
0.226:451
0.226:408
0.226:394
0.226:427
0.226:464
0.226:498
0.226:537
0.227:562
0.227:568
0.227:512
0.228:439
0.228:408
0.228:401
0.228:447
0.228:480
0.229:497
0.229:489
0.229:483
0.229:438
0.229:392
0.230:356
0.230:341
0.230:363
0.230:465
0.230:559
0.230:598
0.231:590
0.231:569
0.231:578
0.231:589
0.231:626
0.232:616
0.232:533
0.232:533
0.232:465
0.232:412
0.232:349
0.233:313
0.233:317
0.233:319
0.233:379
0.233:429
0.233:473
0.234:539
0.234:566
0.234:598
0.234:606
0.234:582
0.235:596
0.235:612
0.235:606
0.236:653
0.236:694
0.236:664
0.236:659
0.236:691
0.236:722
0.237:743
0.237:799
0.237:835
0.237:850
0.237:851
0.237:824
0.238:799
0.238:776
0.238:788
0.238:816
0.238:800
0.239:776
0.239:730
0.239:705
0.239:708
0.239:709
0.239:725
0.240:697
0.240:709
0.240:719
0.240:705
0.240:666
0.240:683
0.240:697
0.241:690
0.241:707
0.241:749
0.241:775
0.241:743
0.241:726
0.241:733
0.241:733
0.241:676
0.241:656
0.241:685
0.243:660
0.243:660
0.243:598
0.243:577
0.243:610
0.243:687
0.243:741
0.243:721
0.243:617
0.243:532
0.243:531
0.243:563
0.243:636
0.243:720
0.244:821
0.244:921
0.244:944
0.244:865
0.245:756
0.245:718
0.245:727
0.245:725
0.246:742
0.246:743
0.246:735
0.246:751
0.246:744
0.246:710
0.247:685
0.247:660
0.247:641
0.247:656
0.247:679
0.248:684
0.248:744
0.248:781
0.248:705
0.248:627
0.248:567
0.249:537
0.249:561
0.249:611
0.249:630
0.249:571
0.249:614
0.249:688
0.249:705
0.249:723
0.249:748
0.249:756
0.249:711
0.250:660
0.250:637
0.250:641
0.250:645
0.250:670
0.251:711
0.251:775
0.251:803
0.251:801
0.251:778
0.251:778
0.251:755
0.251:708
0.251:665
0.251:608
0.251:650
0.251:745
0.252:763
0.252:780
0.252:736
0.252:725
0.252:706
0.253:679
0.253:656
0.253:652
0.253:694
0.253:725
0.254:725
0.254:751
0.254:758
0.254:665
0.254:535
0.255:494
0.255:501
0.255:522
0.255:571
0.255:611
0.255:624
0.256:598
0.256:551
0.257:560
0.257:611
0.258:639
0.258:563
0.258:438
0.258:338
0.258:310
0.258:341
0.258:394
0.258:415
0.258:424
0.258:446
0.258:482
0.258:530
0.258:541
0.258:487
0.258:464
0.258:532
0.260:580
0.260:550
0.260:467
0.261:430
0.261:440
0.261:461
0.261:517
0.261:571
0.261:579
0.262:614
0.262:645
0.262:648
0.262:648
0.262:659
0.263:707
0.263:741
0.263:800
0.263:876
0.263:919
0.263:914
0.264:839
0.264:754
0.264:683
0.264:629
0.264:595
0.265:554
0.265:518
0.265:540
0.265:592
0.265:624
0.265:599
0.266:550
0.266:532
0.266:524
0.266:541
0.267:530
0.267:505
0.267:442
0.267:405
0.267:417
0.268:417
0.268:437
0.268:491
0.268:518
0.268:550
0.268:588
0.269:616
0.269:685
0.269:726
0.269:687
0.269:613
0.270:591
0.270:598
0.270:600
0.270:628
0.270:698
0.270:718
0.271:627
0.271:498
0.271:470
0.271:472
0.271:402
0.272:308
0.272:315
0.272:375
0.272:422
0.272:478
0.272:556
0.273:624
0.273:642
0.273:662
0.273:671
0.273:671
0.274:687
0.274:689
0.274:664
0.275:637
0.275:618
0.275:525
0.275:468
0.275:462
0.275:519
0.275:571
0.275:545
0.275:516
0.276:522
0.276:538
0.276:540
0.276:550
0.276:561
0.276:583
0.276:612
0.276:623
0.276:566
0.276:506
0.276:474
0.276:503
0.276:540
0.277:563
0.277:581
0.277:585
0.278:582
0.278:592
0.278:603
0.278:595
0.278:591
0.279:570
0.279:547
0.279:600
0.279:593
0.279:554
0.279:556
0.280:603
0.280:625
0.280:594
0.280:564
0.280:558
0.281:592
0.281:587
0.281:598
0.281:612
0.281:604
0.281:609
0.282:640
0.282:644
0.282:614
0.282:603
0.283:577
0.283:505
0.283:423
0.283:377
0.283:409
0.284:409
0.284:457
0.284:482
0.284:510
0.284:505
0.285:512
0.285:528
0.285:525
0.285:526
0.285:500
0.286:494
0.286:516
0.286:552
0.286:556
0.286:531
0.287:554
0.287:558
0.287:527
0.287:503
0.287:511
0.288:498
0.288:461
0.288:441
0.288:468
0.288:507
0.289:545
0.289:572
0.289:581
0.289:546
0.289:522
0.289:500
0.290:472
0.290:471
0.291:530
0.292:600
0.292:672
0.292:704
0.292:672
0.292:607
0.292:473
0.293:384
0.293:355
0.293:332
0.294:352
0.294:410
0.294:477
0.294:535
0.294:590
0.295:632
0.295:662
0.295:714
0.295:669
0.295:637
0.296:598
0.296:569
0.296:530
0.296:499
0.296:482
0.296:458
0.297:477
0.297:477
0.297:513
0.297:532
0.297:510
0.298:476
0.298:432
0.298:411
0.298:408
0.298:388
0.299:385
0.299:395
0.299:411
0.299:424
0.299:429
0.299:425
0.300:435
0.300:432
0.300:405
0.300:392
0.300:381
0.301:356
0.301:354
0.301:366
0.301:388
0.301:423
0.301:423
0.302:384
0.302:374
0.302:375
0.302:461
0.302:549
0.303:559
0.303:529
0.303:487
0.303:481
0.303:489
0.303:508
0.304:534
0.304:531
0.304:516
0.304:498
0.304:459
0.305:391
0.305:362
0.305:401
0.305:443
0.305:437
0.305:411
0.306:417
0.306:443
0.306:472
0.306:476
0.307:473
0.307:483
0.307:491
0.307:530
0.308:505
0.308:445
0.308:440
0.308:445
0.308:445
0.308:472
0.308:513
0.308:544
0.308:569
0.309:597
0.309:603
0.309:601
0.310:568
0.310:519
0.310:488
0.310:482
0.310:489
0.311:483
0.311:494
0.311:485
0.311:426
0.311:388
0.312:389
0.312:418
0.312:449
0.312:449
0.312:450
0.312:465
0.313:457
0.313:444
0.313:439
0.313:457
0.314:471
0.314:449
0.314:445
0.314:476
0.314:457
0.316:441
0.316:452
0.316:467
0.316:466
0.316:473
0.316:497
0.316:544
0.316:570
0.316:557
0.316:562
0.316:618
0.316:686
0.316:696
0.316:622
0.316:559
0.316:524
0.316:482
0.316:408
0.317:357
0.317:344
0.317:357
0.317:368
0.317:387
0.317:397
0.318:432
0.318:459
0.318:482
0.318:482
0.318:465
0.318:448
0.319:422
0.319:428
0.319:459
0.319:479
0.319:522
0.320:571
0.320:590
0.320:577
0.320:524
0.320:513
0.321:477
0.321:455
0.321:491
0.321:546
0.321:540
0.321:468
0.322:390
0.322:358
0.322:367
0.322:372
0.322:398
0.323:437
0.323:491
0.324:537
0.324:561
0.324:574
0.324:561
0.324:561
0.325:573
0.325:563
0.325:515
0.325:473
0.326:435
0.326:376
0.326:336
0.326:324
0.327:310
0.327:278
0.327:257
0.327:196
0.327:133
0.328:111
0.328:65
0.328:17
0.328:17
0.328:17
0.328:18
0.328:18
0.329:18
0.329:19
0.329:19
0.329:19
0.329:20
0.329:20
0.330:20
0.330:20
0.330:21
0.330:21
0.330:20
0.330:21
0.331:20
0.331:19
0.331:18
0.331:17
0.331:154
0.331:317
0.332:392
0.332:447
0.332:562
0.332:688
0.332:783
0.332:819
0.332:813
0.334:783
0.334:747
0.334:712
0.334:672
0.334:641
0.334:621
0.334:616
0.335:596
0.335:587
0.335:590
0.335:578
0.335:543
0.335:487
0.335:464
0.335:452
0.335:466
0.335:441
0.335:401
0.335:386
0.335:465
0.336:531
0.336:545
0.336:605
0.336:655
0.336:662
0.336:658
0.336:679
0.337:703
0.337:696
0.337:705
0.337:709
0.337:753
0.338:753
0.338:699
0.338:530
0.338:422
0.339:448
0.339:476
0.339:508
0.339:519
0.339:513
0.340:494
0.340:455
0.340:453
0.341:453
0.341:468
0.341:487
0.341:523
0.342:544
0.342:535
0.342:529
0.343:546
0.343:594
0.343:648
0.343:669
0.343:653
0.343:619
0.343:586
0.343:572
0.343:572
0.343:565
0.344:558
0.344:542
0.344:523
0.344:525
0.345:527
0.345:567
0.345:594
0.345:584
0.345:574
0.345:576
0.345:579
0.345:555
0.345:517
0.345:482
0.345:471
0.346:443
0.346:414
0.346:423
0.346:407
0.346:419
0.346:439
0.346:441
0.347:441
0.347:458
0.347:493
0.347:527
0.347:563
0.348:588
0.348:574
0.348:536
0.348:481
0.348:455
0.348:443
0.349:432
0.349:443
0.349:461
0.349:469
0.349:458
0.350:393
0.350:349
0.350:346
0.350:355
0.350:369
0.350:369
0.350:451
0.351:472
0.351:467
0.351:529
0.351:567
0.351:545
0.352:519
0.352:511
0.352:522
0.352:509
0.352:523
0.352:491
0.353:462
0.353:457
0.353:465
0.353:460
0.353:462
0.353:506
0.353:549
0.353:545
0.353:515
0.355:505
0.355:524
0.355:539
0.355:570
0.355:610
0.355:599
0.356:571
0.356:517
0.356:430
0.356:383
0.356:356
0.357:337
0.357:368
0.357:369
0.357:323
0.358:285
0.358:279
0.358:277
0.358:290
0.358:335
0.358:382
0.358:432
0.358:456
0.358:449
0.359:483
0.359:498
0.359:497
0.359:484
0.359:436
0.360:370
0.360:334
0.360:350
0.360:377
0.361:408
0.361:472
0.361:554
0.361:561
0.361:486
0.362:486
0.362:379
0.362:317
0.362:309
0.362:319
0.362:329
0.363:345
0.363:351
0.363:309
0.363:271
0.363:275
0.363:288
0.364:285
0.364:281
0.364:283
0.364:328
0.364:398
0.364:466
0.365:544
0.365:602
0.365:605
0.365:516
0.365:436
0.366:407
0.366:438
0.366:463
0.366:477
0.366:510
0.366:523
0.367:497
0.367:435
0.367:394
0.367:378
0.367:367
0.367:361
0.368:353
0.368:308
0.368:278
0.368:291
0.368:334
0.369:393
0.369:405
0.369:436
0.369:476
0.369:500
0.369:492
0.370:468
0.370:432
0.370:405
0.370:396
0.370:394
0.371:421
0.371:470
0.371:502
0.371:522
0.371:542
0.371:535
0.372:493
0.372:453
0.372:448
0.372:448
0.372:429
0.372:412
0.373:449
0.373:518
0.374:503
0.374:533
0.375:623
0.375:651
0.375:643
0.375:625
0.375:623
0.375:651
0.375:647
0.375:613
0.376:590
0.376:590
0.376:600
0.376:602
0.376:619
0.376:678
0.376:747
0.376:780
0.377:680
0.377:544
0.377:487
0.377:518
0.377:577
0.378:628
0.378:673
0.378:680
0.378:653
0.379:624
0.379:601
0.379:588
0.379:575
0.379:586
0.379:601
0.380:600
0.380:606
0.380:623
0.380:649
0.380:668
0.380:673
0.381:690
0.381:674
0.381:658
0.381:647
0.381:627
0.382:598
0.382:574
0.382:564
0.382:567
0.382:602
0.383:639
0.383:668
0.383:684
0.383:665
0.383:636
0.383:598
0.384:598
0.384:562
0.384:626
0.384:626
0.384:609
0.384:596
0.384:572
0.384:569
0.385:591
0.385:590
0.385:552
0.385:539
0.385:552
0.385:592
0.385:645
0.385:743
0.387:807
0.387:779
0.387:705
0.387:703
0.387:712
0.388:670
0.388:629
0.388:589
0.388:551
0.388:539
0.388:547
0.389:559
0.389:587
0.389:579
0.389:566
0.389:618
0.390:667
0.390:684
0.390:712
0.390:723
0.391:701
0.391:710
0.391:705
0.391:669
0.391:614
0.392:577
0.392:600
0.392:569
0.392:557
0.392:582
0.392:604
0.392:599
0.393:567
0.393:537
0.393:524
0.393:503
0.393:508
0.393:522
0.394:564
0.394:660
0.394:748
0.394:788
0.394:764
0.395:695
0.395:695
0.395:643
0.395:636
0.395:645
0.395:604
0.396:585
0.396:591
0.396:591
0.396:575
0.396:533
0.397:482
0.397:508
0.397:579
0.397:566
0.397:564
0.397:559
0.398:573
0.398:636
0.398:731
0.398:659
0.398:576
0.399:581
0.399:568
0.399:556
0.399:539
0.399:535
0.399:546
0.400:568
0.400:555
0.400:525
0.400:482
0.400:511
0.401:540
0.401:538
0.401:553
0.401:590
0.401:626
0.401:624
0.402:660
0.402:640
0.402:574
0.402:566
0.402:568
0.402:490
0.402:433
0.402:459
0.402:489
0.404:497
0.404:516
0.404:529
0.404:467
0.404:444
0.405:497
0.405:557
0.405:569
0.405:565
0.405:568
0.405:541
0.406:518
0.406:502
0.406:502
0.406:481
0.407:493
0.407:520
0.407:540
0.407:552
0.407:711
0.407:800
0.408:746
0.408:643
0.408:582
0.408:631
0.409:692
0.409:759
0.409:726
0.409:653
0.410:630
0.410:628
0.410:596
0.410:590
0.410:602
0.410:612
0.411:610
0.411:587
0.411:557
0.411:529
0.411:527
0.412:538
0.412:562
0.412:549
0.412:559
0.412:581
0.412:581
0.413:576
0.413:577
0.413:573
0.413:513
0.413:411
0.413:355
0.414:261
0.414:311
0.414:486
0.415:571
0.415:573
0.415:640
0.415:628
0.415:620
0.416:612
0.416:593
0.416:611
0.416:676
0.416:675
0.417:635
0.417:620
0.417:602
0.417:571
0.417:561
0.417:574
0.418:592
0.418:603
0.418:603
0.418:581
0.418:560
0.419:582
0.419:592
0.419:598
0.419:592
0.419:590
0.419:574
0.420:578
0.420:607
0.420:575
0.420:563
0.420:593
0.421:625
0.421:592
0.421:546
0.421:549
0.421:564
0.421:547
0.422:438
0.422:410
0.423:434
0.423:453
0.423:528
0.423:512
0.423:518
0.423:624
0.424:688
0.424:661
0.424:595
0.424:563
0.424:550
0.425:537
0.425:547
0.425:549
0.425:594
0.427:670
0.427:668
0.427:593
0.427:532
0.428:523
0.428:534
0.428:541
0.429:583
0.429:600
0.429:585
0.429:530
0.429:528
0.430:593
0.430:625
0.430:594
0.430:590
0.430:626
0.430:620
0.431:559
0.431:545
0.431:555
0.431:552
0.431:520
0.432:520
0.432:469
0.432:427
0.432:426
0.432:485
0.432:588
0.433:642
0.433:625
0.433:605
0.433:598
0.433:620
0.433:638
0.433:620
0.433:587
0.434:558
0.434:563
0.434:558
0.434:528
0.434:475
0.435:414
0.435:417
0.435:503
0.435:653
0.435:720
0.435:679
0.435:627
0.435:600
0.435:584
0.435:582
0.435:578
0.435:538
0.437:501
0.437:478
0.437:458
0.437:425
0.438:395
0.438:465
0.438:510
0.438:530
0.438:517
0.438:457
0.439:526
0.439:616
0.439:673
0.439:756
0.439:793
0.440:723
0.440:637
0.440:627
0.440:629
0.441:633
0.441:587
0.441:561
0.441:582
0.441:633
0.441:631
0.441:557
0.442:453
0.442:421
0.442:460
0.442:460
0.442:433
0.442:421
0.443:391
0.443:421
0.443:437
0.443:403
0.443:376
0.443:479
0.443:608
0.443:722
0.443:784
0.444:819
0.444:857
0.444:819
0.444:729
0.444:608
0.444:548
0.444:519
0.444:538
0.444:571
0.445:601
0.445:610
0.445:623
0.445:585
0.445:590
0.445:665
0.445:696
0.446:668
0.446:667
0.446:621
0.446:542
0.446:501
0.447:487
0.447:456
0.447:490
0.447:522
0.447:515
0.447:563
0.448:643
0.448:702
0.448:709
0.448:728
0.448:728
0.449:693
0.449:645
0.449:640
0.449:663
0.450:618
0.450:534
0.450:498
0.450:522
0.450:529
0.450:439
0.451:358
0.451:355
0.451:503
0.451:664
0.451:744
0.452:698
0.452:698
0.452:590
0.452:512
0.452:524
0.452:597
0.452:636
0.454:607
0.454:628
0.454:663
0.454:686
0.454:696
0.455:732
0.455:718
0.455:652
0.455:638
0.455:646
0.455:628
0.456:630
0.456:649
0.456:575
0.456:534
0.456:533
0.457:510
0.457:441
0.457:341
0.458:316
0.458:362
0.458:299
0.458:314
0.458:412
0.458:442
0.458:409
0.458:376
0.459:308
0.459:156
0.459:77
0.459:68
0.459:17
0.459:17
0.459:17
0.459:18
0.459:18
0.460:18
0.460:19
0.460:20
0.460:20
0.460:20
0.460:20
0.461:20
0.461:20
0.461:19
0.461:19
0.461:18
0.461:17
0.462:17
0.462:17
0.462:84
0.462:193
0.462:316
0.462:508
0.463:508
0.463:696
0.463:781
0.463:817
0.463:851
0.464:910
0.464:933
0.464:909
0.464:830
0.464:792
0.464:684
0.464:596
0.465:636
0.465:722
0.465:783
0.465:844
0.465:814
0.465:808
0.467:813
0.467:758
0.467:690
0.467:679
0.467:656
0.468:632
0.468:606
0.468:565
0.468:604
0.469:595
0.469:579
0.469:535
0.469:508
0.469:500
0.469:429
0.470:401
0.470:430
0.470:478
0.470:490
0.470:572
0.471:582
0.471:627
0.471:768
0.471:832
0.471:789
0.471:777
0.472:752
0.472:678
0.472:608
0.472:521
0.472:490
0.473:559
0.473:614
0.473:668
0.473:704
0.473:719
0.474:695
0.474:687
0.474:597
0.474:510
0.474:470
0.474:428
0.475:428
0.475:415
0.475:507
0.475:724
0.475:812
0.475:825
0.475:808
0.476:813
0.476:834
0.476:812
0.476:763
0.477:688
0.477:637
0.477:621
0.477:625
0.477:634
0.478:588
0.478:521
0.478:512
0.478:573
0.478:609
0.478:644
0.479:615
0.479:516
0.479:500
0.479:565
0.479:587
0.480:555
0.480:539
0.480:566
0.480:623
0.480:656
0.480:633
0.481:630
0.481:596
0.481:536
0.481:491
0.481:453
0.482:434
0.482:447
0.482:411
0.482:451
0.482:537
0.482:476
0.482:394
0.482:417
0.482:432
0.484:459
0.484:548
0.484:663
0.485:677491
0.485:459
0.485:467
0.485:485
0.485:486
0.485:494
0.486:499
0.486:496
0.486:493
0.486:505
0.486:499
0.487:487
0.487:481
0.487:472
0.487:489
0.487:9
0.487:486
0.488:494
0.488:495
0.488:493
0.488:502
0.488:505
0.489:514
0.489:526
0.489:528
0.489:519
0.489:491
0.490:459
0.490:467
0.490:485
0.491:486
0.491:494
0.491:499
0.491:496
0.491:493
0.491:505
0.491:499
0.491:487
0.492:481
0.492:472
0.492:489
0.492:489
0.492:496
0.493:499
0.493:492
0.493:483
0.494:482
0.494:527
0.495:604
0.495:607
0.495:548
0.495:482
0.495:464
0.496:474
0.496:480
0.496:494
0.496:496
0.496:486
0.496:483
0.497:475
0.497:478
0.497:481
0.497:484
0.497:485
0.498:499
0.498:512
0.498:526
0.498:530
0.498:520
0.498:505
0.499:515
0.499:532
0.499:527
0.499:504
0.499:496
0.500:491
0.500:479
0.500:476
0.500:502
0.500:521
0.501:518
0.501:502
0.501:494
0.501:512
0.501:525
0.501:531
0.502:515
0.502:506
0.502:486
0.502:467
0.502:465
0.503:473
0.503:467
0.503:487
0.503:548
0.503:579
0.503:591
0.503:578
0.503:540
0.503:512
0.504:479
0.504:479
0.504:454
0.504:461
0.504:470
0.505:491
0.505:500
0.505:481
0.505:461
0.505:453
0.505:478
0.505:515
0.505:535
0.507:525
0.507:485
0.507:485
0.507:497
0.507:492
0.508:478
0.508:487
0.508:502
0.508:489
0.508:474
0.509:472
0.509:480
0.509:493
0.509:476
0.510:466
0.510:450
0.510:431
0.510:400
0.510:380
0.511:385
0.511:375
0.511:333
0.511:292
0.511:263
0.511:235
0.512:182
0.512:125
0.512:83
0.512:40
0.512:17
0.512:17
0.513:17
0.513:17
0.513:17
0.513:17
0.513:17
0.513:18
0.514:18
0.514:18
0.514:18
0.514:18
0.515:18
0.515:18
0.515:18
0.515:17
0.515:17
0.515:79
0.516:169
0.516:169
0.516:253
0.516:288
0.517:307
0.517:354
0.517:433
0.517:535
0.517:616
0.518:672
0.518:705
0.518:704
0.518:659
0.518:621
0.518:608
0.519:608
0.519:609
0.519:574
0.519:549
0.519:553
0.520:570
0.520:570
0.520:562
0.520:557
0.520:567
0.520:568
0.521:556
0.521:536
0.521:528
0.521:524
0.521:517
0.522:526
0.522:534
0.522:555
0.522:586
0.522:596
0.522:591
0.523:564
0.523:553
0.523:549
0.523:557
0.523:577
0.523:578
0.524:541
0.524:515
0.524:510
0.524:515
0.525:525
0.525:526
0.525:529
0.525:532
0.525:540
0.525:540
0.526:549
0.526:547
0.526:533
0.526:517
0.526:514
0.526:516
0.526:547
0.527:556
0.527:556
0.527:539
0.528:505
0.528:487
0.528:488
0.528:511
0.528:544
0.528:559
0.529:557
0.529:532
0.529:520
0.529:520
0.529:515
0.529:509
0.530:515
0.530:516
0.530:511
0.530:515
0.530:516
0.531:508
0.531:507
0.531:503
0.531:512
0.532:508
0.532:506
0.532:509
0.532:524
0.532:505
0.532:482
0.532:477
0.532:491
0.532:487
0.532:481
0.534:487
0.534:491
0.534:505
0.534:504
0.534:498
0.534:496
0.535:494
0.535:506
0.535:519
0.535:511
0.536:481
0.536:473
0.536:463
0.536:455
0.536:457
0.537:457
0.537:459
0.537:465
0.537:464
0.537:465
0.538:473
0.538:475
0.538:476
0.538:478
0.538:493
0.539:494
0.539:478
0.539:478
0.539:455
0.539:443
0.539:462
0.540:476
0.540:457
0.540:436
0.540:448
0.541:477
0.541:481
0.541:493
0.541:488
0.541:461
0.542:444
0.542:451
0.542:460
0.542:453
0.542:440
0.543:424
0.543:433
0.543:447
0.543:445
0.544:438
0.544:442
0.544:458
0.544:463
0.544:457
0.544:435
0.545:404
0.545:398
0.545:400
0.545:394
0.545:390
0.545:398
0.546:400
0.546:399
0.546:404
0.546:406
0.546:417
0.547:441
0.547:434
0.547:420
0.547:406
0.548:392
0.548:397
0.548:408
0.548:414
0.548:420
0.549:408
0.549:401
0.549:398
0.549:418
0.549:432
0.549:421
0.550:402
0.550:390
0.550:377
0.550:347
0.550:330
0.551:348
0.551:348
0.551:372
0.551:387
0.551:404
0.551:409
0.552:383
0.552:356
0.552:334
0.552:330
0.552:332
0.552:334
0.552:345
0.552:397
0.554:432
0.554:425
0.554:382
0.554:347
0.554:328
0.555:331
0.555:362
0.555:405
0.555:447
0.555:478
0.555:460
0.555:427
0.556:394
0.556:373
0.556:355
0.557:329
0.557:314
0.557:335
0.557:371
0.558:405
0.558:429
0.558:449
0.558:467
0.558:468
0.558:484
0.558:512
0.558:539
0.559:544
0.559:546
0.559:509
0.559:431
0.559:369
0.559:310
0.559:286
0.560:299
0.560:316
0.560:304
0.560:258
0.560:186
0.561:148
0.561:163
0.561:209
0.561:287
0.561:395
0.562:517
0.562:557
0.562:550
0.562:550
0.562:513
0.562:484
0.562:479
0.562:467
0.564:470
0.564:469
0.564:474
0.564:499
0.564:544
0.564:539
0.565:496
0.565:442
0.565:432
0.565:419
0.565:420
0.566:507
0.566:590
0.566:619
0.566:612
0.566:618
0.566:624
0.567:592
0.567:559
0.567:550
0.567:566
0.567:585
0.568:605
0.568:610
0.568:621
0.568:629
0.568:620
0.574:619
0.575:651
0.575:698
0.575:691
0.575:650
0.576:604
0.576:571
0.576:555
0.576:564
0.576:592
0.577:607
0.577:612
0.578:652
0.578:653
0.578:601
0.579:550
0.579:521
0.579:523
0.579:543
0.581:593
0.581:639
0.581:685
0.581:713
0.582:714
0.582:717
0.582:677
0.582:626
0.582:579
0.597:579
0.602:554
0.602:543
0.602:523
0.602:500
0.602:481
0.603:460
0.603:414
0.603:402
0.603:417
0.603:445
0.606:499
0.606:561
0.606:577
0.606:592
0.606:595
0.607:585
0.607:567
0.607:546
0.608:528
0.609:528
0.610:529
0.610:540
0.610:554
0.610:539
0.611:502
0.611:476
0.611:471
0.611:474
0.611:477
0.630:479
0.630:479
0.630:478
0.630:470
0.630:474
0.630:473
0.630:464
0.630:478
0.634:509
0.634:520
0.634:510
0.635:496
0.635:472
0.635:481
0.635:518
0.635:557
0.635:584
0.639:575
0.639:567
0.639:547
0.639:530
0.639:536
0.639:544
0.639:545
0.639:537
0.639:522
0.639:509
0.642:511
0.642:511
0.642:526
0.658:526
0.659:525
0.659:502
0.659:511
0.659:536
0.660:557
0.660:522
0.662:473
0.662:462
0.664:466
0.664:472
0.664:477
0.665:455
0.665:450
0.665:451
0.665:472
0.667:526
0.667:563
0.668:545
0.668:501
0.668:478
0.668:479
0.669:487
0.669:484
0.669:468
0.670:465
0.671:464
0.671:455
0.672:446
0.672:440
0.687:452
0.687:463
0.688:482
0.688:490
0.692:465
0.692:460
0.692:480
0.692:493
0.692:476
0.692:447
0.692:449
0.692:465
0.693:474
0.695:491
0.696:504
0.696:493
0.696:478
0.696:471
0.696:466
0.696:465
0.697:450
0.697:449
0.697:443
0.699:451
0.699:462
0.700:490
0.700:516
0.700:528
0.700:515
0.700:492
0.715:492
0.716:461
0.716:458
0.720:492
0.720:502
0.720:483
0.720:451
0.720:439
0.721:436
0.721:425
0.721:422
0.721:422
0.724:421
0.724:415
0.725:415
0.725:422
0.726:440
0.726:451
0.726:457
0.726:453
0.727:448
0.727:450
0.728:450
0.729:456
0.729:451
0.729:447
0.730:439
0.730:439
0.730:440
0.731:440
0.749:442
0.750:440
0.750:423
0.750:425
0.750:461
0.751:468
0.751:447
0.751:424
0.752:426
0.753:436
0.753:438
0.754:451
0.754:479
0.754:497
0.754:484
0.755:466
0.755:462
0.755:460
0.756:458
0.757:447
0.757:435
0.757:429
0.757:417
0.757:421
0.757:430
0.757:421
0.757:415
0.759:411
0.761:414
0.761:420
0.777:420
0.777:427
0.777:441
0.777:444
0.777:422
0.777:399
0.778:421
0.778:466
0.781:477
0.781:462
0.781:434
0.781:410
0.781:397
0.782:387
0.782:416
0.782:439
0.782:438
0.782:426
0.786:427
0.786:427
0.786:430
0.786:418
0.786:410
0.786:417
0.787:421
0.787:422
0.787:423
0.790:417
0.790:414
0.790:413
0.806:418
0.807:417
0.807:414
0.807:422
0.807:428
0.810:432
0.810:431
0.811:428
0.811:417
0.811:456
0.811:503
0.811:525
0.811:494
0.811:461
0.812:457
0.814:454
0.815:467
0.815:473
0.815:474
0.816:483
0.816:488
0.816:487
0.816:483
0.817:499
0.818:498
0.818:480
0.819:446
0.819:431
0.819:431
0.820:438
0.835:438
0.835:449
0.835:446
0.836:450
0.839:460
0.839:458
0.839:456
0.839:477
0.839:481
0.840:472
0.840:494
0.840:543
0.840:567
0.840:532
0.843:464
0.843:422
0.843:430
0.843:442
0.843:460
0.844:470
0.844:472
0.844:473
0.844:486
0.847:488
0.847:475
0.847:463
0.847:443
0.847:442
0.848:445
0.848:446
0.863:451
0.867:443
0.867:443
0.868:448
0.868:456
0.868:454
0.868:454
0.868:457
0.868:469
0.869:476
0.871:461
0.871:459
0.872:463
0.872:453
0.872:468
0.872:472
0.872:490
0.872:520
0.874:519
0.874:487
0.876:464
0.877:468
0.877:461
0.877:450
0.877:468
0.877:504
0.878:505
0.878:483
0.878:455
0.879:446
0.897:446
0.897:448
0.897:459
0.897:480
0.898:478
0.898:483
0.898:502
0.898:499
0.898:471
0.899:441
0.901:453
0.901:478
0.901:497
0.901:508
0.901:510
0.902:525
0.902:536
0.902:506
0.902:478
0.904:474
0.904:474
0.904:495
0.904:537
0.904:563
0.904:524
0.905:460
0.905:406
0.905:380
0.906:377
0.908:376
0.924:366
0.925:357
0.925:330
0.925:292
0.925:258
0.925:205
0.928:158
0.929:120
0.929:86
0.929:32
0.929:17
0.929:17
0.929:16
0.930:17
0.930:18
0.930:18
0.930:18
0.930:18
0.932:19
0.932:19
0.932:19
0.932:19
0.934:19
0.934:19
0.934:19
0.934:19
0.934:18
0.934:18
0.934:17
0.935:17
0.954:17
0.954:56
0.954:144
0.954:221
0.954:316
0.954:430
0.958:548
0.958:635
0.958:667
0.958:668
0.958:657
0.958:631
0.958:597
0.958:581
0.958:565
0.962:555
0.962:554
0.962:556
0.962:554
0.962:558
0.963:562
0.963:560
0.963:554
0.963:541
0.963:549
0.965:554
0.965:579
0.967:603
0.967:626
0.968:618
0.982:590
0.982:562
0.987:551
0.987:570
0.987:588
0.988:591
0.988:586
0.988:571
0.989:560
0.989:549
0.989:546
0.989:564
0.991:604
0.991:617
0.991:616
0.991:598
0.991:587
0.991:587
0.991:621
0.991:620
0.992:590
0.994:556
0.994:544
0.995:552
0.995:563
0.995:556
0.995:560
0.995:566
0.996:557
0.996:554
1.011:554
1.015:570
1.015:571
1.015:559
1.015:551
1.015:548
1.016:543
1.016:545
1.016:542
1.016:555
1.016:568
1.019:559
1.019:538
1.019:521
1.019:512
1.020:526
1.020:541
1.020:532
1.020:532
1.020:528
1.022:521
1.022:509
1.022:517
1.024:531
1.024:548
1.024:551
1.024:536
1.024:523
1.025:518
1.025:507
1.044:510
1.044:501
1.045:481
1.045:469
1.045:469
1.045:486
1.045:547
1.046:607
1.048:621
1.048:573
1.048:526
1.048:503
1.049:502
1.049:492
1.049:486
1.049:494
1.049:492
1.052:494
1.052:488
1.052:495
1.053:499
1.053:491
1.053:485
1.053:492
1.053:501
1.053:491
1.054:478
1.056:477
1.056:483
1.057:490
1.072:490
1.073:481
1.073:469
1.073:474
1.074:503
1.074:567
1.074:573
1.077:528
1.077:486
1.077:443
1.077:444
1.077:452
1.077:448
1.077:454
1.078:461
1.078:464
1.081:455
1.081:444
1.081:439
1.081:446
1.082:440
1.082:455
1.082:490
1.082:500
1.082:478
1.082:459
1.084:463
1.084:473
1.085:482
1.085:466
1.100:460
1.101:466
1.101:482
1.101:473
1.105:467
1.105:450
1.105:429
1.105:422
1.105:425
1.106:434
1.106:432
1.106:439
1.106:447
1.109:435
1.110:435
1.110:432
1.110:427
1.110:424
1.111:426
1.111:442
1.111:466
1.112:465
1.112:433
1.113:407
1.113:393
1.114:397
1.114:414
1.115:420
1.115:408
1.115:402
1.129:402
1.129:403
1.130:399
1.134:390
1.134:387
1.135:385
1.135:384
1.135:397
1.135:403
1.135:406
1.136:411
1.136:406
1.138:392
1.138:391
1.138:391
1.139:390
1.139:398
1.139:402
1.139:398
1.139:392
1.140:387
1.140:378
1.142:395
1.143:423
1.143:435
1.143:438
1.143:420
1.143:403
1.143:395
1.144:413
1.162:427
1.162:435
1.162:421
1.164:410
1.164:392
1.164:389
1.164:392
1.165:418
1.165:462
1.166:473
1.166:470
1.167:442
1.167:427
1.167:420
1.167:423
1.167:432
1.168:426
1.168:422
1.168:411
1.170:407
1.170:437
1.171:458
1.171:477
1.171:494
1.171:492
1.171:480
1.172:467
1.172:447
1.174:456
1.175:469
1.191:469
1.191:490
1.191:504
1.192:501
1.192:489
1.192:489
1.192:498
1.193:533
1.194:561
1.196:546
1.196:509
1.196:503
1.197:501
1.197:501
1.197:507
1.198:516
1.198:520
1.198:527
1.199:527
1.199:536
1.199:540
1.201:521
1.201:515
1.201:522
1.201:524
1.201:543
1.201:553
1.203:561
1.203:561
1.204:551
1.219:558
1.219:548
1.220:545
1.220:544
1.220:547
1.224:545
1.224:543
1.224:538
1.224:538
1.225:544
1.225:542
1.225:540
1.225:548
1.225:540
1.228:534
1.228:565
1.228:595
1.228:589
1.229:559
1.229:533
1.229:536
1.229:545
1.229:561
1.229:581
1.232:589
1.232:580
1.233:559
1.233:541
1.233:536
1.233:537
1.248:537
1.248:531
1.248:515
1.248:496
1.253:514
1.253:533
1.253:569
1.253:586
1.254:568
1.254:557
1.254:531
1.254:528
1.255:511
1.255:512
1.256:528
1.257:540
1.257:530
1.257:538
1.257:563
1.257:586
1.257:572
1.257:527
1.259:505
1.261:500
1.261:496
1.261:510
1.261:530
1.262:532
1.262:518
1.262:519
1.277:519
1.282:553
1.282:553
1.282:515
1.282:500
1.283:503
1.283:527
1.283:536
1.283:525
1.283:510
1.285:514
1.285:515
1.285:503
1.286:510
1.286:516
1.286:519
1.286:529
1.286:540
1.286:544
1.287:527
1.289:511
1.289:497
1.290:492
1.290:486
1.290:462
1.290:468
1.290:486
1.290:509
1.290:557
1.293:521
1.310:521
1.310:487
1.310:499
1.310:500
1.310:501
1.311:506
1.311:493
1.311:494
1.311:503
1.314:504
1.314:504
1.314:501
1.314:495
1.315:482
1.315:469
1.315:458
1.315:469
1.315:481
1.316:500
1.319:532
1.319:534
1.319:523
1.319:518
1.320:513
1.320:497
1.320:485
1.320:485
1.320:488
1.321:491
1.322:491
1.338:488
1.338:488
1.338:484
1.339:483
1.339:495
1.339:499
1.342:480
1.342:483
1.342:516
1.342:530
1.342:511
1.342:475
1.344:463
1.344:470
1.344:486
1.344:509
1.347:523
1.347:508
1.347:469
1.347:456
1.348:475
1.348:490
1.348:501
1.348:497
1.348:477
1.351:454
1.351:442
1.351:462
1.351:498
1.352:502
1.367:502
1.367:492
1.367:487
1.367:494
1.367:508
1.372:520
1.372:520
1.372:489
1.372:451
1.373:433
1.373:437
1.373:452
1.373:469
1.373:491
1.374:503
1.375:508
1.375:519
1.375:500
1.375:478
1.377:461
1.377:462
1.377:465
1.377:463
1.378:483
1.380:506
1.380:502
1.380:494
1.380:487
1.381:489
1.381:482
1.396:468
1.396:458
1.400:458
1.400:462
1.400:471
1.400:471
1.401:451
1.401:440
1.401:459
1.401:487
1.401:507
1.402:478
1.404:440
1.404:417
1.404:418
1.405:439
1.405:452
1.405:446
1.405:463
1.406:471
1.406:460
1.407:451
1.408:458
1.408:451
1.408:427
1.408:412
1.408:425
1.409:457
1.409:486
1.409:468
1.424:468
1.429:451
1.429:430
1.429:422
1.429:435
1.429:444
1.429:441
1.429:439
1.430:435
1.430:441
1.430:460
1.433:458
1.433:460
1.434:469
1.434:468
1.434:466
1.434:478
1.434:484
1.435:475
1.435:464
1.437:456
1.437:453
1.437:443
1.437:446
1.437:455
1.438:453
1.438:456
1.438:458
1.438:467
1.438:494
1.457:502
1.458:493
1.458:482
1.458:482
1.458:476
1.458:468
1.459:474
1.459:498
1.461:514
1.462:524
1.462:532
1.462:526
1.462:508
1.463:480
1.463:483
1.463:517
1.463:533
1.465:502
1.466:485
1.466:491
1.466:507
1.466:540
1.466:545
1.466:548
1.467:527
1.467:504
1.467:499
1.469:499
1.469:493
1.469:494
1.485:494
1.486:506
1.486:509
1.486:518
1.486:518
1.486:518
1.486:509
1.490:493
1.490:490
1.490:500
1.490:515
1.490:528
1.490:543
1.490:541
1.491:529
1.491:502
1.494:500
1.494:511
1.494:505
1.494:498
1.495:494
1.495:503
1.495:509
1.495:515
1.495:527
1.495:528
1.498:510
1.498:504
1.499:506
1.499:523
1.514:523
1.515:504
1.515:489
1.518:479
1.518:497
1.519:513
1.519:530
1.519:572
1.519:579
1.519:534
1.519:497
1.519:499
1.519:498
1.522:496
1.522:493
1.522:498
1.522:503
1.522:511
1.523:515
1.523:518
1.523:517
1.523:515
1.524:506
1.527:498
1.527:508
1.527:506
1.528:501
1.528:484
1.528:462
1.528:460
1.542:460
1.542:468
1.544:504
1.547:584
1.547:620
1.548:577
1.548:515
1.548:484
1.548:484
1.548:497
1.549:507
1.549:529
1.551:555
1.552:548
1.552:543
1.552:539
1.552:527
1.552:509
1.552:496
1.553:491
1.553:503
1.553:517
1.555:498
1.556:462
1.556:411
1.556:367
1.556:339
1.556:315
1.556:278
1.556:228
1.576:184
1.576:147
1.576:111
1.577:64
1.577:17
1.577:17
1.577:17
1.577:17
1.577:17
1.577:17
1.578:18
1.580:18
1.580:18
1.580:19
1.580:19
1.581:19
1.581:19
1.581:19
1.581:19
1.581:18
1.581:18
1.582:18
1.584:17
1.584:19
1.584:96
1.584:185
1.584:285
1.584:390
1.584:511
1.584:609
1.604:609
1.605:647
1.605:660
1.605:679
1.606:697
1.606:688
1.606:655
1.606:634
1.609:609
1.609:593
1.609:571
1.609:558
1.610:549
1.610:541
1.610:576
1.610:642
1.611:674
1.611:625
1.613:585
1.613:573
1.613:583
1.613:590
1.613:596
1.614:597
1.614:591
1.614:591
1.614:587
1.616:582
1.616:585
1.617:596
1.633:601
1.633:608
1.633:603
1.633:602
1.633:602
1.637:609
1.637:624
1.637:617
1.638:613
1.638:607
1.638:601
1.638:610
1.638:617
1.638:601
1.641:588
1.642:588
1.642:582
1.642:582
1.642:584
1.642:584
1.643:589
1.643:592
1.643:589
1.643:578
1.645:572
1.645:574
1.645:582
1.646:577
1.646:569
1.646:549
1.662:549
1.662:555
1.662:597
1.663:618
1.666:640
1.666:661
1.666:656
1.666:626
1.667:593
1.667:575
1.667:561
1.667:537
1.667:526
1.668:530
1.670:541
1.670:545
1.670:540
1.671:528
1.671:521
1.671:524
1.671:530
1.671:534
1.672:540
1.674:553
1.674:563
1.674:561
1.675:541
1.675:528
1.675:550
1.675:571
1.691:550
1.695:514
1.695:498
1.695:517
1.695:534
1.695:541
1.695:552
1.695:571
1.696:570
1.696:543
1.699:517
1.699:509
1.699:516
1.699:517
1.699:504
1.700:495
1.700:485
1.700:490
1.700:507
1.700:524
1.703:533
1.703:533
1.703:524
1.703:538
1.704:546
1.704:519
1.704:493
1.705:507
1.705:530
1.707:524
1.723:524
1.723:512
1.723:491
1.724:481
1.724:479
1.724:479
1.724:494
1.724:496
1.724:489
1.727:486
1.727:481
1.727:479
1.727:480
1.728:487
1.728:487
1.728:477
1.728:467
1.728:462
1.728:473
1.731:472
1.731:461
1.731:448
1.731:449
1.732:480
1.732:501
1.732:484
1.732:478
1.732:480
1.732:467
1.735:446
1.752:458
1.752:489
1.752:481
1.752:457
1.752:443
1.752:451
1.756:470
1.756:469
1.756:472
1.757:466
1.757:447
1.757:426
1.757:421
1.757:436
1.758:454
1.758:483
1.760:490
1.760:480
1.761:445
1.761:441
1.762:442
1.762:439
1.763:454
1.763:458
1.763:444
1.764:439
1.765:426
1.765:417
1.766:425
1.766:424
1.780:424
1.780:416
1.780:411
1.781:410
1.781:401
1.785:391
1.785:394
1.785:408
1.785:419
1.785:427
1.785:419
1.785:404
1.786:392
1.786:399
1.786:426
1.788:440
1.788:412
1.788:375
1.790:368
1.790:396
1.790:404
1.790:397
1.790:398
1.790:442
1.793:478
1.793:477
1.793:440
1.793:419
1.794:429
1.794:434
1.810:429
1.810:423
1.813:411
1.813:403
1.813:425
1.813:487
1.814:552
1.814:542
1.814:480
1.814:433
1.814:436
1.814:456
1.817:469
1.818:463
1.818:469
1.818:480
1.818:476
1.819:468
1.819:469
1.819:472
1.819:470
1.821:477
1.821:487
1.821:486
1.821:503
1.822:522
1.822:526
1.822:533
1.822:538
1.822:549
1.838:549
1.842:566
1.842:596
1.842:596
1.843:568
1.843:521
1.843:484
1.843:495
1.843:522
1.843:551
1.843:559
1.846:567
1.846:578
1.846:587
1.847:585
1.847:572
1.847:562
1.847:565
1.847:575
1.847:586
1.850:594
1.850:582
1.850:571
1.850:560
1.851:561
1.851:566
1.851:578
1.851:584
1.851:581
1.852:588
1.870:597
1.870:582
1.871:577
1.871:588
1.871:589
1.871:589
1.872:579
1.872:556
1.875:544
1.875:559
1.875:566
1.875:580
1.875:603
1.875:613
1.875:601
1.877:591
1.877:576
1.879:562
1.879:546
1.879:544
1.879:556
1.879:561
1.880:551
1.880:550
1.880:565
1.880:582
1.880:581
1.882:578
1.882:571
1.882:565
1.899:565
1.899:569
1.900:585
1.900:609
1.900:628
1.900:597
1.901:573
1.903:545
1.903:535
1.904:548
1.904:543
1.904:533
1.905:519
1.905:533
1.905:553
1.905:561
1.908:565
1.908:554
1.908:539
1.908:550
1.908:559
1.909:552
1.909:551
1.909:544
1.909:541
1.909:534
1.912:519
1.912:511
1.912:501
1.912:510
1.928:544
1.928:603
1.928:623
1.932:606
1.933:569
1.933:524
1.933:522
1.933:552
1.933:564
1.933:545
1.933:527
1.933:529
1.933:545
1.936:552
1.936:550
1.936:538
1.936:523
1.936:515
1.936:513
1.937:526
1.937:526
1.937:522
1.937:537
1.940:542
1.940:518
1.941:526
1.941:564
1.941:551
1.941:543
1.941:566
1.957:566
1.957:559
1.957:538
1.961:513
1.961:516
1.961:517
1.961:515
1.962:519
1.962:501
1.962:496
1.962:507
1.962:508
1.965:515
1.965:515
1.965:525
1.965:539
1.965:549
1.966:534
1.966:519
1.966:506
1.966:497
1.966:504
1.969:518
1.969:533
1.969:547
1.969:559
1.970:540
1.970:535
1.970:535
1.970:515
1.990:479
1.990:448
1.990:464
1.990:484
1.991:500
1.991:504
1.991:514
1.991:508
1.991:498
1.994:484
1.994:485
1.994:489
1.994:484
1.994:464
1.994:474
1.995:518
1.995:540
1.995:534
1.997:525
1.997:508
1.998:494
1.998:492
1.998:499
1.998:489
1.998:483
1.998:490
1.999:495
1.999:488
2.001:485
2.001:490
2.018:490
2.018:491
2.018:473
2.018:483
2.019:496
2.019:519
2.019:506
2.019:492
2.022:484
2.023:489
2.023:494
2.023:493
2.023:496
2.023:500
2.023:509
2.024:501
2.024:487
2.024:494
2.026:489
2.026:467
2.026:470
2.027:465
2.027:480
2.027:479
2.027:464
2.027:453
2.027:444
2.029:465
2.031:473
2.031:475
2.047:466
2.047:462
2.047:451
2.048:452
2.048:456
2.051:481
2.051:475
2.052:462
2.052:456
2.052:466
2.053:484
2.053:508
2.053:510
2.053:477
2.054:445
2.055:415
2.055:447
2.055:478
2.055:478
2.055:470
2.055:455
2.055:449
2.056:457
2.056:457
2.059:455
2.059:487
2.060:509
2.060:493
2.060:451
2.060:446
2.075:446
2.075:449
2.076:463
2.076:491
2.080:506
2.080:480
2.080:480
2.080:490
2.081:490
2.081:493
2.081:502
2.081:506
2.081:495
2.083:489
2.084:503
2.085:509
2.085:507
2.085:514
2.085:522
2.085:521
2.086:516
2.086:531
2.086:533
2.088:526
2.088:527
2.089:534
2.089:530
2.089:539
2.089:535
2.089:517
2.104:531
2.108:565
2.108:560
2.109:537
2.109:529
2.109:516
2.109:506
2.109:496
2.109:506
2.110:519
2.112:535
2.112:549
2.112:558
2.112:548
2.112:535
2.112:520
2.114:505
2.114:498
2.114:493
2.114:504
2.116:527
2.116:536
2.116:521
2.117:514
2.117:524
2.117:543
2.117:553
2.117:546
2.118:510
2.120:503
2.137:503
2.137:510
2.138:524
2.138:536
2.138:520
2.139:508
2.139:520
2.139:533
2.139:547
2.141:556
2.142:555
2.143:537
2.143:527
2.144:518
2.144:512
2.144:518
2.144:531
2.145:532
2.145:515
2.145:507
2.146:506
2.146:506
2.146:506
2.146:515
2.147:521
2.147:512
2.147:509
2.147:510
2.148:517
2.149:526
2.165:523
2.165:512
2.165:511
2.166:515
2.166:518
2.166:523
2.170:520
2.170:514
2.170:507
2.170:504
2.170:508
2.171:517
2.171:515
2.171:513
2.171:513
2.171:515
2.174:520
2.174:524
2.175:533
2.175:532
2.175:538
2.175:554
2.175:562
2.176:555
2.176:541
2.178:515
2.178:476
2.178:448
2.178:429
2.179:419
2.194:419
2.194:405
2.194:396
2.195:388
2.195:362
2.199:330
2.199:299
2.199:265
2.199:216
2.200:168
2.200:114
2.200:70
2.200:29
2.200:17
2.200:17
2.201:17
2.203:17
2.203:17
2.203:17
2.203:18
2.203:18
2.204:18
2.204:18
2.204:18
2.204:18
2.204:18
2.204:18
2.204:17
2.206:17
2.206:17
2.222:57
2.223:111
2.227:166
2.227:225
2.228:344
2.228:517
2.228:641
2.228:684
2.228:690
2.228:697
2.229:699
2.229:700
2.231:692
2.232:662
2.232:655
2.232:653
2.232:651
2.232:662
2.232:665
2.233:640
2.233:621
2.235:615
2.235:624
2.236:612
2.236:596
2.236:606
2.236:610
2.236:616
2.236:622
2.237:613
2.252:613
2.255:588
2.255:576
2.257:577
2.257:580
2.257:583
2.257:574
2.257:565
2.257:568
2.258:594
2.258:614
2.260:615
2.260:603
2.261:585
2.261:582
2.261:588
2.261:606
2.261:618
2.261:598
2.262:576
2.264:594
2.264:617
2.264:624
2.264:607
2.265:594
2.265:605
2.265:610
2.265:617
2.265:608
2.266:582
2.284:581
2.284:579
2.285:583
2.285:578
2.285:544
2.285:536
2.285:545
2.288:549
2.289:539
2.289:527
2.289:526
2.289:532
2.289:566
2.290:616
2.290:622
2.290:584
2.290:556
2.293:544
2.293:542
2.293:533
2.294:551
2.294:575
2.294:570
2.294:541
2.294:521
2.294:523
2.295:518
2.296:499
2.297:496
2.297:513
2.312:513
2.312:537
2.312:595
2.312:637
2.314:631
2.314:591
2.314:570
2.317:546
2.317:535
2.317:540
2.317:561
2.318:558
2.318:521
2.318:521
2.318:547
2.318:541
2.322:511
2.322:477
2.322:470
2.322:479
2.322:494
2.322:511
2.324:539
2.324:544
2.324:527
2.324:513
2.325:515
2.325:541
2.325:559
2.326:545
2.341:528
2.341:495
2.342:459
2.345:463
2.346:491
2.346:518
2.346:518
2.346:494
2.346:488
2.347:499
2.347:524
2.347:528
2.347:523
2.350:523
2.350:508
2.350:494
2.350:487
2.351:503
2.351:513
2.351:510
2.351:508
2.351:499
2.352:497
2.354:496
2.354:492
2.355:482
2.356:485
2.356:486
2.356:480
2.356:470
2.370:470
2.371:471
2.374:492
2.375:516
2.375:507
2.375:490
2.375:499
2.375:495
2.377:481
2.377:479
2.377:456
2.377:440
2.379:439
2.379:451
2.379:455
2.379:444
2.380:456
2.380:456
2.380:447
2.380:431
2.380:431
2.381:439
2.382:443
2.382:444
2.382:446
2.382:455
2.382:464
2.382:463
2.384:456
2.384:439
2.403:426
2.403:418
2.404:414
2.404:426
2.404:451
2.404:484
2.404:483
2.406:441
2.406:420
2.408:426
2.408:437
2.408:427
2.408:425
2.409:420
2.409:421
2.409:456
2.410:493
2.410:475
2.411:440
2.411:426
2.411:434
2.411:439
2.411:444
2.411:441
2.411:439
2.411:427
2.413:429
2.413:448
2.415:434
2.415:407
2.432:407
2.433:392
2.433:398
2.433:412
2.433:450
2.433:489
2.434:481
2.434:455
2.435:431
2.437:427
2.437:441
2.437:448
2.437:448
2.438:443
2.438:439
2.438:421
2.439:415
2.440:431
2.440:459
2.440:468
2.441:498
2.441:519
2.441:518
2.441:524
2.441:524
2.441:516
2.441:505
2.444:517
2.444:540
2.444:556
2.461:565
2.461:544
2.461:533
2.461:532
2.462:539
2.464:548
2.464:542
2.464:538
2.464:533
2.464:542
2.464:576
2.465:605
2.465:586
2.465:560
2.468:542
2.468:532
2.469:544
2.469:573
2.469:582
2.469:604
2.470:625
2.470:620
2.470:611
2.470:617
2.472:618
2.472:599
2.472:574
2.474:551
2.474:534
2.475:539
2.489:539
2.489:576
2.489:607
2.489:621
2.494:609
2.494:593
2.494:587
2.494:590
2.494:595
2.494:591
2.494:577
2.494:570
2.495:582
2.497:616
2.497:647
2.497:635
2.497:587
2.498:568
2.498:565
2.498:572
2.498:579
2.499:581
2.499:587
2.501:573
2.501:567
2.501:588
2.502:630
2.502:627
2.502:600
2.502:584
2.518:578
2.522:572
2.522:570
2.522:573
2.522:566
2.523:566
2.523:576
2.523:593
2.523:592
2.524:589
2.526:603
2.526:617
2.526:618
2.527:585
2.527:557
2.528:552
2.528:557
2.528:551
2.529:548
2.529:554
2.530:574
2.530:572
2.530:561
2.531:548
2.531:559
2.531:574
2.531:566
2.532:550
2.532:540
2.534:514
2.551:514
2.551:511
2.552:523
2.552:567
2.552:594
2.553:609
2.553:585
2.554:563
2.554:561
2.555:559
2.555:543
2.555:517
2.555:526
2.556:548
2.556:573
2.556:560
2.556:576
2.556:584
2.557:582
2.559:580
2.560:554
2.560:513
2.561:506
2.561:519
2.561:544
2.562:568
2.562:561
2.562:551
2.562:536
2.563:515
2.579:520
2.579:543
2.580:548
2.580:541
2.581:535
2.581:540
2.583:549
2.584:547
2.585:534
2.585:528
2.585:521
2.585:535
2.585:552
2.585:562
2.585:557
2.585:550
2.587:533
2.587:530
2.588:523
2.588:516
2.588:518
2.588:527
2.588:524
2.588:514
2.589:525
2.591:562
2.591:565
2.591:540
2.592:512
2.592:505
2.608:505
2.609:513
2.609:507
2.609:508
2.610:508
2.612:511
2.613:502
2.613:485
2.613:486
2.614:491
2.614:505
2.614:558
2.614:581
2.614:548
2.614:508
2.616:495
2.616:496
2.616:510
2.617:512
2.617:514
2.617:515
2.618:510
2.618:514
2.618:537
2.619:550
2.620:540
2.620:512
2.620:490
2.621:483
2.621:491
2.636:496
2.637:479
2.641:486
2.641:488
2.642:480
2.642:494
2.642:525
2.643:543
2.644:538
2.644:528
2.644:528
2.645:519
2.645:501
2.646:506
2.646:501
2.646:478
2.646:462
2.646:456
2.646:462
2.647:471
2.647:475
2.649:485
2.649:512
2.649:530
2.650:520
2.650:510
2.650:508
2.650:507
2.651:504
2.651:498
2.665:498
2.669:492
2.669:486
2.669:479
2.669:474
2.669:462
2.669:450
2.670:443
2.670:436
2.670:434
2.670:435
2.674:458
2.674:488
2.674:489
2.675:466
2.675:435
2.675:425
2.675:453
2.676:478
2.676:501
2.678:510
2.678:496
2.678:473
2.678:454
2.678:454
2.678:470
2.678:476
2.679:477
2.679:457
2.679:445
2.698:443
2.698:458
2.698:475
2.699:487
2.699:499
2.699:504
2.700:496
2.701:490
2.701:482
2.701:484
2.703:486
2.703:464
2.703:466
2.703:476
2.703:474
2.703:478
2.704:472
2.706:477
2.706:496
2.707:515
2.707:531
2.708:550
2.708:551
2.708:541
2.708:526
2.708:523
2.708:520
2.710:506
2.710:505
2.710:511
2.727:511
2.727:527
2.728:531
2.728:525
2.729:529
2.729:531
2.730:534
2.731:536
2.731:536
2.732:546
2.732:564
2.732:577
2.733:591
2.733:568
2.733:537
2.733:527
2.734:527
2.735:522
2.735:518
2.735:544
2.736:551
2.736:535
2.736:517
2.737:521
2.737:525
2.737:537
2.738:563
2.738:559
2.738:566
2.739:574
2.755:557
2.755:536
2.755:523
2.760:525
2.760:554
2.761:625
2.761:605
2.761:540
2.762:519
2.762:487
2.762:479
2.762:486
2.763:531
2.763:581
2.764:563
2.764:501
2.764:438
2.764:433
2.765:470
2.765:521
2.765:575
2.766:603
2.767:594
2.767:529
2.768:451
2.768:426
2.768:415
2.769:404
2.769:410
2.769:462
2.784:462
2.784:518
2.788:568
2.788:632
2.788:661
2.788:641
2.789:658
2.789:665
2.789:610
2.789:589
2.789:551
2.790:514
2.792:515
2.792:536
2.792:537
2.792:505
2.792:482
2.792:475
2.794:456
2.794:462
2.794:484
2.794:510
2.796:519
2.796:518
2.796:502
2.796:501
2.797:524
2.797:536
2.797:536
2.797:530
2.817:543
2.817:569
2.817:552
2.817:511
2.818:473
2.818:456
2.818:462
2.818:465
2.819:461
2.821:431
2.821:400
2.821:378
2.822:349
2.822:313
2.822:283
2.822:246
2.822:197
2.822:152
2.825:101
2.825:50
2.825:22
2.825:17
2.825:17
2.826:17
2.826:17
2.826:17
2.826:17
2.827:18
2.827:18
2.828:18
2.845:18
2.845:18
2.845:18
2.845:18
2.845:18
2.847:17
2.847:17
2.847:17
2.847:39
2.848:106
2.849:165
2.850:229
2.850:297
2.850:401
2.850:522
2.851:621
2.851:671
2.851:700
2.851:703
2.853:691
2.854:680
2.854:660
2.854:639
2.854:622
2.855:603
2.855:619
2.856:623
2.856:594
2.856:569
2.857:578
2.874:568
2.874:550
2.874:564
2.875:593
2.875:613
2.878:610
2.878:630
2.878:636
2.878:619
2.879:611
2.879:609
2.879:599
2.879:586
2.879:571
2.883:555
2.883:559
2.883:580
2.883:609
2.883:640
2.884:651
2.884:640
2.884:625
2.884:619
2.884:623
2.886:612
2.886:583
2.886:556
2.886:553
2.886:536
2.887:538
2.903:538
2.903:570
2.903:553
2.903:543
2.907:594
2.907:633
2.907:614
2.908:582
2.908:562
2.908:562
2.909:556
2.909:568
2.909:601
2.911:611
2.911:584
2.911:577
2.911:586
2.911:606
2.912:639
2.912:661
2.912:642
2.912:635
2.912:669
2.915:667
2.915:649
2.915:612
2.916:557
2.916:514
2.916:465
2.916:455
2.933:511
2.936:595
2.936:655
2.936:656
2.936:623
2.936:602
2.936:579
2.937:560
2.937:543
2.937:511
2.939:550
2.939:623
2.940:566
2.940:508
2.940:504
2.941:515
2.941:505
2.941:518
2.941:504
2.941:490
2.944:529
2.944:566
2.944:519
2.944:481
2.944:462
2.945:459
2.945:494
2.945:552
2.945:563
2.948:569
2.965:569
2.965:611
2.965:617
2.966:586
2.966:545
2.966:515
2.966:547
2.966:578
2.967:626
2.969:649
2.969:492
2.969:412
2.969:447
2.969:520
2.970:588
2.970:643
2.970:623
2.970:520
2.970:508
2.972:491
2.972:489
2.972:458
2.972:450
2.972:462
2.974:494
2.974:488
2.974:471
2.975:489
2.976:502
2.976:461
2.992:456
2.992:451
2.992:440
2.992:474
2.994:518
2.994:536
2.997:568
2.997:621
2.997:513
2.997:477
2.998:482
2.998:466
2.998:397
2.998:396
2.998:422
2.999:437
3.000:446
3.001:449
3.001:442
3.001:441
3.001:448
3.001:457
3.002:459
3.002:456
3.002:438
3.005:433
3.005:414
3.005:400
3.005:397
3.005:398
3.021:398
3.022:417
3.022:430
3.022:437
3.022:438
3.026:442
3.026:442
3.026:448
3.026:458
3.026:471
3.027:486
3.027:506
3.027:507
3.027:468
3.027:437
3.030:419
3.030:419
3.030:422
3.030:440
3.031:460
3.031:462
3.031:445
3.031:442
3.031:433
3.034:404
3.034:397
3.034:387
3.034:395
3.035:400
3.035:390
3.050:382
3.050:405
3.054:417
3.054:416
3.054:421
3.054:423
3.055:429
3.055:433
3.055:433
3.056:447
3.056:468
3.058:460
3.058:460
3.059:463
3.059:464
3.059:469
3.059:474
3.060:481
3.060:491
3.060:493
3.060:503
3.063:512
3.063:491
3.063:446
3.063:413
3.064:393
3.064:424
3.064:488
3.064:535
3.064:511
3.079:511
3.083:479
3.083:485
3.084:520
3.084:544
3.084:556
3.084:588
3.084:611
3.085:582
3.085:543
3.085:531
3.087:512
3.087:505
3.087:513
3.088:518
3.088:507
3.088:508
3.088:519
3.088:547
3.089:554
3.091:537
3.091:556
3.091:599
3.092:618
3.092:577
3.092:516
3.093:483
3.093:466
3.093:484
3.093:507
3.111:512
3.111:523
3.111:539
3.112:566
3.112:586
3.112:619
3.112:659
3.116:695
3.116:661
3.116:574
3.116:595
3.117:611
3.117:539
3.117:526
3.117:537
3.117:583
3.117:629
3.120:659
3.120:618
3.120:597
3.121:560
3.121:534
3.121:515
3.122:510
3.122:537
3.122:550
3.123:517
3.124:520
3.125:530
3.125:547
3.140:547
3.141:563
3.141:586
3.142:605
3.142:631
3.142:637
3.143:640
3.144:610
3.144:578
3.144:557
3.144:542
3.145:537
3.145:539
3.145:551
3.145:553
3.145:559
3.148:564
3.148:579
3.148:586
3.148:578
3.150:580
3.150:571
3.150:565
3.150:567
3.150:567
3.150:563
3.152:546
3.152:532
3.152:529
3.152:538
3.168:555
3.169:583
3.169:581
3.173:565
3.173:552
3.173:532
3.173:518
3.174:522
3.174:532
3.174:543
3.175:559
3.175:563
3.175:557
3.177:551
3.177:562
3.177:575
3.177:574
3.178:548
3.178:521
3.178:506
3.178:517
3.178:527
3.181:536
3.181:583
3.181:595
3.181:586
3.181:563
3.181:538
3.182:531
3.182:539
3.197:539
3.197:543
3.202:533
3.202:545
3.202:570
3.202:543
3.203:545
3.203:570
3.203:606
3.203:637
3.203:633
3.204:588
3.205:541
3.207:515
3.207:482
3.207:456
3.207:433
3.207:428
3.207:467
3.208:478
3.208:498
3.210:501
3.210:492
3.210:501
3.210:502
3.210:503
3.211:493
3.211:507
3.211:525
3.211:550
3.230:575
3.230:574
3.230:549
3.230:533
3.230:525
3.231:531
3.231:516
3.231:497
3.231:500
3.234:485
3.234:477
3.235:467
3.235:471
3.235:495
3.235:523
3.235:545
3.235:554
3.235:566
3.238:562
3.239:566
3.239:582
3.240:597
3.240:599
3.240:580
3.240:533
3.240:495
3.240:475
3.241:442
3.242:445
3.242:463
3.259:463
3.259:478
3.259:508
3.259:539
3.259:551
3.259:588
3.259:611
3.259:587
3.262:538
3.262:476
3.262:447
3.262:452
3.262:458
3.262:448
3.262:450
3.262:497
3.262:519
3.266:517
3.267:519
3.267:524
3.267:493
3.267:451
3.267:447
3.267:464
3.267:494
3.267:541
3.267:563
3.270:558
3.271:535
3.271:491
3.288:471
3.288:494
3.288:479
3.288:508
3.288:548
3.291:544
3.292:546
3.292:527
3.292:503
3.292:466
3.292:455
3.292:458
3.294:470
3.294:479
3.296:479
3.296:482
3.296:475
3.296:492
3.297:477
3.297:472
3.297:491
3.297:475
3.297:480
3.297:532
3.300:533
3.300:486
3.300:477
3.300:483
3.300:474
3.301:472
3.315:472
3.315:461
3.317:473
3.317:533
3.321:595
3.321:608
3.321:611
3.321:557
3.321:502
3.321:469
3.321:462
3.321:454
3.322:450
3.325:431
3.325:406
3.325:399
3.325:402
3.325:412
3.326:419
3.326:413
3.326:405
3.326:408
3.326:420
3.328:415
3.329:419
3.329:489
3.329:567
3.329:567
3.329:539
3.330:510
3.344:476
3.348:474
3.348:454
3.349:468
3.349:482
3.349:482
3.349:472
3.349:451
3.349:447
3.349:467
3.352:479
3.352:479
3.354:485
3.354:483
3.354:486
3.354:496
3.355:500
3.355:508
3.355:517
3.355:555
3.357:532
3.357:522
3.357:517
3.357:512
3.358:529
3.358:546
3.358:554
3.358:531
3.358:531
3.361:526
3.378:526
3.378:529
3.379:531
3.379:550
3.379:563
3.379:531
3.379:501
3.380:527
3.380:514
3.382:515
3.382:504
3.382:495
3.383:510
3.383:527
3.383:548
3.383:554
3.383:541
3.383:501
3.383:471
3.385:492
3.385:524
3.387:537
3.387:509
3.387:486
3.387:495
3.387:542
3.387:581
3.388:579
3.389:556
3.389:521
3.406:520
3.406:527
3.406:543
3.406:551
3.407:555
3.407:550
3.411:553
3.411:534
3.411:516
3.411:539
3.411:494
3.412:471
3.412:475
3.412:485
3.412:494
3.412:515
3.414:522
3.415:506
3.415:518
3.415:506
3.415:511
3.415:512
3.415:518
3.415:533
3.415:526
3.418:506
3.418:495
3.419:493
3.419:519
3.419:521
3.435:521
3.435:494
3.435:498
3.435:504
3.435:513
3.439:522
3.439:510
3.440:492
3.440:501
3.440:523
3.440:535
3.441:540
3.441:516
3.441:507
3.441:507
3.443:509
3.443:507
3.443:506
3.444:502
3.445:515
3.445:527
3.445:550
3.445:581
3.445:565
3.447:569
3.447:530
3.447:508
3.448:533
3.448:534
3.448:537
3.463:530
3.464:513
3.467:495
3.467:475
3.468:486
3.468:491
3.468:477
3.468:427
3.468:395
3.468:383
3.469:376
3.471:313
3.472:243
3.472:202
3.472:179
3.472:159
3.472:147
3.472:108
3.472:24
3.474:17
3.474:17
3.474:17
3.476:17
3.476:18
3.476:18
3.476:18
3.476:19
3.476:18
3.477:18
3.477:19
3.491:19
3.497:19
3.497:18
3.497:18
3.497:18
3.497:18
3.497:17
3.498:17
3.498:105
3.498:209
3.498:323
3.498:427
3.500:543
3.500:621
3.501:673
3.501:696
3.501:712
3.501:705
3.501:697
3.502:686
3.502:645
3.502:620
3.505:605
3.505:607
3.505:586
3.505:579
3.505:577
3.505:573
3.505:562
3.505:582
3.525:611
3.525:615
3.525:603
3.525:604
3.525:610
3.526:609
3.526:597
3.529:573
3.529:564
3.529:593
3.530:628
3.530:650
3.530:675
3.530:671
3.530:645
3.530:639
3.530:622
3.533:612
3.533:620
3.534:616
3.534:605
3.534:601
3.534:621
3.534:643
3.534:664
3.534:666
3.537:660
3.537:663
3.537:664
3.537:645
3.552:645
3.554:639
3.554:672
3.554:689
3.554:651
3.554:580
3.558:524
3.558:479
3.558:467
3.558:487
3.558:523
3.558:553
3.558:562
3.559:550
3.559:546
3.559:571
3.562:591
3.562:596
3.562:576
3.562:554
3.563:546
3.563:555
3.563:545
3.563:519
3.563:502
3.564:496
3.566:501
3.566:528
3.566:570
3.566:606
3.582:599
3.583:589
3.583:581
3.586:563
3.586:542
3.586:554
3.586:584
3.586:565
3.586:563
3.587:580
3.587:580
3.587:563
3.587:540
3.590:521
3.590:510
3.590:501
3.590:503
3.590:513
3.590:527
3.591:547
3.591:549
3.591:542
3.594:532
3.595:520
3.595:513
3.595:523
3.595:528
3.595:528
3.595:528
3.595:528
3.611:528
3.611:516
3.615:507
3.615:508
3.616:516
3.616:528
3.616:526
3.616:510
3.617:499
3.617:508
3.617:509
3.618:521
3.619:523
3.620:519
3.620:521
3.620:508
3.621:491
3.621:477
3.621:478
3.621:481
3.621:515
3.623:538
3.623:503
3.623:462
3.624:457
3.624:464
3.624:466
3.624:473
3.624:479
3.624:482
3.644:470
3.644:464
3.644:467
3.644:473
3.644:490
3.645:506
3.645:488
3.645:475
3.645:484
3.648:480
3.648:488
3.648:503
3.648:498
3.648:466
3.649:448
3.649:451
3.649:475
3.649:479
3.652:477
3.652:476
3.652:472
3.652:475
3.652:470
3.653:460
3.653:493
3.653:482
3.653:461
3.654:463
3.656:453
3.656:441
3.673:441
3.673:436
3.673:440
3.673:454
3.673:468
3.673:485
3.673:497
3.674:459
3.676:411
3.676:395
3.677:390
3.677:395
3.677:404
3.677:404
3.677:412
3.678:431
3.678:437
3.680:446
3.681:450
3.681:448
3.681:443
3.681:432
3.681:419
3.681:413
3.682:438
3.682:467
3.682:464
3.684:435
3.684:415
3.684:432
3.701:444
3.701:435
3.702:435
3.702:425
3.702:402
3.705:400
3.705:422
3.705:429
3.705:423
3.706:425
3.706:422
3.706:428
3.706:458
3.707:465
3.709:465
3.709:458
3.709:427
3.710:417
3.710:423
3.710:427
3.710:439
3.710:450
3.710:460
3.711:491
3.713:517
3.713:510
3.713:501
3.714:484
3.714:475
3.714:472
3.729:472
3.729:480
3.730:508
3.730:532
3.734:529
3.734:528
3.734:528
3.734:532
3.735:538
3.735:506
3.735:511
3.735:526
3.735:513
3.737:514
3.737:532
3.738:540
3.738:554
3.738:603
3.738:648
3.738:623
3.738:566
3.738:518
3.738:514
3.742:542
3.742:557
3.742:557
3.743:546
3.743:550
3.743:542
3.743:522
3.758:500
3.762:509
3.762:531
3.762:549
3.763:574
3.763:608
3.763:655
3.763:652
3.763:596
3.763:561
3.767:571
3.767:587
3.767:570
3.767:579
3.768:594
3.768:573
3.768:536
3.768:533
3.768:584
3.768:603
3.771:583
3.771:563
3.771:579
3.771:600
3.772:615
3.772:626
3.772:624
3.772:604
3.772:572
3.774:535
3.791:535
3.791:523
3.791:534
3.792:555
3.792:563
3.792:555
3.792:588
3.792:592
3.792:577
3.796:566
3.796:549
3.796:543
3.796:549
3.796:526
3.797:509
3.797:503
3.797:527
3.797:551
3.797:567
3.800:576
3.800:576
3.800:554
3.800:556
3.800:571
3.800:568
3.800:555
3.800:540
3.800:528
3.803:523
3.803:522
3.819:512
3.820:519
3.820:527
3.820:544
3.820:565
3.820:575
3.824:567
3.824:552
3.824:574
3.824:574
3.824:569
3.825:560
3.825:542
3.825:511
3.825:483
3.828:502
3.828:518
3.828:521
3.828:528
3.829:528
3.829:515
3.829:508
3.829:517
3.829:534
3.830:547
3.832:562
3.832:548
3.832:532
3.832:544
3.833:550
3.848:550
3.848:548
3.849:541
3.849:530
3.849:519
3.852:519
3.852:517
3.852:504
3.852:521
3.852:534
3.854:535
3.854:499
3.854:476
3.854:489
3.855:504
3.856:491
3.856:490
3.857:497
3.857:506
3.857:515
3.857:526
3.857:539
3.858:528
3.858:524
3.860:523
3.860:511
3.860:508
3.861:510
3.861:512
3.861:511
3.877:513
3.877:506
3.881:497
3.882:493
3.882:504
3.882:505
3.882:502
3.882:499
3.882:493
3.883:499
3.883:500
3.885:506
3.885:515
3.885:517
3.885:509
3.885:491
3.887:494
3.887:514
3.887:542
3.887:530
3.887:504
3.890:490
3.890:488
3.890:499
3.890:514
3.891:512
3.891:520
3.891:515
3.891:484
3.891:488
3.906:488
3.910:504
3.910:522
3.910:534
3.910:536
3.911:516
3.911:497
3.911:478
3.911:477
3.911:497
3.914:516
3.914:497
3.914:462
3.915:427
3.915:418
3.915:459
3.915:512
3.915:552
3.915:542
3.916:517
3.918:503
3.918:507
3.918:503
3.918:486
3.920:489
3.920:487
3.920:493
3.920:497
3.920:493
3.920:485
3.938:464
3.939:457
3.939:456
3.939:451
3.939:457
3.939:474
3.939:470
3.943:459
3.943:444
3.943:496
3.943:567
3.944:589
3.944:567
3.944:539
3.944:520
3.944:498
3.945:496
3.947:497
3.947:502
3.947:493
3.947:476
3.948:480
3.948:487
3.948:477
3.948:445
3.948:447
3.951:460
3.951:467
3.951:489
3.951:491
3.967:491
3.968:487
3.968:493
3.968:528
3.968:554
3.968:539
3.971:502
3.971:481
3.972:486
3.972:486
3.972:476
3.972:471
3.972:473
3.972:463
3.972:464
3.972:459
3.976:471
3.976:487
3.976:498
3.976:500
3.976:499
3.977:500
3.977:487
3.977:473
3.977:465
3.980:483
3.980:502
3.980:511
3.980:516
3.980:515
3.996:515
3.996:490
3.996:464
4.000:436
4.000:427
4.000:422
4.000:422
4.001:426
4.001:435
4.001:461
4.001:477
4.001:526
4.002:542
4.004:517
4.004:469
4.004:435
4.004:433
4.005:426
4.005:415
4.005:410
4.005:406
4.005:398
4.008:420
4.008:458
4.008:474
4.008:484
4.008:473
4.009:457
4.009:454
4.009:440
4.025:440
4.025:432
4.029:434
4.029:421
4.029:427
4.029:463
4.029:494
4.030:488
4.030:479
4.030:477
4.030:469
4.030:475
4.033:477
4.034:501
4.034:509
4.034:518
4.034:521
4.034:486
4.034:461
4.035:451
4.035:444
4.037:439
4.037:455
4.038:470
4.038:479
4.038:481
4.038:491
4.039:509
4.039:518
4.039:511
4.057:521
4.057:543
4.058:546
4.058:556
4.058:541
4.058:510
4.058:482
4.059:461
4.059:453
4.061:477
4.062:514
4.062:541
4.062:521
4.062:515
4.062:528
4.062:520
4.063:520
4.063:517
4.064:502
4.066:487
4.066:491
4.066:495
4.066:493
4.066:491
4.066:492
4.066:489
4.066:490
4.067:498
4.070:498
4.070:506
4.086:506
4.086:519
4.086:520
4.087:523
4.087:526
4.087:509
4.087:496
4.087:502
4.089:517
4.090:535
4.090:536
4.090:526
4.090:511
4.091:495
4.091:491
4.091:495
4.091:522
4.094:523
4.094:533
4.095:532
4.095:529
4.095:522
4.095:521
4.095:521
4.096:525
4.096:516
4.096:501
4.098:496
4.098:487
4.099:475
4.114:458
4.114:489
4.114:563
4.114:579
4.114:529
4.118:489
4.119:491
4.119:482
4.119:484
4.119:500
4.120:517
4.120:535
4.120:540
4.120:533
4.123:529
4.123:530
4.123:532
4.123:531
4.123:530
4.123:521
4.123:496
4.124:485
4.124:484
4.124:504
4.126:519
4.127:512
4.127:486
4.127:473
4.127:467
4.127:482
4.143:482
4.144:509
4.144:506
4.144:498
4.147:513
4.147:538
4.147:567
4.148:597
4.148:602
4.148:575
4.148:547
4.148:533
4.149:531
4.152:524
4.152:493
4.152:437
4.152:419
4.153:387
4.153:359
4.153:340
4.153:324
4.154:302
4.154:282
4.155:227
4.155:162
4.156:94
4.156:35
4.156:23
4.156:17
4.156:17
4.171:17
4.176:17
4.176:18
4.176:18
4.176:19
4.177:19
4.177:19
4.177:19
4.177:19
4.177:19
4.177:19
4.177:19
4.178:19
4.180:19
4.180:18
4.180:18
4.180:17
4.180:17
4.180:42
4.181:140
4.181:257
4.181:385
4.181:523
4.184:609
4.184:699
4.184:734
4.185:735
4.185:704
4.185:665
4.185:635
4.204:635
4.205:627
4.205:639
4.205:642
4.205:623
4.205:615
4.205:622
4.205:609
4.205:602
4.209:598
4.209:589
4.209:587
4.209:588
4.210:615
4.210:624
4.210:604
4.210:565
4.210:558
4.211:577
4.212:601
4.212:628
4.212:639
4.214:618
4.214:618
4.214:636
4.214:648
4.214:630
4.214:605
4.217:612
4.217:623
4.233:608
4.233:591
4.233:584
4.234:573
4.234:564
4.234:563
4.237:591
4.237:627
4.238:637
4.238:641
4.238:636
4.238:614
4.238:592
4.238:585
4.239:577
4.242:607
4.242:651
4.242:652
4.242:639
4.243:618
4.243:599
4.243:571
4.243:561
4.243:568
4.244:567
4.246:546
4.246:542
4.246:570
4.246:588
4.247:613
4.262:613
4.262:613
4.263:567
4.263:533
4.263:544
4.266:555
4.266:554
4.266:554
4.266:554
4.267:567
4.267:560
4.267:548
4.267:553
4.267:572
4.268:576
4.271:558
4.271:532
4.271:518
4.271:521
4.271:522
4.271:535
4.271:544
4.271:544
4.271:533
4.275:525
4.275:510
4.275:518
4.275:525
4.275:532
4.276:544
4.290:538
4.290:542
4.295:545
4.295:554
4.295:535
4.295:521
4.295:503
4.296:483
4.296:476
4.296:472
4.296:480
4.299:501
4.299:517
4.299:518
4.299:516
4.299:512
4.299:501
4.299:510
4.300:527
4.300:531
4.300:518
4.304:504
4.304:495
4.304:490
4.304:500
4.304:506
4.305:497
4.305:474
4.305:466
4.305:468
4.319:468
4.324:480
4.324:482
4.324:478
4.324:475
4.325:470
4.325:472
4.325:487
4.325:512
4.325:500
4.328:470
4.328:451
4.328:443
4.328:456
4.329:453
4.329:436
4.329:425
4.329:437
4.329:464
4.330:503
4.332:515
4.332:527
4.332:499
4.332:465
4.333:456
4.333:456
4.333:455
4.333:459
4.333:453
4.334:454
4.352:452
4.352:454
4.352:460
4.352:455
4.353:455
4.353:451
4.353:435
4.357:408
4.357:389
4.357:383
4.357:371
4.357:404
4.357:430
4.357:423
4.358:389
4.358:409
4.358:462
4.360:472
4.360:460
4.360:432
4.361:424
4.361:427
4.361:404
4.361:376
4.361:359
4.362:358
4.364:393
4.364:442
4.364:467
4.364:458
4.381:458
4.381:439
4.382:416
4.382:403
4.382:412
4.382:420
4.385:418
4.385:411
4.385:411
4.385:423
4.385:430
4.386:434
4.386:434
4.386:428
4.386:424
4.386:440
4.389:443
4.389:435
4.389:434
4.389:414
4.389:402
4.390:413
4.390:413
4.390:410
4.390:413
4.393:416
4.394:412
4.394:419
4.394:430
4.394:457
4.409:464
4.409:462
4.409:466
4.414:484
4.414:502
4.414:510
4.414:509
4.415:485
4.415:462
4.415:444
4.415:442
4.415:452
4.415:462
4.418:463
4.418:469
4.418:478
4.418:488
4.418:497
4.419:512
4.419:531
4.419:531
4.419:530
4.422:525
4.422:525
4.422:532
4.422:545
4.422:541
4.422:525
4.422:523
4.422:521
4.438:521
4.438:525
4.443:522
4.443:531
4.443:543
4.443:539
4.443:565
4.444:584
4.444:572
4.444:564
4.444:582
4.444:603
4.447:614
4.447:614
4.447:603
4.447:598
4.448:593
4.448:563
4.448:562
4.448:554
4.448:542
4.451:534
4.451:529
4.451:540
4.451:557
4.452:563
4.452:576
4.452:580
4.452:578
4.452:560
4.471:555
4.471:564
4.471:598
4.472:627
4.472:631
4.472:579
4.472:540
4.472:547
4.472:572
4.475:599
4.475:596
4.476:581
4.476:555
4.476:550
4.476:556
4.476:566
4.476:566
4.477:562
4.479:551
4.479:531
4.479:550
4.479:572
4.480:591
4.480:590
4.480:564
4.480:548
4.480:558
4.481:567
4.482:571
4.482:574
4.499:574
4.499:552
4.500:538
4.500:527
4.500:536
4.500:543
4.500:563
4.501:554
4.504:536
4.504:525
4.504:539
4.505:559
4.505:578
4.505:588
4.505:574
4.505:557
4.505:544
4.508:540
4.508:524
4.508:508
4.508:506
4.509:508
4.509:515
4.509:509
4.509:499
4.509:517
4.510:535
4.512:530
4.512:550
4.512:562
4.528:563
4.528:553
4.528:530
4.528:523
4.533:531
4.533:533
4.533:535
4.533:535
4.534:521
4.534:515
4.534:507
4.534:493
4.534:471
4.535:473
4.537:486
4.538:501
4.538:524
4.538:544
4.538:526
4.538:500
4.539:498
4.539:537
4.539:564
4.539:558
4.541:535
4.541:519
4.541:505
4.541:498
4.541:500
4.542:504
4.556:504
4.557:490
4.557:493
4.557:492
4.561:495
4.561:507
4.561:522
4.562:527
4.562:512
4.562:507
4.562:512
4.562:545
4.563:543
4.565:544
4.565:526
4.565:516
4.565:529
4.566:540
4.566:544
4.566:545
4.566:537
4.566:518
4.567:504
4.569:466
4.569:453
4.570:441
4.570:457
4.570:524
4.570:563
4.570:567
4.590:551
4.590:510
4.590:474
4.590:465
4.591:471
4.591:475
4.591:486
4.591:489
4.591:488
4.592:486
4.594:488
4.594:497
4.594:486
4.594:474
4.594:477
4.594:478
4.594:485
4.594:497
4.594:503
4.598:507
4.598:524
4.598:519
4.598:506
4.599:509
4.599:505
4.599:492
4.599:495
4.599:494
4.599:490
4.602:501
4.618:501
4.618:505
4.618:483
4.618:458
4.619:445
4.619:461
4.619:474
4.619:477
4.619:468
4.623:463
4.623:467
4.623:468
4.623:475
4.623:506
4.623:525
4.624:542
4.624:514
4.624:496
4.624:504
4.626:518
4.626:552
4.627:538
4.627:489
4.627:448
4.627:432
4.627:433
4.628:434
4.628:455
4.631:471
4.631:512
4.646:555
4.646:586
4.648:593
4.648:544
4.648:492
4.648:473
4.651:490
4.651:522
4.651:532
4.652:531
4.652:515
4.652:490
4.654:482
4.654:484
4.654:481
4.655:482
4.656:471
4.656:467
4.656:481
4.656:482
4.657:476
4.657:481
4.657:485
4.657:484
4.657:473
4.659:476
4.659:482
4.659:490
4.659:507
4.660:540
4.675:540
4.675:549
4.676:509
4.676:480
4.676:476
4.680:474
4.680:488
4.680:470
4.680:467
4.681:475
4.681:478
4.681:479
4.681:482
4.681:480
4.684:491
4.684:497
4.684:499
4.685:502
4.685:497
4.685:479
4.685:471
4.685:473
4.686:485
4.686:480
4.687:475
4.688:456
4.688:446
4.688:434
4.688:437
4.688:439
4.704:454
4.704:482
4.708:492
4.708:491
4.708:464
4.709:455
4.709:458
4.709:460
4.709:449
4.709:456
4.709:445
4.713:440
4.713:460
4.713:447
4.714:442
4.714:472
4.714:490
4.714:472
4.714:444
4.715:438
4.715:446
4.717:445
4.717:442
4.717:439
4.717:442
4.718:463
4.718:469
4.718:475
4.718:480
4.718:480
4.732:480
4.737:480
4.737:468
4.737:459
4.738:447
4.738:442
4.738:440
4.738:448
4.738:471
4.739:527
4.741:524
4.741:508
4.741:488
4.741:467
4.742:484
4.742:495
4.742:520
4.742:534
4.742:548
4.742:547
4.745:544
4.745:533
4.746:519
4.746:503
4.746:499
4.746:501
4.746:494
4.747:482
4.747:479
4.749:486
4.766:495
4.766:501
4.766:500
4.766:506
4.766:514
4.766:540
4.766:571
4.770:569
4.770:557
4.771:546
4.771:515
4.771:497
4.771:492
4.771:472
4.772:467
4.772:484
4.772:492
4.774:489
4.774:472
4.774:472
4.774:495
4.774:519
4.775:526
4.775:527
4.775:515
4.775:506
4.778:511
4.778:513
4.778:514
4.778:502
4.794:502
4.794:497
4.794:510
4.795:517
4.795:534
4.795:553
4.799:527
4.799:499
4.799:478
4.799:475
4.800:484
4.800:496
4.800:500
4.800:502
4.800:527
4.801:529
4.803:520
4.804:505
4.804:495
4.804:490
4.804:519
4.805:551
4.805:556
4.805:544
4.805:535
4.806:532
4.806:517
4.807:508
4.807:514
4.807:511
4.823:503
4.823:519
4.823:508
4.828:492
4.828:494
4.828:497
4.828:504
4.828:512
4.829:530
4.829:549
4.829:547
4.829:555
4.829:548
4.831:526
4.832:516
4.832:524
4.832:544
4.832:534
4.832:520
4.833:502
4.833:476
4.833:470
4.835:493
4.835:508
4.835:511
4.835:523
4.837:529
4.837:518
4.837:502
4.837:498
4.852:498
4.852:501
4.856:515
4.856:510
4.856:495
4.856:476
4.857:458
4.857:456
4.857:437
4.858:405
4.858:366
4.858:323
4.860:287
4.860:256
4.860:242
4.860:233
4.861:196
4.861:148
4.861:85
4.861:27
4.861:17
4.861:17
4.864:17
4.864:17
4.864:17
4.864:17
4.865:18
4.865:18
4.866:18
4.866:18
4.884:19
4.884:18
4.884:18
4.885:18
4.885:18
4.885:17
4.885:18
4.885:95
4.886:180
4.886:247
4.888:321
4.888:386
4.888:483
4.888:600
4.888:680
4.888:717
4.888:733
4.890:728
4.890:712
4.890:687
4.893:678
4.893:680
4.894:672
4.894:653
4.894:645
4.894:626
4.894:618
4.895:617
4.895:623
4.897:629
4.912:629
4.912:628
4.914:611
4.914:604
4.914:578
4.914:560
4.914:540
4.915:533
4.917:538
4.918:536
4.918:536
4.918:531
4.918:528
4.918:522
4.918:544
4.919:576
4.919:601
4.921:616
4.922:601
4.922:569
4.922:594
4.922:623
4.922:613
4.922:601
4.922:597
4.922:566
4.923:550
4.925:558
4.925:570
4.925:560
4.942:550
4.942:531
4.942:520
4.942:501
4.946:524
4.946:590
4.946:636
4.946:635
4.947:596
4.947:578
4.947:565
4.947:567
4.947:549
4.947:546
4.950:542
4.950:535
4.950:544
4.950:543
4.951:529
4.951:517
4.951:507
4.951:497
4.951:494
4.954:491
4.954:503
4.954:523
4.954:551
4.954:563
4.955:567
4.955:566
4.970:566
4.970:550
4.970:547
4.970:541
4.974:547
4.975:559
4.975:555
4.975:551
4.975:533
4.975:527
4.976:516
4.976:517
4.976:527
4.979:524
4.979:515
4.979:512
4.980:503
4.980:522
4.980:543
4.980:525
4.980:503
4.980:486
4.981:464
4.982:462
4.983:460
4.983:468
4.983:525
4.983:545
4.983:556
4.984:532
5.003:500
5.004:488
5.004:500
5.004:501
5.004:518
5.004:543
5.004:544
5.005:513
5.005:490
5.005:490
5.008:487
5.008:482
5.008:466
5.008:451
5.008:461
5.008:488
5.009:525
5.009:530
5.009:513
5.012:469
5.012:435
5.012:462
5.012:507
5.013:504
5.013:480
5.013:482
5.013:484
5.013:485
5.013:517
5.015:513
5.032:513
5.033:472
5.033:457
5.033:450
5.033:464
5.033:491
5.033:492
5.033:493
5.034:472
5.036:440
5.036:423
5.036:437
5.036:450
5.036:452
5.036:436
5.036:439
5.036:449
5.036:434
5.036:432
5.040:434
5.041:432
5.041:456
5.041:468
5.042:456
5.042:429
5.042:402
5.042:400
5.042:420
5.044:438
5.044:446
5.060:441
5.060:420
5.061:383
5.061:397
5.061:418
5.062:415
5.065:407
5.065:398
5.065:408
5.065:450
5.066:470
5.066:459
5.066:446
5.066:437
5.066:424
5.069:419
5.069:395
5.070:370
5.070:363
5.070:358
5.070:372
5.071:377
5.071:379
5.071:392
5.071:404
5.073:401
5.073:389
5.073:381
5.074:378
5.074:406
5.089:406
5.090:419
5.090:407
5.090:393
5.091:385
5.094:415
5.094:449
5.094:470
5.094:478
5.095:468
5.095:468
5.095:428
5.095:375
5.095:367
5.098:381
5.098:391
5.098:399
5.098:412
5.099:420
5.099:429
5.099:440
5.099:449
5.099:448
5.100:442
5.102:447
5.102:487
5.103:511
5.103:516
5.103:514
5.103:484
5.117:461
5.118:476
5.122:492
5.122:510
5.122:540
5.123:544
5.123:509
5.123:497
5.123:493
5.123:504
5.123:503
5.126:494
5.126:514
5.126:546
5.126:562
5.127:548
5.127:537
5.127:532
5.127:547
5.127:576
5.128:575
5.131:550
5.131:524
5.131:540
5.131:575
5.132:609
5.132:619
5.132:612
5.132:600
5.132:580
5.147:580
5.151:561
5.151:554
5.151:566
5.151:587
5.152:595
5.152:598
5.152:587
5.153:571
5.153:552
5.154:549
5.154:543
5.155:548
5.155:568
5.155:561
5.155:551
5.156:558
5.156:587
5.156:599
5.156:580
5.159:556
5.159:553
5.159:573
5.159:582
5.160:595
5.160:616
5.160:644
5.160:655
5.160:642
5.163:615
5.180:602
5.180:604
5.180:616
5.180:624
5.180:589
5.180:575
5.180:581
5.184:572
5.184:543
5.184:530
5.184:528
5.185:536
5.185:571
5.185:598
5.185:620
5.185:614
5.186:606
5.187:593
5.188:581
5.188:574
5.188:577
5.188:576
5.189:579
5.189:586
5.189:567
5.189:561
5.192:577
5.192:584
5.192:566
5.192:530
5.208:530
5.208:524
5.208:549
5.208:566
5.208:571
5.208:566
5.212:550
5.212:534
5.212:539
5.212:552
5.212:559
5.212:580
5.214:574
5.214:562
5.214:545
5.214:532
5.216:535
5.216:537
5.216:551
5.216:553
5.217:554
5.217:550
5.217:547
5.217:544
5.217:540
5.220:545
5.220:563
5.220:573
5.220:574
5.220:586
5.236:604
5.236:617
5.236:577
5.241:526
5.241:489
5.241:477
5.241:477
5.241:500
5.242:514
5.242:526
5.242:520
5.242:517
5.242:544
5.245:580
5.245:589
5.245:586
5.245:561
5.246:539
5.246:523
5.246:522
5.246:525
5.246:491
5.249:467
5.249:466
5.249:456
5.250:443
5.250:486
5.250:527
5.250:538
5.250:518
5.264:518
5.265:515
5.269:529
5.270:548
5.270:534
5.271:510
5.271:528
5.271:560
5.271:570
5.271:533
5.272:522
5.272:531
5.273:535
5.273:539
5.274:526
5.274:518
5.275:510
5.275:515
5.275:510
5.275:508
5.275:494
5.278:482
5.278:505
5.278:514
5.278:490
5.279:476
5.279:491
5.279:514
5.279:524
5.279:526
5.298:546
5.298:537
5.298:516
5.298:506
5.298:489
5.298:489
5.299:490
5.299:495
5.302:498
5.302:507
5.302:494
5.302:486
5.302:502
5.304:527
5.304:532
5.304:526
5.304:517
5.304:515
5.307:506
5.307:519
5.307:521
5.307:515
5.308:519
5.308:504
5.308:483
5.308:485
5.308:474
5.309:455
5.310:445
5.311:464
5.326:464
5.327:489
5.327:519
5.327:521
5.327:539
5.327:555
5.327:553
5.328:531
5.330:507
5.331:505
5.331:513
5.331:538
5.331:535
5.331:526
5.331:511
5.332:496
5.332:475
5.335:446
5.336:443
5.336:446
5.336:463
5.336:479
5.336:533
5.337:556
5.337:524
5.337:503
5.337:517
5.339:534
5.339:521
5.339:519
5.355:535
5.355:530
5.355:509
5.355:504
5.360:503
5.360:493
5.360:488
5.360:493
5.361:518
5.361:487
5.361:468
5.361:471
5.361:487
5.362:494
5.364:494
5.364:505
5.364:518
5.365:490
5.365:467
5.365:469
5.365:493
5.365:534
5.366:559
5.368:527
5.368:476
5.368:458
5.368:457
5.369:448
5.370:435
5.370:422
5.384:422
5.384:412
5.384:423
5.389:437
5.389:452
5.389:458
5.389:460
5.390:454
5.390:478
5.390:504
5.390:514
5.390:502
5.391:496
5.393:486
5.393:447
5.393:427
5.393:442
5.393:454
5.393:459
5.393:478
5.394:481
5.394:479
5.394:475
5.396:486
5.396:496
5.396:498
5.396:488
5.396:481
5.396:469
5.396:443
5.417:430
5.417:448
5.417:479
5.417:494
5.418:482
5.418:471
5.418:471
5.418:476
5.419:505
5.419:550
5.421:555
5.421:557
5.421:546
5.421:526
5.422:539
5.422:528
5.422:513
5.422:509
5.422:516
5.425:512
5.425:518
5.425:530
5.425:537
5.425:526
5.425:510
5.426:494
5.426:489
5.426:504
5.426:544
5.429:578
5.445:578
5.445:563
5.445:531
5.445:526
5.445:528
5.445:523
5.445:510
5.445:499
5.446:501
5.450:521
5.450:546
5.450:551
5.450:542
5.451:544
5.451:536
5.451:538
5.451:526
5.451:505
5.454:502
5.454:494
5.454:502
5.454:530
5.454:536
5.455:535
5.455:527
5.455:526
5.455:546
5.455:542
5.458:529
5.458:527
5.474:537
5.474:531
5.474:527
5.474:531
5.475:523
5.475:503
5.478:496
5.478:492
5.478:490
5.478:491
5.479:485
5.479:468
5.479:515
5.479:548
5.479:526
5.483:509
5.483:515
5.483:520
5.483:522
5.483:505
5.483:491
5.483:494
5.484:510
5.484:544
5.484:570
5.486:560
5.486:508
5.486:505
5.486:533
5.487:541
5.502:541
5.502:518
5.502:526
5.502:506
5.502:485
5.507:472
5.507:492
5.507:516
5.507:543
5.508:539
5.508:529
5.508:532
5.508:551
5.508:560
5.511:568
5.511:549
5.511:543
5.511:550
5.512:543
5.512:534
5.512:524
5.512:505
5.512:487
5.513:495
5.515:509
5.515:522
5.515:507
5.516:524
5.516:518
5.516:487
5.531:481
5.531:461
5.535:442
5.535:424
5.535:412
5.535:381
5.536:366
5.536:345
5.536:292
5.536:251
5.536:217
5.540:150
5.540:84
5.540:70
5.540:60
5.540:50
5.541:17
5.541:17
5.541:17
5.541:17
5.541:17
5.541:17
5.541:17
5.544:17
5.544:18
5.544:18
5.544:18
5.544:17
5.545:17
5.545:19
5.559:19
5.564:89
5.564:134
5.564:177
5.566:218
5.566:292
5.566:359
5.566:433
5.566:535
5.567:626
5.567:680
5.569:703
5.569:717
5.569:718
5.570:702
5.570:681
5.570:675
5.570:684
5.570:695
5.570:669
5.572:638
5.572:629
5.572:644
5.573:638
5.573:608
5.573:588
5.573:589
5.573:586
5.573:568
5.574:562
5.593:545
5.593:533
5.593:544
5.593:563
5.593:555
5.594:538
5.594:550
5.597:555
5.597:545
5.597:532
5.597:546
5.598:566
5.598:577
5.598:582
5.598:589
5.598:612
5.599:606
5.601:592
5.601:573
5.601:573
5.601:577
5.602:583
5.602:594
5.602:586
5.602:555
5.602:527
5.605:520
5.605:531
5.605:559
5.605:591
5.622:591
5.622:619
5.622:629
5.622:588
5.623:546
5.623:532
5.626:530
5.626:533
5.626:535
5.626:538
5.627:527
5.627:518
5.627:529
5.627:559
5.627:577
5.627:573
5.630:557
5.630:555
5.630:568
5.630:550
5.631:534
5.631:520
5.631:515
5.631:510
5.631:502
5.634:507
5.634:527
5.634:524
5.635:538
5.635:542
5.650:542
5.650:547
5.650:549
5.654:537
5.654:518
5.654:519
5.654:558
5.654:598
5.654:597
5.654:535
5.655:491
5.655:475
5.659:474
5.659:486
5.659:489
5.659:504
5.660:542
5.660:557
5.660:540
5.660:514
5.660:506
5.660:513
5.663:524
5.663:537
5.663:544
5.663:546
5.664:526
5.664:503
5.664:476
5.664:462
5.679:462
5.679:474
5.683:478
5.684:475
5.684:459
5.684:454
5.684:446
5.684:445
5.685:458
5.685:465
5.686:475
5.686:497
5.687:518
5.687:504
5.687:504
5.687:495
5.688:487
5.688:484
5.688:477
5.688:471
5.689:479
5.691:482
5.691:487
5.691:487
5.691:457
5.692:442
5.692:443
5.692:449
5.692:479
5.692:504
5.711:496
5.711:492
5.712:499
5.712:496
5.712:489
5.712:472
5.712:459
5.712:458
5.716:458
5.716:459
5.716:442
5.716:436
5.717:450
5.717:451
5.717:434
5.717:446
5.717:463
5.718:491
5.720:506
5.720:500
5.720:461
5.720:403
5.720:379
5.721:408
5.721:450
5.721:455
5.721:435
5.724:423
5.724:437
5.724:438
5.740:438
5.740:430
5.741:422
5.741:431
5.741:434
5.741:428
5.741:417
5.741:410
5.744:412
5.744:406
5.744:405
5.744:397
5.744:398
5.745:390
5.745:391
5.745:400
5.745:404
5.749:402
5.749:418
5.749:422
5.749:423
5.750:428
5.750:419
5.750:425
5.750:422
5.750:398
5.751:386
5.753:380
5.753:387
5.753:398
5.769:444
5.769:440
5.770:437
5.770:435
5.773:424
5.773:416
5.773:412
5.773:436
5.774:464
5.774:496
5.774:516
5.774:517
5.774:488
5.775:469
5.777:464
5.777:449
5.778:439
5.778:435
5.778:457
5.779:468
5.779:468
5.779:454
5.779:437
5.780:449
5.781:503
5.781:569
5.781:569
5.782:525
5.782:484
5.782:472
5.797:472
5.797:482
5.797:492
5.801:506
5.803:551
5.803:554
5.803:559
5.803:561
5.803:543
5.803:516
5.803:503
5.803:521
5.804:534
5.806:548
5.806:549
5.806:546
5.806:562
5.807:577
5.807:564
5.807:547
5.807:536
5.807:534
5.807:556
5.810:574
5.810:589
5.810:601
5.810:600
5.810:582
5.810:576
5.810:582
5.831:583
5.831:569
5.831:557
5.831:564
5.832:571
5.832:575
5.832:575
5.832:573
5.832:585
5.833:603
5.834:617
5.834:630
5.834:637
5.835:635
5.835:622
5.835:578
5.835:547
5.835:558
5.835:577
5.839:590
5.839:589
5.839:594
5.839:612
5.840:608
5.840:602
5.840:596
5.840:584
5.841:570
5.841:567
5.843:568
5.858:568
5.859:587
5.859:616
5.859:627
5.859:602
5.859:571
5.859:564
5.860:562
5.860:553
5.864:549
5.864:569
5.864:580
5.864:555
5.864:530
5.865:544
5.865:581
5.865:584
5.865:596
5.868:597
5.868:593
5.868:568
5.869:558
5.869:547
5.869:570
5.869:613
5.869:610
5.870:580
5.870:551
5.871:524
5.871:525
5.887:528
5.888:530
5.888:537
5.888:541
5.888:554
5.888:574
5.892:581
5.892:577
5.892:558
5.892:560
5.892:566
5.892:567
5.893:560
5.893:553
5.893:541
5.896:527
5.896:530
5.896:524
5.896:531
5.896:548
5.897:541
5.897:504
5.897:526
5.897:559
5.897:554
5.900:534
5.900:535
5.900:546
5.900:555
5.900:555
5.916:555
5.916:542
5.916:556
5.916:575
5.917:577
5.921:551
5.921:524
5.921:520
5.921:528
5.921:530
5.921:525
5.922:529
5.922:535
5.922:529
5.925:529
5.925:532
5.925:529
5.925:517
5.925:509
5.925:522
5.925:535
5.925:539
5.925:569
5.925:586
5.929:591
5.929:579
5.929:565
5.929:558
5.930:542
5.930:546
5.945:543
5.945:507
5.949:459
5.949:461
5.950:478
5.950:478
5.950:493
5.950:520
5.950:523
5.951:545
5.951:551
5.953:541
5.953:534
5.953:513
5.954:507
5.954:507
5.954:507
5.954:503
5.955:488
5.955:470
5.955:477
5.957:479
5.957:484
5.957:492
5.957:486
5.957:464
5.957:461
5.957:490
5.959:480
5.959:507
5.973:507
5.977:531
5.977:529
5.978:505
5.978:500
5.978:491
5.978:471
5.978:473
5.978:476
5.979:473
5.982:459
5.982:462
5.982:459
5.982:461
5.983:466
5.983:465
5.983:476
5.983:492
5.983:502
5.984:497
5.986:500
5.986:534
5.986:565
5.987:563
5.987:547
5.987:554
5.987:561
5.988:559
5.988:565
5.990:533
6.006:498
6.006:485
6.006:477
6.006:469
6.007:477
6.007:494
6.007:488
6.011:485
6.011:471
6.011:454
6.011:456
6.012:481
6.012:508
6.012:539
6.012:550
6.012:524
6.013:511
6.014:496
6.014:492
6.014:524
6.015:542
6.015:532
6.015:502
6.015:489
6.015:500
6.015:492
6.018:480
6.018:479
6.018:489
6.020:496
6.036:496
6.036:488
6.036:480
6.036:500
6.036:537
6.037:547
6.039:517
6.039:473
6.039:463
6.040:475
6.040:494
6.040:507
6.040:509
6.040:486
6.041:476
6.041:472
6.043:459
6.043:454
6.043:454
6.043:462
6.043:470
6.043:521
6.043:561
6.044:561
6.044:527
6.047:507
6.047:520
6.047:529
6.048:520
6.048:509
6.063:480
6.064:438
6.064:440
6.068:448
6.069:461
6.069:460
6.069:469
6.069:504
6.070:528
6.070:516
6.070:485
6.070:478
6.071:470
6.072:463
6.072:451
6.072:450
6.072:430
6.072:403
6.072:436
6.072:466
6.072:464
6.074:436
6.076:413
6.076:407
6.076:423
6.076:454
6.077:479
6.077:479
6.077:487
6.077:472
6.092:472
6.092:453
6.097:464
6.097:467
6.097:468
6.097:464
6.098:466
6.098:487
6.098:504
6.098:512
6.098:505
6.098:488
6.101:459
6.101:474
6.101:509
6.101:514
6.102:518
6.102:509
6.102:479
6.102:451
6.102:449
6.105:490
6.105:517
6.105:507
6.105:507
6.105:502
6.106:508
6.106:516
6.106:570
6.106:593
6.125:565
6.125:549
6.125:536
6.125:494
6.125:448
6.126:448
6.126:447
6.126:452
6.130:467
6.130:500
6.130:523
6.130:532
6.131:544
6.131:534
6.131:528
6.131:525
6.131:537
6.131:550
6.134:520
6.134:499
6.134:498
6.135:497
6.135:490
6.136:495
6.136:491
6.136:493
6.136:493
6.137:489
6.137:487
6.137:482
6.153:482
6.154:485
6.154:523
6.155:553
6.155:539
6.155:523
6.155:514
6.158:514
6.158:507
6.159:521
6.159:552
6.159:518
6.159:502
6.159:499
6.160:486
6.160:473
6.160:471
6.162:473
6.162:485
6.162:519
6.162:530
6.162:491
6.162:473
6.164:525
6.164:554
6.164:547
6.164:516
6.166:496
6.166:480
6.166:467
6.182:470
6.182:481
6.182:461
6.182:431
6.186:435
6.187:481
6.187:525
6.187:544
6.187:525
6.187:496
6.188:514
6.188:574
6.188:640
6.188:668
6.191:625
6.191:554
6.191:489
6.191:459
6.192:465
6.192:475
6.192:478
6.192:500
6.192:531
6.195:543
6.195:563
6.195:562
6.196:562
6.196:562
6.196:550
6.196:524
6.211:524
6.211:518
6.212:499
6.215:460
6.215:461
6.216:456
6.216:494
6.216:492
6.216:449
6.216:410
6.217:388
6.217:386
6.217:365
6.220:313
6.220:257
6.220:212
6.220:181
6.220:156
6.221:109
6.221:57
6.221:26
6.221:17
6.221:17
6.224:17
6.224:17
6.224:17
6.224:18
6.224:18
6.224:18
6.225:18
6.244:18
6.244:18
6.244:19
6.244:18
6.244:18
6.245:17
6.245:17
6.245:17
6.245:30
6.245:111
6.245:188
6.246:252
6.248:327
6.248:436
6.248:559
6.248:632
6.248:682
6.249:740
6.249:787
6.249:768
6.249:720
6.252:665
6.252:621
6.253:594
6.253:566
6.253:546
6.253:531
6.253:529
6.254:560
6.254:583
6.272:583
6.273:572
6.273:558
6.273:565
6.273:586
6.273:597
6.274:603
6.274:596
6.274:588
6.277:595
6.277:587
6.277:582
6.277:588
6.278:604
6.278:591
6.278:560
6.278:550
6.278:557
6.281:578
6.281:583
6.281:580
6.281:576
6.282:563
6.282:557
6.282:561
6.282:575
6.282:585
6.283:578
6.284:575
6.285:582
6.301:595
6.302:617
6.302:624
6.302:616
6.302:598
6.302:582
6.305:557
6.305:534
6.305:535
6.305:549
6.305:560
6.306:562
6.306:562
6.306:579
6.306:581
6.310:580
6.310:581
6.310:565
6.310:558
6.311:566
6.311:590
6.311:605
6.311:581
6.311:546
6.312:538
6.313:523
6.314:507
6.314:498
6.314:496
6.314:512
6.330:512
6.330:549
6.330:579
6.330:545
6.331:508
6.334:515
6.334:547
6.334:587
6.335:605
6.335:600
6.335:585
6.335:567
6.335:547
6.335:520
6.338:504
6.338:506
6.338:505
6.338:509
6.339:500
6.339:499
6.339:505
6.339:505
6.339:507
6.340:534
6.342:562
6.342:554
6.342:517
6.342:499
6.342:501
6.344:503
6.358:500
6.358:502
6.362:498
6.362:488
6.363:477
6.363:463
6.363:457
6.363:465
6.363:471
6.364:478
6.364:471
6.367:466
6.367:459
6.368:463
6.368:480
6.368:493
6.369:505
6.369:526
6.369:538
6.369:555
6.369:567
6.371:559
6.371:545
6.371:548
6.371:542
6.371:520
6.372:487
6.372:450
6.372:429
6.372:431
6.387:431
6.391:433
6.392:436
6.392:434
6.392:440
6.392:458
6.392:485
6.392:505
6.393:494
6.393:483
6.395:468
6.395:463
6.396:522
6.396:590
6.396:594
6.396:554
6.396:523
6.396:488
6.397:452
6.397:451
6.399:454
6.399:448
6.400:448
6.400:455
6.400:461
6.400:451
6.400:457
6.400:469
6.401:475
6.403:469
6.419:462
6.419:468
6.419:459
6.419:446
6.420:448
6.420:442
6.420:435
6.424:434
6.424:436
6.424:441
6.424:426
6.424:434
6.425:438
6.425:424
6.425:417
6.425:414
6.428:424
6.428:444
6.428:453
6.428:444
6.429:431
6.429:437
6.429:441
6.430:442
6.430:449
6.430:474
6.432:472
6.432:444
6.432:393
6.432:388
6.449:388
6.449:401
6.449:408
6.449:420
6.449:439
6.449:438
6.453:431
6.453:423
6.454:430
6.454:456
6.454:468
6.454:459
6.454:453
6.454:443
6.455:437
6.455:429
6.457:446
6.457:470
6.457:492
6.457:498
6.458:459
6.458:431
6.458:432
6.458:435
6.458:441
6.460:442
6.460:450
6.460:451
6.461:440
6.461:463
6.477:494
6.477:533
6.477:556
6.482:529
6.482:505
6.482:493
6.482:493
6.483:510
6.483:504
6.483:496
6.483:497
6.483:506
6.485:508
6.486:493
6.486:483
6.486:508
6.486:536
6.487:539
6.487:552
6.487:547
6.487:542
6.487:538
6.490:533
6.490:542
6.490:539
6.490:530
6.491:516
6.491:520
6.491:536
6.491:535
6.505:535
6.506:531
6.510:530
6.510:523
6.510:519
6.510:539
6.511:560
6.511:560
6.511:539
6.511:528
6.511:536
6.514:555
6.514:566
6.514:560
6.515:567
6.515:578
6.515:577
6.515:548
6.515:538
6.516:535
6.516:527
6.518:547
6.519:538
6.519:525
6.519:524
6.519:525
6.519:521
6.519:537
6.521:570
6.521:584
6.539:568
6.539:544
6.539:541
6.540:559
6.540:567
6.540:561
6.540:546
6.540:535
6.543:519
6.543:516
6.544:522
6.544:523
6.544:522
6.544:531
6.544:528
6.545:528
6.545:526
6.545:529
6.547:535
6.547:530
6.547:521
6.547:538
6.548:556
6.548:556
6.548:541
6.548:543
6.548:530
6.551:512
6.552:509
6.552:518
6.568:518
6.568:516
6.569:522
6.569:547
6.569:584
6.569:586
6.569:585
6.572:564
6.572:523
6.572:491
6.572:483
6.573:516
6.573:538
6.573:553
6.573:553
6.573:552
6.573:545
6.575:540
6.575:522
6.576:505
6.576:518
6.576:514
6.576:505
6.576:500
6.577:497
6.577:490
6.580:500
6.580:500
6.580:501
6.580:483
6.595:484
6.595:504
6.597:505
6.597:516
6.600:530
6.600:516
6.601:508
6.602:515
6.602:516
6.602:515
6.603:506
6.603:504
6.603:513
6.604:520
6.604:514
6.604:499
6.605:500
6.605:502
6.605:510
6.606:511
6.606:512
6.606:513
6.606:491
6.608:471
6.608:455
6.608:468
6.608:524
6.609:561
6.609:549
6.609:515
6.625:515
6.625:494
6.625:493
6.629:487
6.629:487
6.629:490
6.629:495
6.629:505
6.629:510
6.630:505
6.630:493
6.630:483
6.630:493
6.633:494
6.633:501
6.633:501
6.634:497
6.634:507
6.634:506
6.634:486
6.635:471
6.635:475
6.637:503
6.637:531
6.637:517
6.637:517
6.638:510
6.638:498
6.638:492
6.638:489
6.658:482
6.658:480
6.658:493
6.658:501
6.659:480
6.659:466
6.659:470
6.659:471
6.659:481
6.660:487
6.661:486
6.661:482
6.661:482
6.662:492
6.662:502
6.662:507
6.662:497
6.662:493
6.663:478
6.666:473
6.666:490
6.666:513
6.666:528
6.667:509
6.667:491
6.667:511
6.667:523
6.667:500
6.668:473
6.670:455
6.685:455
6.685:455
6.687:461
6.687:461
6.687:471
6.687:474
6.687:463
6.688:466
6.688:476
6.691:470
6.691:486
6.691:498
6.692:490
6.692:488
6.692:482
6.692:480
6.692:496
6.692:502
6.694:493
6.694:493
6.694:476
6.694:479
6.694:496
6.695:481
6.695:463
6.695:440
6.695:460
6.695:478
6.699:510
6.699:525
6.715:538
6.715:533
6.715:513
6.715:483
6.715:481
6.715:485
6.719:473
6.719:472
6.719:478
6.719:490
6.720:495
6.720:486
6.720:467
6.720:450
6.721:451
6.723:462
6.724:465
6.724:456
6.724:462
6.724:470
6.724:466
6.725:468
6.725:487
6.725:509
6.725:509
6.727:499
6.727:484
6.727:468
6.728:470
6.728:471
6.743:471
6.743:460
6.743:468
6.743:489
6.744:519
6.747:551
6.747:535
6.747:529
6.747:500
6.748:474
6.748:458
6.748:464
6.748:480
6.748:480
6.752:484
6.752:483
6.752:477
6.752:486
6.753:511
6.753:513
6.753:489
6.753:452
6.753:442
6.754:450
6.755:458
6.755:470
6.755:461
6.756:447
6.756:430
6.756:426
6.771:431
6.777:446
6.777:458
6.777:467
6.777:465
6.778:461
6.778:449
6.778:453
6.778:463
6.778:465
6.778:454
6.781:444
6.781:443
6.781:441
6.781:430
6.782:427
6.782:433
6.782:430
6.782:417
6.782:406
6.783:414
6.784:438
6.784:447
6.784:442
6.785:452
6.785:457
6.785:451
6.785:466
6.785:494
6.785:477
6.801:477
6.805:461
6.805:467
6.805:457
6.805:456
6.805:498
6.806:503
6.806:488
6.806:472
6.806:463
6.809:477
6.809:489
6.809:502
6.809:521
6.810:518
6.810:504
6.810:516
6.810:532
6.810:526
6.811:512
6.812:521
6.812:535
6.812:538
6.814:525
6.814:514
6.814:501
6.814:474
6.814:476
6.815:482
6.817:472
6.833:470
6.833:479
6.834:486
6.835:492
6.835:500
6.835:511
6.835:528
6.838:527
6.838:523
6.838:508
6.838:499
6.839:501
6.839:491
6.839:483
6.839:482
6.839:489
6.842:486
6.842:492
6.842:479
6.842:462
6.843:460
6.843:473
6.843:482
6.843:514
6.843:544
6.843:552
6.846:547
6.846:519
6.846:509
6.846:516
6.862:516
6.862:515
6.862:507
6.862:493
6.863:497
6.863:499
6.867:478
6.867:480
6.867:512
6.868:531
6.868:532
6.868:506
6.868:483
6.868:483
6.868:523
6.869:544
6.871:530
6.871:519
6.871:512
6.871:515
6.871:517
6.871:539
6.872:526
6.872:500
6.872:478
6.875:470
6.875:483
6.875:487
6.875:486
6.876:503
6.890:506
6.891:500
6.891:494
6.895:484
6.895:491
6.895:492
6.895:485
6.896:498
6.896:492
6.896:495
6.896:506
6.896:510
6.899:499
6.899:514
6.899:532
6.899:527
6.900:509
6.900:487
6.900:504
6.900:526
6.900:542
6.902:548
6.903:544
6.903:525
6.904:502
6.904:488
6.904:480
6.904:468
6.904:445
6.905:421
6.919:421
6.919:406
6.924:389
6.924:368
6.924:335
6.924:297
6.925:262
6.925:213
6.925:159
6.925:110
6.925:64
6.925:18
6.928:17
6.928:17
6.928:17
6.928:17
6.928:18
6.929:18
6.929:18
6.929:18
6.929:18
6.929:19
6.929:19
6.930:19
6.932:19
6.932:19
6.932:19
6.932:18
6.933:18
6.933:17
6.952:17
6.953:85
6.953:212
6.953:299
6.953:362
6.953:448
6.953:530
6.954:619
6.954:712
6.957:760
6.957:746
6.957:709
6.957:680
6.958:626
6.958:594
6.958:602
6.958:593
6.958:584
6.961:588
6.961:588
6.961:574
6.961:567
6.962:567
6.962:573
6.962:584
6.962:582
6.962:598
6.963:613
6.964:628
6.964:616
6.981:616
6.981:595
6.981:574
6.981:587
6.981:599
6.982:618
6.982:622
6.985:614
6.985:608
6.985:588
6.985:576
6.985:569
6.986:567
6.986:569
6.986:577
6.986:585
6.986:586
6.989:594
6.989:596
6.989:590
6.990:587
6.990:584
6.990:580
6.990:592
6.990:606
6.990:606
6.993:599
6.994:580
6.994:573
6.994:565
7.009:560
7.009:571
7.009:561
7.009:545
7.014:530
7.014:531
7.014:558
7.014:569
7.015:564
7.015:570
7.015:583
7.015:603
7.015:599
7.016:581
7.017:577
7.018:585
7.018:583
7.018:565
7.018:555
7.019:555
7.019:543
7.019:519
7.019:519
7.021:520
7.022:516
7.022:508
7.022:502
7.022:510
7.022:532
7.022:552
7.037:552
7.038:563
7.038:547
7.043:521
7.043:524
7.043:547
7.043:564
7.043:580
7.044:592
7.044:566
7.044:511
7.044:495
7.044:492
7.047:489
7.047:489
7.047:493
7.047:511
7.048:542
7.048:542
7.048:528
7.048:513
7.048:496
7.051:476
7.051:463
7.051:494
7.052:502
7.052:485
7.052:485
7.052:501
7.052:502
7.071:485
7.071:487
7.071:496
7.071:508
7.072:504
7.072:494
7.072:486
7.072:494
7.072:506
7.072:507
7.075:509
7.075:501
7.075:479
7.076:454
7.076:461
7.076:476
7.076:492
7.076:487
7.077:487
7.080:484
7.080:502
7.080:482
7.080:455
7.080:439
7.081:438
7.081:432
7.081:436
7.081:460
7.081:473
7.083:482
7.100:482
7.100:498
7.100:492
7.100:479
7.101:467
7.101:466
7.101:469
7.101:468
7.101:456
7.104:440
7.104:427
7.104:429
7.104:443
7.104:462
7.105:465
7.105:480
7.105:452
7.105:408
7.108:389
7.108:388
7.108:400
7.108:423
7.109:441
7.109:464
7.109:462
7.109:467
7.109:453
7.110:448
7.112:452
7.112:446
7.128:443
7.128:437
7.128:435
7.128:414
7.128:408
7.133:416
7.133:400
7.133:389
7.133:402
7.134:412
7.134:418
7.134:423
7.135:433
7.135:432
7.135:425
7.137:427
7.137:402
7.137:403
7.137:411
7.138:404
7.138:380
7.138:371
7.138:379
7.138:393
7.139:404
7.141:405
7.141:401
7.141:403
7.141:412
7.141:410
7.157:410
7.157:414
7.157:417
7.157:426
7.158:432
7.160:440
7.162:460
7.162:449
7.162:431
7.162:430
7.162:431
7.162:438
7.163:422
7.163:403
7.165:387
7.165:414
7.165:453
7.165:477
7.166:490
7.166:488
7.166:482
7.166:466
7.166:454
7.166:470
7.169:480
7.169:479
7.170:479
7.170:491
7.170:495
7.170:489
7.185:487
7.190:496
7.190:512
7.190:517
7.190:497
7.191:473
7.191:472
7.191:486
7.191:493
7.191:522
7.191:551
7.194:555
7.195:546
7.195:550
7.195:556
7.195:566
7.195:567
7.196:555
7.196:545
7.196:535
7.198:539
7.198:552
7.198:545
7.198:544
7.199:544
7.199:559
7.199:550
7.199:520
7.199:519
7.200:533
7.214:533
7.218:552
7.219:565
7.219:566
7.219:563
7.219:557
7.219:549
7.220:553
7.220:550
7.220:555
7.223:552
7.223:552
7.223:550
7.224:552
7.224:542
7.224:537
7.224:531
7.224:542
7.225:557
7.225:558
7.227:547
7.227:541
7.227:530
7.227:516
7.227:515
7.228:526
7.228:538
7.228:552
7.228:563
7.231:572
7.247:572
7.247:560
7.247:558
7.247:546
7.248:529
7.248:519
7.248:514
7.251:503
7.251:512
7.251:522
7.251:526
7.252:525
7.252:549
7.252:566
7.252:558
7.252:554
7.255:536
7.255:529
7.255:527
7.256:531
7.256:553
7.256:553
7.256:540
7.256:538
7.257:527
7.257:516
7.259:514
7.259:520
7.259:524
7.259:523
7.276:523
7.276:532
7.276:572
7.276:571
7.277:567
7.277:554
7.280:532
7.280:519
7.280:515
7.281:504
7.281:505
7.281:513
7.281:522
7.281:523
7.281:511
7.281:490
7.284:505
7.284:506
7.284:502
7.285:524
7.285:560
7.285:571
7.285:539
7.285:499
7.285:474
7.288:477
7.288:478
7.288:489
7.288:513
7.288:546
7.304:564
7.304:541
7.304:503
7.308:487
7.308:475
7.309:468
7.309:468
7.309:454
7.310:455
7.310:465
7.310:465
7.311:467
7.312:461
7.312:441
7.312:433
7.312:450
7.312:485
7.312:530
7.314:567
7.314:597
7.314:582
7.314:523
7.317:488
7.317:475
7.317:468
7.317:463
7.318:459
7.318:458
7.318:461
7.318:464
7.333:464
7.333:471
7.337:480
7.337:501
7.338:511
7.338:514
7.338:511
7.339:497
7.339:477
7.339:461
7.339:464
7.341:466
7.341:474
7.341:484
7.342:468
7.342:469
7.342:457
7.342:457
7.343:455
7.343:449
7.343:450
7.345:452
7.345:432
7.345:417
7.345:489
7.345:505
7.346:494
7.346:471
7.346:468
7.346:475
7.366:484
7.366:473
7.366:451
7.367:443
7.367:456
7.367:474
7.368:449
7.368:443
7.370:446
7.370:452
7.370:454
7.370:454
7.370:443
7.371:453
7.371:480
7.371:479
7.371:476
7.371:491
7.374:498
7.374:479
7.374:473
7.374:490
7.374:497
7.374:485
7.375:487
7.375:481
7.375:486
7.378:530
7.378:532
7.378:484
7.394:484
7.394:445
7.395:439
7.395:454
7.395:458
7.395:462
7.395:463
7.399:461
7.399:454
7.399:461
7.399:488
7.399:484
7.400:480
7.400:481
7.400:490
7.400:482
7.401:484
7.403:478
7.403:479
7.403:478
7.404:471
7.404:445
7.404:430
7.404:473
7.404:490
7.404:496
7.407:467
7.407:455
7.407:452
7.407:479
7.422:483
7.422:471
7.422:456
7.424:451
7.428:475
7.428:495
7.428:490
7.428:464
7.429:446
7.429:448
7.429:452
7.429:436
7.429:458
7.430:468
7.432:465
7.432:463
7.432:464
7.432:468
7.432:459
7.433:464
7.433:478
7.433:463
7.433:436
7.435:420
7.435:426
7.436:426
7.436:435
7.436:484
7.436:493
7.436:476
7.451:476
7.451:444
7.452:437
7.456:467
7.456:478
7.456:472
7.456:463
7.457:451
7.457:460
7.457:457
7.457:449
7.457:473
7.457:483
7.460:464
7.461:446
7.461:437
7.461:438
7.461:446
7.461:450
7.461:453
7.462:455
7.462:451
7.464:442
7.464:427
7.464:431
7.464:453
7.465:443
7.465:420
7.465:438
7.465:457
7.484:446
7.484:453
7.485:482
7.485:461
7.485:424
7.485:408
7.485:444
7.486:491
7.486:481
7.488:445
7.488:431
7.489:422
7.489:407
7.489:382
7.489:392
7.489:403
7.490:402
7.490:405
7.490:443
7.492:485
7.492:472
7.492:441
7.494:443
7.494:425
7.494:395
7.495:396
7.495:422
7.496:460
7.496:466
7.497:452
7.512:452
7.514:407
7.514:365
7.514:349
7.515:365
7.515:387
7.515:439
7.515:472
7.515:424
7.517:417
7.517:429
7.517:440
7.517:439
7.517:433
7.518:432
7.518:428
7.518:420
7.518:419
7.521:421
7.521:415
7.521:428
7.522:432
7.522:426
7.522:424
7.522:444
7.522:454
7.523:448
7.523:450
7.525:467
7.526:491
7.542:496
7.542:514
7.542:529
7.542:525
7.543:496
7.545:473
7.545:457
7.547:456
7.547:478
7.547:453
7.547:440
7.547:432
7.547:447
7.548:444
7.548:429
7.550:432
7.550:468
7.551:501
7.551:490
7.551:483
7.551:511
7.551:511
7.551:480
7.551:463
7.554:456
7.554:454
7.555:456
7.555:462
7.555:479
7.555:476
7.570:476
7.571:473
7.571:477
7.571:475
7.571:474
7.574:463
7.574:450
7.574:450
7.575:454
7.575:468
7.575:470
7.575:453
7.575:451
7.575:464
7.578:476
7.579:480
7.579:480
7.579:486
7.579:492
7.580:482
7.580:478
7.580:468
7.581:480
7.581:470
7.582:462
7.582:460
7.584:445
7.584:464
7.584:470
7.584:447
7.599:487
7.602:522
7.603:514
7.604:511
7.604:501
7.604:495
7.604:479
7.605:457
7.605:451
7.605:449
7.606:464
7.607:487
7.607:485
7.608:445
7.608:435
7.608:447
7.609:446
7.609:444
7.609:442
7.609:445
7.611:468
7.611:472
7.612:470
7.612:478
7.612:483
7.613:478
7.613:471
7.613:464
7.613:458
7.614:467
7.632:467
7.632:480
7.632:480
7.632:476
7.632:473
7.633:473
7.633:481
7.633:477
7.633:465
7.633:440
7.636:410
7.636:396
7.636:404
7.636:424
7.636:445
7.637:431
7.637:396
7.637:368
7.637:312
7.637:279
7.640:229
7.640:169
7.640:100
7.640:82
7.640:95
7.640:60
7.641:17
7.641:17
7.641:17
7.641:17
7.660:17
7.660:18
7.660:18
7.661:18
7.661:17
7.661:18
7.662:19
7.662:19
7.662:19
7.664:18
7.664:18
7.664:18
7.665:18
7.665:17
7.665:17
7.665:51
7.665:139
7.665:207
7.666:278
7.666:405
7.669:523
7.669:611
7.669:668
7.670:700
7.670:689
7.670:661
7.671:644
7.671:638
7.671:626
7.672:587
7.689:587
7.689:572
7.690:579
7.690:576
7.690:565
7.690:580
7.693:578
7.694:552
7.694:563
7.694:570
7.695:559
7.695:542
7.695:510
7.695:516
7.695:528
7.698:524
7.698:517
7.698:493
7.698:484
7.698:499
7.699:506
7.699:498
7.699:497
7.699:510
7.699:518
7.701:524
7.701:552
7.701:565
7.701:555
7.702:544
7.718:545
7.718:550
7.718:567
7.722:562
7.722:531
7.722:526
7.722:525
7.723:503
7.723:504
7.723:536
7.723:562
7.723:563
7.726:543
7.726:510
7.726:482
7.726:486
7.727:493
7.727:498
7.727:538
7.727:543
7.727:519
7.727:503
7.731:500
7.731:510
7.731:518
7.731:516
7.732:502
7.732:496
7.732:497
7.732:501
7.746:501
7.746:514
7.751:525
7.751:517
7.751:497
7.751:488
7.752:482
7.752:481
7.752:466
7.752:452
7.752:455
7.755:458
7.755:482
7.755:498
7.756:510
7.756:502
7.756:485
7.756:471
7.756:477
7.757:480
7.757:476
7.759:456
7.759:432
7.759:419
7.759:427
7.760:470
7.760:500
7.760:493
7.760:445
7.760:420
7.779:427
7.779:440
7.779:461
7.780:469
7.780:476
7.780:468
7.780:471
7.780:467
7.785:465
7.785:469
7.785:466
7.785:460
7.785:461
7.785:462
7.785:451
7.785:428
7.785:417
7.786:421
7.787:423
7.787:432
7.788:449
7.788:450
7.788:443
7.788:422
7.788:424
7.789:427
7.789:438
7.792:449
7.792:442
7.792:432
7.808:432
7.808:432
7.808:451
7.808:451
7.808:423
7.808:403
7.808:400
7.813:398
7.813:399
7.813:400
7.813:399
7.813:412
7.813:424
7.813:436
7.814:450
7.814:447
7.814:421
7.817:426
7.817:435
7.817:438
7.818:434
7.818:419
7.818:414
7.818:421
7.819:404
7.819:382
7.820:375
7.821:361
7.821:365
7.821:368
7.836:371
7.836:379
7.837:389
7.837:377
7.841:369
7.841:388
7.841:395
7.842:390
7.842:369
7.842:356
7.842:379
7.842:394
7.842:385
7.843:361
7.845:359
7.845:346
7.845:330
7.846:307
7.846:334
7.846:341
7.846:356
7.846:377
7.846:386
7.849:402
7.849:412
7.849:382
7.850:340
7.850:352
7.851:367
7.851:371
7.865:371
7.865:369
7.865:370
7.870:364
7.870:355
7.870:351
7.870:338
7.871:329
7.871:321
7.871:351
7.871:363
7.871:359
7.871:358
7.874:359
7.874:371
7.874:380
7.874:373
7.874:352
7.874:335
7.874:336
7.874:380
7.875:403
7.878:404
7.878:426
7.878:430
7.878:404
7.878:364
7.879:349
7.879:373
7.879:391
7.898:386
7.898:392
7.898:408
7.898:419
7.900:415
7.900:406
7.900:419
7.900:433
7.900:429
7.902:426
7.902:441
7.902:441
7.902:447
7.903:460
7.903:470
7.904:479
7.904:496
7.904:483
7.904:474
7.907:453
7.907:442
7.907:445
7.907:455
7.908:460
7.908:454
7.908:471
7.908:487
7.908:500
7.909:523
7.910:543
7.926:543
7.926:566
7.927:544
7.927:518
7.927:504
7.927:496
7.927:494
7.927:489
7.929:503
7.930:507
7.930:502
7.931:500
7.931:506
7.931:517
7.931:538
7.931:545
7.931:557
7.932:554
7.935:543
7.935:536
7.935:533
7.936:536
7.936:543
7.936:536
7.936:518
7.936:509
7.937:518
7.937:523
7.939:545
7.939:558
7.955:546
7.955:540
7.955:561
7.955:585
7.956:570
7.959:527
7.959:513
7.960:521
7.960:529
7.960:517
7.961:498
7.961:491
7.962:492
7.962:491
7.962:500
7.963:537
7.964:552
7.964:555
7.964:549
7.964:526
7.964:501
7.964:492
7.964:495
7.964:497
7.967:513
7.967:518
7.967:520
7.967:538
7.967:550
7.967:534
7.984:534
7.984:505
7.984:486
7.984:477
7.989:482
7.989:500
7.989:514
7.989:509
7.990:496
7.990:482
7.990:483
7.990:507
7.990:501
7.990:491
7.993:485
7.993:488
7.993:492
7.993:494
7.994:518
7.994:531
7.994:531
7.994:516
7.994:518
7.994:515
7.996:506
7.996:509
7.997:494
7.997:469
7.997:470
7.997:516
8.013:531
8.016:502
8.016:463
8.016:444
8.018:449
8.018:455
8.018:462
8.018:479
8.019:497
8.019:511
8.019:504
8.021:489
8.021:471
8.021:459
8.022:453
8.022:468
8.022:503
8.023:512
8.023:486
8.023:470
8.024:457
8.024:456
8.024:474
8.025:495
8.025:513
8.025:500
8.025:469
8.025:459
8.025:457
8.027:461
8.045:461
8.046:456
8.046:457
8.046:465
8.046:456
8.046:453
8.046:475
8.047:487
8.047:509
8.047:494
8.050:457
8.050:429
8.051:426
8.051:416
8.051:419
8.051:439
8.051:466
8.051:476
8.052:486
8.054:480
8.054:479
8.054:486
8.054:466
8.055:468
8.055:481
8.055:487
8.055:467
8.055:447
8.055:440
8.058:420
8.074:415
8.074:423
8.074:412
8.074:420
8.074:443
8.074:504
8.074:531
8.079:500
8.079:451
8.079:417
8.079:411
8.080:418
8.080:443
8.080:452
8.080:455
8.080:454
8.083:449
8.083:447
8.083:449
8.084:447
8.084:448
8.084:431
8.084:401
8.084:393
8.085:412
8.085:426
8.086:430
8.086:435
8.086:449
8.087:464
8.103:464
8.103:468
8.103:486
8.103:496
8.103:483
8.104:475
8.107:468
8.107:463
8.107:449
8.107:443
8.108:451
8.108:450
8.108:449
8.108:435
8.108:439
8.111:446
8.111:439
8.111:437
8.112:459
8.112:467
8.112:453
8.112:432
8.113:461
8.113:494
8.113:492
8.115:467
8.115:438
8.115:430
8.115:443
8.116:456
8.132:444
8.132:424
8.132:425
8.135:436
8.135:439
8.136:438
8.136:443
8.136:449
8.136:446
8.136:452
8.137:468
8.137:483
8.140:480
8.140:472
8.140:461
8.140:449
8.141:450
8.141:460
8.141:474
8.141:467
8.141:442
8.142:418
8.144:420
8.144:427
8.144:436
8.144:438
8.144:449
8.144:469
8.144:490
8.145:478
8.160:478
8.160:459
8.164:433
8.164:428
8.164:425
8.164:423
8.164:430
8.165:433
8.165:423
8.165:410
8.165:419
8.168:437
8.168:450
8.168:452
8.168:451
8.169:463
8.169:475
8.169:498
8.169:491
8.170:455
8.170:425
8.173:435
8.173:457
8.173:464
8.174:463
8.174:463
8.174:456
8.174:448
8.174:438
8.175:428
8.192:435
8.192:442
8.192:436
8.192:432
8.192:417
8.194:402
8.194:400
8.194:417
8.197:417
8.197:410
8.197:390
8.197:406
8.197:468
8.197:454
8.199:432
8.199:440
8.199:429
8.199:417
8.201:403
8.201:400
8.201:417
8.202:431
8.202:421
8.202:417
8.202:403
8.202:405
8.203:400
8.205:416
8.205:436
8.205:425
8.221:425
8.222:400
8.222:390
8.222:411
8.222:432
8.222:458
8.222:456
8.225:449
8.226:432
8.226:425
8.226:423
8.226:415
8.226:405
8.227:398
8.227:413
8.227:452
8.227:475
8.229:455
8.230:424
8.230:414
8.230:414
8.230:428
8.230:454
8.231:484
8.231:491
8.231:499
8.233:501
8.234:501
8.234:490
8.234:479
8.250:476
8.250:473
8.250:482
8.250:508
8.255:477
8.255:448
8.255:434
8.255:443
8.255:476
8.255:484
8.256:481
8.256:473
8.256:463
8.256:460
8.259:463
8.259:485
8.259:480
8.259:472
8.259:477
8.260:489
8.260:482
8.260:462
8.260:442
8.263:431
8.263:434
8.263:430
8.263:429
8.264:449
8.264:490
8.264:492
8.279:492
8.279:475
8.279:471
8.283:454
8.283:483
8.284:531
8.284:574
8.284:559
8.284:513
8.284:486
8.284:467
8.284:461
8.286:482
8.287:505
8.287:473
8.287:445
8.288:420
8.288:445
8.288:452
8.288:462
8.288:476
8.289:485
8.291:486
8.291:487
8.291:497
8.291:500
8.291:512
8.293:498
8.293:486
8.293:469
8.312:455
8.312:442
8.312:453
8.312:473
8.313:471
8.313:475
8.313:468
8.313:469
8.313:461
8.316:462
8.316:467
8.317:471
8.317:467
8.317:475
8.317:483
8.317:478
8.317:486
8.318:480
8.318:485
8.320:492
8.320:475
8.320:452
8.320:433
8.321:439
8.321:445
8.321:465
8.321:498
8.321:506
8.324:484
8.324:469
8.340:469
8.341:466
8.341:490
8.341:526
8.341:536
8.341:534
8.342:522
8.342:499
8.342:475
8.344:473
8.344:474
8.344:451
8.344:423
8.344:409
8.345:387
8.345:356
8.345:346
8.345:319
8.349:281
8.349:240
8.350:205
8.350:157
8.350:123
8.350:92
8.350:59
8.351:26
8.351:17
8.351:17
8.351:17
8.352:17
8.368:17
8.369:18
8.369:18
8.369:18
8.369:18
8.369:19
8.369:18
8.374:19
8.374:18
8.374:18
8.374:18
8.374:17
8.374:17
8.375:25
8.375:87
8.375:156
8.375:235
8.375:322
8.377:436
8.377:551
8.377:622
8.377:636
8.378:639
8.378:658
8.378:655
8.378:651
8.378:661
8.379:651
8.381:613
8.381:553
8.397:553
8.397:527
8.398:525
8.398:540
8.401:570
8.402:584
8.402:614
8.402:626
8.402:594
8.403:553
8.403:537
8.403:531
8.403:522
8.403:536
8.406:559
8.406:568
8.406:559
8.406:537
8.407:518
8.407:523
8.407:537
8.407:549
8.407:535
8.410:529
8.410:529
8.410:533
8.410:558
8.411:592
8.411:602
8.411:600
8.426:577
8.431:561
8.431:547
8.431:530
8.431:525
8.432:535
8.432:531
8.432:537
8.432:559
8.433:561
8.433:545
8.435:532
8.435:521
8.435:524
8.435:537
8.435:535
8.435:528
8.436:530
8.436:527
8.436:531
8.439:536
8.439:530
8.440:523
8.440:522
8.440:531
8.440:518
8.440:520
8.441:533
8.441:542
8.441:517
8.459:517
8.459:495
8.459:502
8.459:528
8.460:552
8.460:543
8.460:533
8.460:525
8.460:516
8.461:511
8.463:523
8.464:548
8.464:561
8.464:549
8.464:514
8.464:488
8.465:484
8.465:477
8.465:456
8.467:457
8.467:498
