0.000:219
0.001:256
0.001:297
0.002:341
0.002:376
0.002:409
0.002:445
0.004:471
0.004:492
0.004:554
0.004:604
0.004:576
0.004:529
0.004:468
0.004:426
0.005:390
0.005:372
0.005:366
0.006:362
0.006:301
0.006:254
0.006:269
0.006:301
0.006:348
0.006:398
0.006:443
0.006:478
0.007:476
0.007:487
0.007:568
0.007:631
0.007:602
0.007:552
0.007:491
0.008:458
0.008:433
0.008:408
0.008:395
0.008:392
0.009:334
0.009:270
0.009:287
0.009:324
0.009:369
0.010:404
0.010:454
0.010:497
0.010:511
0.010:509
0.011:552
0.011:613
0.011:602
0.011:563
0.011:505
0.012:464
0.012:440
0.012:419
0.012:391
0.012:370
0.013:303
0.013:303
0.013:259
0.013:288
0.013:318
0.013:384
0.014:433
0.014:474
0.014:506
0.014:531
0.015:538
0.015:595
0.015:648
0.015:631
0.016:587
0.016:517
0.016:474
0.016:431
0.016:407
0.016:401
0.016:399
0.016:339
0.018:292
0.018:307
0.018:350
0.018:408
0.019:438
0.019:466
0.019:480
0.020:508
0.020:526
0.020:603
0.020:669
0.020:643
0.021:587
0.021:533
0.021:488
0.021:452
0.021:416
0.022:391
0.022:377
0.022:300
0.022:267
0.022:307
0.022:359
0.023:413
0.023:455
0.023:487
0.023:511
0.023:525
0.024:535
0.024:613
0.024:656
0.024:631
0.024:594
0.024:531
0.025:475
0.025:428
0.025:401
0.025:396
0.025:391
0.025:391
0.026:318
0.026:272
0.026:306
0.026:367
0.026:422
0.026:461
0.026:497
0.026:529
0.026:529
0.026:535
0.027:607
0.027:636
0.027:605
0.027:557
0.027:509
0.027:473
0.028:444
0.028:418
0.028:404
0.028:411
0.028:354
0.029:313
0.029:335
0.029:374
0.030:417
0.030:444
0.030:452
0.030:468
0.030:490
0.030:511
0.032:604
0.032:656
0.032:641
0.032:601
0.032:534
0.033:485
0.033:460
0.033:447
0.033:438
0.033:424
0.033:340
0.033:295
0.033:334
0.033:390
0.033:411
0.033:454
0.033:502
0.034:513
0.034:521
0.034:530
0.035:610
0.035:649
0.035:614
0.035:567
0.035:511
0.035:467
0.035:446
0.035:425
0.036:405
0.036:405
0.036:394
0.036:326
0.036:295
0.036:326
0.036:378
0.036:428
0.036:467
0.036:506
0.036:524
0.038:530
0.038:551
0.038:647
0.039:694
0.039:659
0.039:600
0.039:535
0.039:475
0.039:438
0.040:418
0.040:411
0.040:405
0.040:327
0.041:298
0.041:331
0.041:370
0.042:414
0.042:449
0.042:494
0.042:528
0.043:529
0.043:536
0.043:622
0.044:661
0.044:612
0.044:550
0.044:514
0.044:478
0.044:449
0.046:431
0.046:401
0.046:367
0.046:285
0.047:279
0.047:325
0.047:382
0.047:440
0.048:488
0.048:523
0.048:550
0.049:558
0.049:574
0.049:652
0.049:669
0.050:634
0.050:588
0.050:544
0.050:502
0.050:450
0.050:412
0.050:412
0.050:390
0.050:383
0.051:308
0.051:304
0.051:346
0.051:377
0.051:418
0.051:464
0.051:511
0.051:541
0.051:553
0.052:569
0.052:648
0.052:673
0.053:644
0.053:595
0.053:549
0.053:502
0.053:469
0.054:444
0.054:433
0.054:408
0.054:312
0.054:299
0.055:348
0.055:403
0.056:459
0.056:493
0.056:513
0.056:545
0.056:581
0.057:613
0.057:679
0.057:689
0.057:636
0.057:605
0.058:584
0.058:533
0.058:492
0.058:452
0.059:437
0.059:413
0.059:336
0.060:322
0.060:361
0.060:414
0.060:471
0.061:511
0.061:540
0.061:566
0.061:587
0.061:623
0.062:703
0.062:718
0.062:675
0.062:620
0.062:568
0.064:506
0.064:460
0.064:460
0.064:438
0.064:424
0.064:399
0.065:330
0.065:325
0.065:363
0.065:437
0.065:478
0.066:512
0.066:531
0.066:554
0.066:564
0.066:594
0.066:671
0.066:679
0.067:638
0.067:575
0.068:513
0.068:463
0.068:427
0.069:399
0.069:393
0.070:378
0.070:302
0.070:282
0.070:305
0.071:360
0.071:418
0.071:468
0.072:503
0.072:517
0.072:525
0.072:553
0.072:628
0.073:634
0.073:595
0.073:552
0.073:511
0.073:471
0.074:439
0.074:416
0.074:404
0.074:361
0.074:280
0.074:279
0.074:319
0.074:377
0.076:421
0.076:468
0.076:503
0.076:526
0.076:536
0.077:569
0.077:650
0.077:656
0.077:617
0.078:552
0.078:485
0.078:437
0.078:437
0.078:415
0.078:398
0.078:387
0.078:347
0.079:278
0.079:278
0.079:319
0.079:385
0.079:443
0.080:489
0.080:521
0.080:527
0.081:544
0.081:585
0.081:657
0.081:651
0.082:608
0.082:540
0.082:492
0.083:451
0.083:430
0.083:404
0.083:385
0.083:345
0.083:280
0.083:277
0.083:304
0.083:361
0.084:415
0.084:458
0.084:483
0.084:495
0.084:488
0.084:532
0.084:630
0.084:648
0.084:638
0.085:585
0.085:530
0.085:481
0.085:450
0.085:428
0.086:406
0.086:363
0.086:304
0.086:312
0.086:331
0.086:371
0.086:417
0.086:469
0.086:503
0.087:522
0.087:532
0.087:570
0.087:638
0.087:641
0.089:607
0.089:552
0.089:511
0.089:511
0.089:464
0.090:429
0.090:408
0.090:398
0.090:362
0.090:288
0.091:288
0.091:318
0.091:376
0.091:420
0.091:449
0.091:475
0.092:502
0.092:521
0.092:575
0.092:624
0.093:609
0.093:593
0.093:562
0.093:542
0.093:520
0.094:521
0.094:517
0.094:518
0.094:504
0.094:467
0.095:503
0.095:562
0.095:642
0.095:721
0.095:815
0.096:859
0.096:905
0.096:948
0.096:989
0.096:987
0.096:987
0.096:987
0.096:987
0.096:987
0.096:987
0.096:987
0.097:986
0.097:986
0.097:987
0.097:988
0.097:988
0.098:987
0.098:987
0.098:987
0.098:987
0.099:988
0.099:989
0.099:990
0.099:961
0.099:923
0.099:802
0.099:652
0.100:481
0.100:481
0.100:359
0.100:266
0.100:204
0.101:167
0.101:159
0.101:127
0.101:89
0.102:138
0.102:202
0.102:284
0.102:345
0.103:397
0.103:421
0.103:432
0.103:444
0.103:514
0.104:582
0.104:568
0.104:537
0.104:471
0.104:423
0.104:383
0.104:362
0.104:338
0.104:315
0.106:252
0.106:197
0.106:221
0.106:271
0.106:332
0.107:372
0.107:408
0.107:423
0.107:438
0.107:444
0.108:511
0.108:574
0.108:556
0.108:523
0.109:467
0.109:426
0.109:396
0.109:361
0.109:336
0.109:317
0.110:260
0.110:211
0.110:241
0.110:274
0.110:320
0.111:379
0.111:431
0.111:442
0.111:454
0.111:459
0.111:524
0.112:591
0.112:570
0.112:530
0.112:530
0.112:476
0.113:432
0.113:400
0.113:385
0.113:372
0.113:351
0.113:274
0.114:224
0.114:258
0.114:301
0.114:350
0.114:381
0.115:424
0.115:453
0.115:470
0.115:488
0.115:552
0.116:615
0.116:578
0.116:537
0.116:496
0.116:463
0.116:430
0.116:411
0.116:390
0.117:361
0.117:304
0.117:263
0.117:295
0.117:353
0.117:406
0.117:427
0.117:454
0.118:474
0.118:480
0.118:477
0.118:556
0.119:629
0.119:614
0.119:572
0.120:520
0.120:478
0.120:435
0.120:413
0.120:408
0.121:412
0.121:350
0.121:284
0.121:310
0.121:355
0.122:416
0.122:462
0.122:512
0.122:548
0.122:547
0.123:554
0.123:632
0.123:684
0.123:653
0.124:653
0.124:621
0.124:571
0.124:530
0.124:484
0.124:446
0.124:430
0.124:428
0.126:362
0.126:305
0.126:321
0.126:363
0.126:428
0.127:492
0.127:533
0.127:547
0.127:550
0.127:562
0.127:643
0.127:697
0.128:671
0.128:624
0.128:567
0.128:525
0.129:487
0.129:462
0.129:449
0.129:442
0.129:368
0.129:315
0.130:347
0.130:402
0.130:465
0.130:505
0.130:533
0.131:555
0.131:580
0.131:598
0.131:671
0.132:716
0.132:689
0.132:661
0.132:619
0.133:565
0.133:515
0.133:478
0.133:472
0.133:478
0.133:417
0.133:369
0.134:390
0.134:436
0.134:497
0.134:552
0.134:587
0.134:603
0.136:619
0.136:628
0.136:702
0.136:751
0.137:751
0.137:729
0.137:693
0.137:637
0.138:578
0.138:542
0.138:524
0.139:522
0.139:516
0.139:434
0.139:382
0.140:417
0.140:463
0.140:518
0.140:578
0.140:622
0.140:645
0.140:648
0.140:642
0.141:702
0.141:727
0.141:696
0.141:673
0.141:614
0.141:573
0.141:538
0.141:513
0.141:508
0.141:500
0.141:425
0.141:378
0.141:404
0.141:455
0.141:507
0.141:552
0.142:586
0.142:605
0.142:611
0.142:627
0.142:685
0.142:708
0.142:694
0.143:657
0.143:598
0.143:532
0.143:472
0.143:438
0.144:427
0.144:419
0.144:346
0.144:309
0.144:325
0.144:372
0.145:434
0.145:495
0.145:522
0.146:528
0.146:533
0.146:538
0.146:604
0.146:604
0.147:634
0.147:596
0.147:548
0.147:503
0.147:463
0.148:428
0.148:387
0.148:370
0.148:349
0.148:276
0.149:241
0.149:263
0.149:301
0.149:354
0.149:397
0.150:428
0.150:457
0.150:475
0.150:495
0.150:576
0.150:615
0.150:574
0.150:522
0.150:470
0.151:418
0.151:373
0.151:348
0.151:331
0.151:307
0.151:236
0.151:219
0.151:243
0.151:294
0.152:325
0.152:361
0.152:405
0.152:426
0.152:421
0.153:453
0.153:535
0.153:559
0.153:518
0.153:465
0.154:411
0.154:356
0.154:329
0.154:323
0.154:330
0.155:310
0.156:223
0.156:209
0.156:246
0.156:301
0.156:365
0.156:426
0.157:458
0.157:461
0.157:458
0.157:488
0.157:488
0.157:576
0.158:579
0.158:533
0.158:482
0.158:425
0.158:366
0.158:328
0.159:304
0.159:297
0.159:303
0.159:240
0.159:220
0.160:255
0.160:323
0.160:377
0.160:425
0.160:447
0.160:456
0.161:458
0.161:478
0.161:563
0.161:587
0.161:554
0.162:503
0.162:460
0.162:412
0.162:380
0.162:366
0.163:368
0.163:353
0.163:279
0.163:270
0.163:295
0.163:349
0.164:394
0.164:431
0.164:453
0.164:469
0.164:468
0.165:485
0.165:562
0.165:571
0.165:553
0.165:509
0.166:455
0.166:402
0.166:375
0.166:356
0.166:359
0.166:344
0.167:266
0.167:263
0.167:300
0.167:344
0.168:385
0.168:439
0.168:480
0.168:497
0.169:507
0.169:507
0.169:548
0.169:632
0.169:636
0.170:586
0.170:525
0.170:473
0.170:436
0.170:421
0.171:382
0.171:361
0.171:340
0.171:270
0.171:287
0.172:325
0.172:382
0.172:424
0.172:459
0.172:476
0.173:483
0.173:497
0.173:541
0.173:615
0.173:631
0.173:607
0.174:556
0.174:502
0.174:446
0.174:420
0.174:408
0.174:391
0.174:367
0.174:299
0.174:292
0.176:320
0.176:369
0.176:420
0.176:473
0.176:511
0.177:524
0.177:522
0.177:550
0.177:633
0.177:652
0.177:623
0.178:567
0.178:525
0.178:460
0.178:427
0.178:415
0.179:419
0.179:400
0.179:329
0.179:316
0.179:338
0.179:396
0.180:444
0.180:495
0.180:524
0.180:543
0.180:543
0.181:557
0.181:584
0.181:658
0.181:654
0.181:610
0.182:548
0.182:481
0.183:427
0.183:410
0.183:403
0.183:405
0.183:374
0.183:310
0.184:315
0.184:338
0.184:391
0.184:423
0.184:453
0.184:474
0.185:504
0.185:517
0.185:566
0.185:633
0.185:623
0.185:593
0.186:541
0.186:498
0.186:450
0.186:427
0.186:399
0.186:389
0.187:353
0.187:293
0.187:315
0.187:364
0.188:422
0.188:454
0.188:483
0.188:502
0.189:503
0.189:513
0.189:562
0.189:640
0.189:644
0.189:613
0.190:555
0.190:497
0.190:448
0.190:437
0.190:423
0.191:406
0.191:339
0.191:269
0.191:280
0.191:316
0.191:368
0.192:435
0.192:507
0.192:541
0.192:541
0.192:551
0.193:541
0.193:572
0.193:617
0.193:610
0.193:601
0.193:551
0.194:491
0.194:437
0.194:397
0.194:376
0.194:374
0.195:348
0.195:306
0.195:332
0.195:368
0.196:433
0.196:480
0.196:519
0.196:536
0.196:531
0.197:538
0.197:600
0.197:663
0.197:653
0.197:609
0.197:531
0.198:480
0.198:435
0.198:409
0.198:400
0.199:391
0.200:346
0.200:278
0.200:287
0.200:333
0.200:408
0.201:439
0.201:466
0.201:490
0.201:501
0.201:517
0.201:571
0.201:625
0.202:604
0.202:557
0.202:483
0.203:431
0.203:414
0.204:437
0.204:456
0.204:448
0.204:371
0.204:287
0.204:287
0.204:327
0.204:386
0.204:429
0.205:477
0.206:477
0.206:505
0.206:520
0.206:523
0.206:581
0.207:647
0.207:634
0.207:616
0.207:561
0.207:493
0.207:433
0.207:398
0.208:400
0.208:405
0.208:347
0.208:290
0.208:309
0.209:341
0.209:409
0.209:466
0.209:511
0.209:529
0.210:532
0.210:541
0.210:601
0.210:643
0.210:630
0.211:593
0.211:517
0.211:467
0.211:434
0.211:430
0.212:405
0.212:368
0.212:297
0.212:249
0.212:278
0.213:328
0.213:398
0.213:439
0.213:475
0.213:505
0.214:524
0.214:516
0.214:572
0.214:651
0.214:654
0.214:623
0.214:563
0.214:514
0.216:459
0.216:413
0.216:404
0.216:400
0.217:332
0.217:284
0.217:322
0.217:361
0.217:422
0.217:460
0.217:460
0.218:495
0.218:513
0.218:515
0.218:501
0.218:559
0.218:618
0.218:613
0.219:604
0.219:543
0.220:501
0.220:469
0.220:438
0.220:419
0.220:426
0.220:371
0.221:317
0.221:327
0.221:354
0.221:420
0.221:482
0.222:524
0.222:550
0.222:574
0.222:580
0.222:621
0.222:660
0.223:629
0.223:600
0.223:550
0.223:490
0.223:453
0.224:434
0.224:410
0.224:398
0.224:325
0.224:285
0.224:315
0.225:357
0.225:405
0.225:438
0.225:466
0.225:499
0.225:523
0.226:535
0.226:601
0.226:645
0.226:632
0.226:578
0.226:509
0.226:455
0.226:419
0.226:414
0.227:399
0.227:362
0.227:278
0.227:238
0.227:274
0.227:325
0.228:380
0.228:380
0.228:420
0.228:470
0.228:505
0.229:526
0.229:525
0.229:590
0.229:626
0.229:599
0.229:531
0.230:450
0.230:396
0.230:369
0.230:354
0.230:351
0.231:366
0.231:312
0.231:269
0.231:290
0.232:326
0.232:394
0.232:447
0.232:460
0.232:477
0.233:477
0.233:463
0.233:561
0.233:640
0.233:623
0.234:590
0.234:542
0.234:488
0.234:419
0.234:364
0.234:344
0.234:337
0.234:270
0.234:246
0.234:283
0.234:337
0.234:397
0.234:461
0.234:525
0.236:533
0.236:529
0.236:520
0.236:597
0.236:637
0.236:607
0.236:548
0.236:490
0.237:451
0.237:424
0.237:391
0.237:362
0.237:350
0.237:258
0.237:215
0.238:244
0.238:295
0.238:295
0.238:360
0.238:412
0.239:451
0.239:496
0.239:504
0.239:518
0.240:596
0.240:611
0.240:562
0.240:516
0.240:485
0.240:469
0.241:443
0.241:400
0.241:392
0.241:384
0.241:324
0.242:317
0.242:330
0.242:336
0.242:369
0.242:428
0.243:480
0.243:496
0.243:496
0.243:496
0.243:599
0.244:646
0.244:628
0.244:581
0.244:512
0.244:446
0.245:399
0.245:364
0.245:360
0.245:363
0.245:307
0.246:281
0.246:324
0.246:389
0.246:440
0.246:486
0.246:521
0.246:529
0.246:504
0.246:512
0.246:601
0.247:638
0.247:605
0.247:556
0.247:483
0.247:380
0.248:336
0.248:360
0.248:382
0.250:347
0.250:249
0.250:251
0.250:307
0.250:307
0.250:361
0.251:415
0.251:488
0.252:548
0.252:588
0.252:610
0.252:620
0.253:717
0.253:805
0.253:826
0.253:795
0.253:752
0.253:748
0.254:770
0.254:767
0.254:776
0.254:812
0.254:790
0.254:825
0.254:891
0.254:977
0.254:989
0.255:988
0.255:987
0.255:986
0.256:986
0.256:985
0.256:985
0.256:984
0.256:985
0.257:985
0.257:987
0.257:989
0.257:973
0.257:855
0.257:757
0.258:673
0.258:514
0.258:435
0.258:440
0.258:441
0.258:418
0.259:371
0.259:308
0.259:307
0.259:324
0.259:364
0.260:455
0.260:486
0.260:456
0.260:399
0.260:372
0.260:342
0.261:314
0.261:299
0.261:297
0.261:288
0.261:195
0.262:180
0.262:180
0.262:233
0.262:344
0.262:423
0.263:434
0.263:454
0.263:469
0.263:478
0.263:496
0.263:569
0.264:594
0.264:552
0.264:469
0.264:428
0.264:393
0.264:359
0.264:338
0.264:306
0.265:319
0.266:346
0.266:407
0.266:450
0.267:448
0.267:475
0.267:502
0.267:494
0.267:452
0.268:432
0.268:457
0.268:546
0.268:573
0.269:559
0.269:537
0.269:525
0.269:512
0.269:512
0.270:501
0.270:457
0.270:346
0.270:215
0.270:197
0.270:265
0.271:377
0.271:463
0.271:484
0.271:474
0.271:488
0.272:525
0.272:574
0.272:609
0.272:572
0.272:485
0.272:393
0.273:374
0.273:360
0.273:391
0.273:412
0.273:393
0.273:330
0.274:223
0.274:223
0.274:229
0.274:322
0.275:446
0.275:500
0.275:516
0.276:516
0.276:486
0.276:455
0.276:494
0.276:580
0.276:589
0.277:559
0.277:538
0.277:508
0.277:458
0.277:437
0.277:420
0.278:405
0.278:358
0.278:312
0.278:346
0.278:420
0.279:486
0.279:541
0.279:585
0.279:582
0.279:561
0.279:550
0.280:564
0.280:633
0.280:618
0.280:545
0.280:449
0.281:417
0.281:398
0.281:416
0.281:435
0.281:435
0.282:424
0.282:387
0.284:432
0.284:476
0.284:538
0.284:575
0.285:597
0.285:599
0.285:580
0.285:541
0.286:550
0.286:641
0.286:655
0.286:621
0.286:563
0.286:532
0.286:494
0.286:453
0.286:415
0.286:396
0.286:312
0.288:312
0.288:231
0.288:234
0.288:277
0.288:341
0.289:386
0.289:412
0.289:457
0.289:500
0.289:522
0.289:565
0.290:647
0.290:648
0.290:599
0.290:572
0.290:529
0.291:464
0.291:472
0.291:498
0.291:508
0.291:469
0.291:415
0.292:449
0.292:492
0.292:516
0.292:525
0.292:535
0.293:517
0.293:514
0.293:528
0.293:594
0.293:666
0.293:646
0.294:615
0.294:579
0.294:570
0.294:569
0.294:551
0.295:523
0.295:442
0.295:332
0.295:238
0.295:270
0.295:357
0.296:459
0.296:522
0.296:549
0.296:568
0.296:589
0.296:607
0.296:679
0.296:718
0.296:694
0.296:666
0.297:599
0.297:558
0.297:531
0.297:510
0.297:517
0.298:522
0.298:522
0.299:458
0.299:374
0.299:363
0.299:420
0.299:512
0.301:547
0.301:589
0.301:622
0.302:624
0.302:617
0.302:673
0.302:729
0.303:685
0.303:620
0.303:559
0.304:526
0.304:500
0.304:479
0.305:465
0.305:461
0.305:444
0.305:409
0.305:414
0.305:419
0.305:453
0.305:488
0.305:524
0.306:539
0.306:539
0.306:560
0.306:639
0.306:691
0.306:676
0.306:625
0.308:539
0.308:497
0.308:469
0.308:431
0.308:391
0.308:392
0.309:341
0.309:302
0.309:369
0.309:421
0.309:450
0.309:445
0.310:444
0.310:456
0.310:460
0.310:490
0.310:592
0.311:654
0.311:597
0.311:539
0.311:477
0.311:440
0.311:409
0.312:377
0.312:366
0.312:366
0.313:363
0.313:334
0.313:313
0.313:338
0.313:378
0.313:438
0.314:434
0.314:415
0.314:401
0.314:401
0.314:429
0.314:516
0.314:575
0.316:541
0.316:464
0.317:373
0.317:314
0.317:269
0.317:255
0.319:260
0.319:273
0.319:217
0.319:175
0.319:224
0.319:297
0.319:356
0.319:380
0.319:436
0.319:482
0.320:504
0.320:510
0.320:587
0.320:646
0.320:607
0.321:551
0.321:489
0.321:416
0.321:332
0.321:285
0.322:257
0.322:233
0.322:173
0.322:89
0.322:96
0.322:145
0.323:223
0.323:281
0.323:328
0.323:385
0.323:402
0.323:423
0.324:519
0.324:596
0.324:568
0.324:520
0.324:440
0.325:360
0.325:306
0.326:332
0.326:332
0.326:386
0.326:393
0.326:279
0.326:143
0.327:136
0.327:191
0.327:229
0.327:250
0.327:294
0.327:407
0.327:485
0.328:492
0.328:556
0.328:618
0.328:577
0.328:490
0.329:405
0.329:358
0.329:350
0.329:399
0.329:410
0.329:383
0.330:299
0.330:244
0.330:267
0.330:305
0.330:371
0.331:439
0.331:546
0.331:666
0.331:718
0.332:753
0.333:877
0.333:981
0.333:927
0.333:743
0.333:541
0.333:387
0.333:299
0.334:308
0.334:342
0.334:313
0.334:219
0.334:172
0.335:186
0.335:242
0.335:285
0.335:303
0.335:323
0.336:408
0.336:501
0.336:562
0.336:671
0.336:712
0.336:654
0.338:568
0.338:457
0.338:375
0.338:346
0.338:346
0.339:357
0.339:328
0.339:275
0.339:163
0.339:127
0.340:184
0.340:231
0.340:260
0.340:346
0.340:467
0.340:549
0.341:601
0.341:626
0.341:730
0.341:796
0.341:742
0.342:693
0.342:653
0.342:609
0.342:594
0.342:593
0.342:578
0.343:521
0.343:382
0.343:280
0.343:269
0.343:291
0.343:363
0.343:408
0.343:427
0.344:446
0.344:465
0.344:522
0.344:600
0.344:623
0.344:594
0.345:570
0.346:500
0.346:407
0.346:331
0.346:319
0.346:331
0.347:325
0.347:278
0.347:249
0.347:262
0.347:330
0.347:409
0.347:446
0.348:478
0.348:523
0.348:606
0.351:681
0.351:772
0.351:811
0.351:785
0.352:777
0.352:748
0.352:681
0.353:681
0.353:568
0.353:471
0.353:410
0.353:344
0.354:234
0.354:182
0.354:166
0.354:197
0.354:268
0.354:349
0.354:418
0.354:468
0.355:486
0.355:506
0.355:613
0.355:645
0.357:588
0.357:539
0.357:506
0.357:472
0.357:463
0.357:486
0.357:518
0.358:497
0.358:347
0.358:266
0.358:336
0.358:443
0.359:559
0.359:665
0.359:714
0.359:695
0.359:678
0.360:663
0.360:790
0.360:852
0.360:803
0.360:714
0.360:632
0.361:522
0.361:360
0.361:269
0.361:296
0.361:325
0.362:276
0.362:257
0.362:296
0.362:369
0.362:456
0.362:521
0.362:578
0.362:636
0.362:687
0.362:723
0.362:785
0.362:773
0.362:739
0.362:711
0.362:673
0.363:673
0.363:591
0.363:519
0.363:486
0.363:477
0.364:471
0.364:368
0.364:315
0.364:316
0.364:345
0.364:400
0.365:459
0.365:504
0.365:567
0.366:621
0.366:648
0.366:745
0.366:747
0.366:684
0.366:645
0.367:623
0.367:571
0.367:511
0.367:438
0.367:405
0.367:358
0.367:258
0.367:245
0.367:318
0.367:418
0.367:492
0.367:567
0.367:656
0.368:720
0.368:719
0.368:712
0.369:716
0.369:663
0.369:627
0.369:593
0.369:551
0.370:515
0.370:511
0.370:504
0.370:472
0.370:411
0.370:310
0.371:275
0.371:271
0.371:300
0.371:336
0.371:382
0.372:418
0.372:454
0.372:492
0.372:528
0.372:594
0.372:632
0.373:624
0.373:600
0.373:600
0.373:561
0.373:543
0.373:531
0.374:491
0.374:507
0.374:507
0.374:433
0.374:403
0.376:476
0.376:522
0.376:531
0.376:532
0.376:492
0.376:436
0.377:416
0.377:439
0.377:500
0.377:514
0.377:479
0.377:415
0.377:406
0.378:396
0.378:366
0.378:318
0.378:295
0.379:289
0.379:260
0.379:302
0.379:359
0.379:392
0.379:432
0.380:511
0.380:569
0.380:573
0.380:545
0.380:578
0.381:673
0.381:692
0.381:645
0.381:568
0.381:516
0.381:449
0.382:434
0.383:403
0.383:345
0.383:317
0.384:225
0.384:217
0.384:265
0.384:348
0.384:415
0.384:498
0.384:581
0.384:623
0.385:616
0.385:648
0.385:737
0.385:747
0.386:695
0.386:695
0.386:622
0.386:585
0.386:538
0.386:495
0.386:446
0.386:414
0.388:357
0.388:265
0.388:294
0.388:381
0.388:484
0.388:541
0.389:579
0.389:620
0.389:627
0.389:613
0.389:632
0.389:659
0.390:637
0.390:606
0.390:530
0.391:437
0.391:332
0.391:256
0.391:242
0.391:309
0.391:347
0.392:310
0.392:338
0.392:357
0.392:378
0.392:439
0.393:508
0.393:550
0.393:566
0.393:590
0.393:663
0.393:708
0.394:652
0.394:599
0.394:525
0.394:460
0.394:383
0.395:354
0.395:367
0.395:397
0.395:384
0.395:292
0.396:246
0.396:262
0.396:312
0.396:371
0.396:430
0.396:492
0.396:544
0.396:572
0.396:592
0.396:613
0.397:580
0.397:580
0.397:538
0.397:494
0.397:463
0.398:442
0.398:435
0.400:409
0.400:385
0.400:353
0.400:344
0.401:382
0.401:413
0.401:445
0.401:456
0.401:485
0.401:514
0.402:520
0.402:503
0.402:525
0.403:569
0.403:562
0.403:578
0.403:574
0.403:562
0.404:513
0.404:455
0.404:407
0.404:410
0.404:386
0.404:359
0.404:381
0.404:422
0.406:455
0.406:451
0.406:443
0.406:466
0.406:487
0.406:490
0.406:563
0.406:644
0.406:644
0.407:625
0.407:608
0.407:579
0.407:506
0.407:406
0.407:390
0.407:424
0.407:405
0.407:361
0.407:367
0.407:406
0.407:454
0.408:465
0.408:456
0.408:482
0.408:519
0.408:526
0.409:553
0.409:592
0.409:592
0.409:559
0.409:515
0.409:470
0.410:445
0.410:442
0.410:407
0.410:356
0.410:292
0.411:210
0.411:161
0.411:224
0.411:319
0.411:390
0.412:436
0.412:485
0.412:558
0.412:623
0.412:691
0.413:784
0.413:797
0.413:698
0.413:554
0.413:442
0.414:389
0.414:343
0.414:314
0.414:320
0.414:377
0.414:407
0.414:448
0.416:505
0.416:510
0.416:539
0.416:603
0.416:659
0.416:687
0.416:725
0.418:817
0.418:955
0.418:989
0.418:989
0.418:989
0.418:990
0.418:989
0.418:989
0.418:989
0.418:989
0.418:989
0.419:990
0.419:984
0.419:989
0.419:987
0.420:985
0.420:984
0.420:983
0.420:984
0.420:985
0.420:986
0.421:986
0.421:986
0.421:987
0.421:988
0.422:990
0.422:858
0.422:742
0.422:617
0.422:508
0.422:429
0.423:343
0.423:289
0.423:271
0.423:272
0.423:267
0.424:308
0.424:359
0.424:395
0.424:405
0.424:418
0.424:446
0.424:499
0.424:502
0.424:484
0.425:443
0.425:364
0.425:321
0.425:300
0.425:287
0.426:277
0.426:284
0.426:282
0.426:270
0.426:296
0.426:363
0.426:447
0.426:498
0.426:496
0.426:472
0.426:462
0.426:488
0.426:499
0.426:471
0.426:433
0.427:387
0.427:349
0.427:305
0.427:288
0.427:312
0.427:336
0.428:364
0.428:328
0.428:318
0.428:355
0.428:373
0.429:413
0.429:466
0.429:510
0.429:493
0.429:486
0.430:514
0.430:514
0.430:558
0.430:575
0.430:567
0.431:545
0.431:481
0.433:395
0.433:342
0.434:322
0.434:323
0.434:327
0.434:319
0.434:324
0.435:370
0.435:414
0.435:451
0.435:474
0.436:493
0.436:509
0.436:537
0.436:566
0.436:590
0.436:595
0.437:572
0.437:561
0.437:516
0.437:468
0.437:435
0.437:407
0.437:404
0.438:431
0.438:403
0.438:379
0.438:348
0.438:358
0.438:397
0.439:473
0.439:532
0.439:541
0.439:524
0.439:512
0.440:542
0.440:521
0.440:457
0.440:422
0.440:412
0.441:418
0.441:447
0.441:452
0.441:450
0.441:432
0.441:379
0.442:358
0.442:357
0.442:381
0.442:431
0.442:512
0.442:581
0.443:617
0.443:630
0.443:630
0.443:657
0.443:703
0.444:685
0.444:599
0.444:513
0.444:455
0.444:414
0.444:385
0.445:398
0.445:403
0.445:428
0.446:468
0.446:521
0.446:563
0.446:600
0.446:617
0.446:684
0.446:734
0.446:738
0.447:717
0.447:654
0.447:626
0.447:620
0.447:555
0.449:480
0.449:415
0.449:361
0.449:303
0.449:259
0.449:289
0.449:382
0.449:436
0.449:464
0.451:461
0.451:443
0.451:448
0.451:471
0.452:511
0.452:549
0.452:544
0.452:550
0.452:627
0.453:667
0.453:649
0.453:593
0.453:544
0.453:541
0.454:555
0.454:583
0.454:600
0.454:545
0.454:423
0.454:348
0.454:341
0.454:410
0.454:476
0.456:533
0.456:544
0.456:586
0.456:586
0.456:599
0.457:595
0.457:626
0.457:632
0.457:643
0.457:647
0.457:683
0.458:693
0.458:663
0.458:624
0.458:607
0.458:599
0.458:542
0.459:539
0.459:553
0.459:570
0.459:532
0.459:553
0.460:538
0.460:535
0.460:546
0.460:581
0.460:680
0.460:695
0.461:662
0.461:654
0.461:627
0.461:578
0.461:538
0.462:524
0.462:524
0.462:497
0.462:436
0.462:401
0.462:408
0.463:463
0.463:536
0.463:592
0.463:610
0.463:609
0.464:652
0.464:730
0.464:780
0.464:792
0.464:778
0.465:740
0.465:707
0.465:669
0.465:595
0.466:552
0.467:546
0.467:520
0.467:461
0.467:467
0.467:496
0.467:504
0.468:516
0.468:531
0.468:504
0.468:504
0.469:515
0.469:514
0.469:524
0.469:555
0.469:563
0.470:553
0.470:524
0.470:502
0.470:487
0.470:490
0.471:463
0.471:419
0.471:371
0.471:314
0.471:314
0.472:353
0.472:403
0.472:438
0.472:435
0.473:455
0.473:518
0.473:529
0.473:504
0.473:542
0.473:554
0.474:514
0.474:466
0.474:442
0.474:381
0.474:313
0.475:297
0.475:298
0.476:262
0.476:211
0.476:221
0.476:247
0.476:327
0.477:369
0.477:441
0.477:473
0.477:509
0.477:540
0.477:564
0.478:599
0.478:588
0.478:546
0.478:479
0.478:463
0.479:414
0.479:327
0.479:295
0.479:318
0.479:323
0.479:326
0.480:330
0.480:329
0.480:354
0.480:391
0.480:446
0.481:446
0.481:466
0.481:485
0.481:511
0.483:542
0.483:574
0.483:531
0.483:462
0.483:423
0.483:431
0.483:439
0.483:470
0.483:496
0.483:519
0.484:507
0.484:468
0.484:453
0.485:472
0.485:526
0.485:548
0.485:594
0.485:650
0.486:671
0.486:634
0.486:620
0.486:622
0.486:589
0.486:573
0.486:542
0.486:523
0.486:478
0.486:439
0.486:448
0.486:456
0.486:431
0.486:397
0.486:431
0.487:480
0.487:541
0.487:531
0.487:569
0.487:630
0.487:640
0.488:621
0.488:608
0.488:645
0.488:676
0.488:684
0.489:608
0.489:526
0.489:510
0.489:510
0.489:497
0.489:479
0.490:476
0.490:494
0.490:514
0.490:520
0.490:522
0.490:538
0.491:7
0.491:475
0.491:460
0.491:426
0.491:371
0.492:333
0.492:317
0.492:331
0.492:369
0.492:407
0.493:436
0.493:461
0.493:505
0.493:555
0.493:8
0.493:394
0.494:441
0.494:468
0.494:480
0.494:487
0.494:531
0.495:581
0.495:607
0.495:601
0.496:577
0.496:551
0.496:507
0.496:475
0.496:460
0.496:426
0.496:371
0.497:333
0.497:317
0.497:331
0.497:369
0.497:407
0.498:436
0.498:461
0.500:505
0.500:555
0.500:607
0.500:645
0.500:664
0.500:665
0.501:638
0.501:596
0.501:554
0.501:521
0.501:506
0.501:486
0.502:441
0.502:361
0.502:321
0.502:312
0.502:317
0.503:347
0.503:390
0.503:424
0.503:451
0.503:487
0.503:545
0.504:597
0.504:627
0.504:643
0.504:631
0.504:607
0.504:569
0.504:534
0.504:501
0.505:470
0.505:470
0.505:430
0.505:395
0.505:376
0.506:369
0.506:359
0.506:376
0.506:419
0.506:459
0.506:480
0.506:497
0.506:541
0.508:578
0.508:601
0.508:607
0.508:584
0.508:553
0.508:531
0.509:501
0.509:470
0.509:443
0.509:397
0.509:352
0.510:316
0.510:316
0.510:339
0.510:359
0.510:401
0.510:455
0.511:500
0.511:521
0.511:555
0.511:596
0.511:618
0.512:612
0.512:591
0.512:563
0.512:531
0.512:496
0.512:465
0.513:444
0.513:394
0.513:356
0.513:336
0.513:325
0.514:333
0.514:352
0.514:389
0.514:424
0.515:455
0.516:496
0.516:549
0.516:600
0.518:621
0.518:617
0.519:599
0.519:577
0.519:552
0.520:524
0.520:489
0.520:489
0.521:452
0.521:404
0.521:371
0.521:348
0.521:332
0.522:340
0.522:372
0.522:402
0.522:432
0.522:472
0.523:513
0.523:566
0.523:611
0.523:643
0.523:655
0.524:664
0.524:634
0.524:584
0.524:544
0.524:508
0.525:471
0.525:426
0.525:393
0.525:363
0.525:355
0.526:368
0.526:406
0.526:429
0.526:454
0.526:500
0.526:547
0.526:601
0.526:637
0.527:641
0.527:649
0.527:643
0.527:613
0.527:574
0.527:542
0.527:519
0.527:489
0.527:430
0.527:379
0.527:354
0.527:353
0.527:380
0.527:410
0.527:440
0.527:467
0.527:513
0.528:561
0.528:609
0.528:639
0.528:650
0.528:656
0.529:646
0.529:613
0.529:553
0.529:508
0.529:508
0.529:481
0.530:444
0.530:397
0.530:357
0.531:326
0.531:314
0.531:334
0.532:367
0.532:409
0.533:459
0.533:492
0.533:526
0.533:570
0.533:598
0.533:624
0.533:627
0.534:600
0.534:552
0.534:514
0.535:483
0.535:462
0.535:429
0.535:363
0.536:317
0.536:297
0.536:295
0.536:312
0.536:351
0.536:388
0.537:429
0.537:460
0.537:483
0.537:543
0.537:594
0.538:615
0.538:604
0.538:586
0.538:563
0.538:547
0.538:520
0.539:482
0.539:444
0.539:403
0.539:369
0.539:354
0.540:349
0.540:351
0.540:383
0.540:404
0.540:422
0.540:456
0.541:502
0.541:550
0.541:595
0.541:623
0.541:606
0.542:588
0.542:558
0.542:540
0.542:540
0.542:521
0.542:500
0.543:448
0.543:392
0.543:348
0.543:316
0.543:308
0.544:339
0.544:384
0.544:426
0.544:465
0.544:509
0.544:549
0.545:587
0.545:624
0.545:618
0.545:600
0.546:596
0.546:589
0.546:570
0.546:532
0.546:484
0.546:447
0.546:385
0.547:335
0.547:329
0.547:337
0.547:350
0.547:384
0.547:423
0.547:448
0.548:475
0.550:515
0.550:552
0.551:588
0.551:602
0.551:601
0.551:590
0.552:563
0.552:531
0.552:507
0.552:473
0.552:429
0.553:384
0.553:353
0.553:313
0.553:306
0.553:339
0.554:384
0.554:414
0.554:437
0.554:477
0.554:525
0.555:581
0.555:622
0.555:629
0.555:621
0.555:601
0.555:578
0.556:578
0.556:564
0.556:538
0.556:498
0.556:460
0.556:412
0.556:399
0.556:410
0.556:415
0.557:429
0.557:473
0.557:538
0.557:594
0.557:634
0.558:671
0.558:709
0.558:760
0.558:788
0.558:796
0.558:801
0.559:790
0.559:779
0.559:759
0.559:717
0.559:654
0.560:600
0.560:570
0.560:553
0.560:557
0.560:581
0.560:612
0.561:637
0.561:665
0.561:656
0.561:653
0.562:666
0.562:659
0.562:633
0.562:602
0.562:581
0.562:545
0.563:510
0.563:486
0.563:459
0.563:421
0.563:372
0.564:336
0.564:328
0.564:337
0.564:390
0.564:434
0.566:479
0.566:528
0.567:554
0.567:598
0.567:632
0.567:654
0.567:670
0.568:651
0.569:614
0.569:614
0.569:609
0.569:600
0.569:566
0.570:548
0.570:530
0.570:488
0.570:447
0.570:438
0.571:444
0.571:469
0.571:512
0.571:556
0.571:566
0.572:567
0.572:603
0.572:652
0.572:680
0.572:694
0.572:681
0.573:645
0.573:588
0.573:515
0.573:447
0.573:425
0.574:391
0.574:335
0.574:291
0.574:286
0.574:298
0.574:322
0.575:348
0.575:386
0.575:425
0.575:472
0.575:533
0.576:566
0.576:579
0.576:591
0.576:608
0.576:584
0.576:543
0.576:502
0.576:463
0.577:444
0.577:419
0.577:372
0.577:330
0.577:315
0.577:327
0.578:342
0.578:372
0.578:415
0.578:445
0.578:470
0.579:514
0.579:542
0.579:552
0.579:575
0.579:582
0.579:582
0.580:585
0.580:553
0.580:494
0.580:455
0.580:434
0.581:379
0.582:321
0.582:282
0.582:274
0.583:292
0.583:317
0.583:365
0.583:428
0.583:475
0.584:488
0.584:519
0.584:566
0.584:604
0.584:625
0.586:619
0.586:594
0.586:550
0.586:517
0.586:487
0.587:451
0.587:400
0.587:340
0.587:330
0.587:335
0.587:357
0.588:408
0.588:456
0.588:509
0.588:554
0.588:582
0.588:619
0.589:646
0.589:667
0.589:655
0.589:622
0.589:613
0.589:596
0.590:540
0.590:496
0.590:469
0.592:415
0.592:364
0.592:342
0.592:317
0.593:324
0.593:346
0.593:387
0.594:427
0.594:458
0.594:499
0.596:561
0.596:613
0.596:633
0.596:639
0.612:639
0.612:634
0.612:623
0.612:583
0.612:548
0.612:521
0.615:488
0.616:459
0.616:420
0.617:389
0.617:377
0.617:396
0.617:427
0.617:469
0.617:489
0.620:502
0.620:524
0.620:579
0.620:616
0.621:632
0.621:639
0.621:638
0.621:615
0.621:564
0.621:519
0.624:492
0.624:465
0.624:423
0.624:372
0.624:334
0.640:324
0.640:333
0.640:372
0.644:417
0.644:461
0.644:488
0.645:516
0.645:559
0.646:605
0.646:635
0.646:648
0.646:628
0.648:596
0.648:585
0.650:552
0.650:514
0.650:485
0.650:442
0.650:400
0.651:356
0.651:332
0.651:335
0.653:383
0.653:439
0.653:480
0.653:522
0.654:560
0.654:601
0.654:649
0.654:674
0.669:674
0.669:663
0.674:621
0.674:584
0.674:565
0.674:541
0.675:487
0.675:436
0.675:385
0.675:359
0.675:352
0.677:344
0.677:363
0.677:395
0.677:436
0.678:497
0.678:549
0.678:604
0.678:665
0.678:692
0.679:660
0.682:623
0.683:615
0.683:610
0.683:608
0.683:572
0.683:529
0.683:509
0.684:476
0.684:433
0.702:407
0.702:403
0.703:394
0.703:411
0.703:459
0.703:515
0.704:537
0.704:533
0.706:554
0.706:589
0.706:629
0.706:610
0.706:586
0.706:567
0.706:538
0.707:502
0.707:461
0.707:416
0.710:362
0.710:315
0.710:280
0.710:253
0.711:262
0.711:298
0.711:337
0.711:390
0.711:451
0.714:470
0.715:510
0.715:541
0.730:541
0.730:549
0.731:555
0.731:540
0.732:515
0.732:487
0.732:455
0.734:420
0.734:390
0.734:333
0.736:282
0.736:260
0.736:290
0.736:327
0.736:349
0.737:372
0.737:405
0.739:445
0.739:468
0.739:509
0.739:549
0.740:587
0.740:595
0.740:573
0.740:540
0.740:509
0.743:478
0.743:456
0.743:416
0.743:355
0.759:325
0.759:322
0.760:306
0.760:332
0.764:381
0.764:429
0.764:454
0.764:478
0.765:534
0.765:580
0.765:609
0.766:614
0.766:591
0.767:548
0.767:516
0.768:479
0.768:440
0.768:419
0.769:394
0.769:334
0.769:308
0.769:302
0.770:297
0.771:312
0.772:344
0.772:390
0.772:418
0.772:440
0.772:468
0.773:499
0.788:499
0.788:523
0.788:538
0.792:537
0.792:552
0.792:552
0.792:520
0.793:489
0.793:447
0.793:423
0.793:370
0.793:332
0.794:320
0.796:320
0.796:341
0.796:383
0.798:402
0.798:418
0.798:450
0.798:498
0.798:562
0.798:610
0.800:624
0.800:612
0.800:589
0.800:543
0.800:498
0.800:478
0.800:467
0.800:427
0.821:368
0.821:326
0.821:304
0.821:312
0.822:354
0.822:407
0.822:456
0.822:477
0.822:500
0.825:531
0.825:577
0.825:624
0.825:636
0.825:623
0.826:604
0.826:572
0.826:551
0.826:522
0.826:499
0.829:472
0.829:419
0.829:368
0.829:328
0.830:327
0.830:350
0.830:387
0.830:438
0.830:475
0.830:490
0.833:536
0.849:536
0.849:601
0.849:636
0.850:645
0.850:639
0.850:624
0.850:575
0.851:496
0.851:450
0.853:420
0.854:426
0.854:395
0.854:350
0.854:309
0.854:312
0.855:334
0.856:365
0.856:398
0.858:442
0.858:475
0.858:510
0.858:570
0.858:618
0.858:628
0.858:616
0.858:597
0.858:574
0.858:530
0.862:491
0.862:462
0.878:413
0.878:345
0.878:324
0.879:314
0.879:313
0.882:343
0.883:405
0.883:466
0.884:500
0.884:524
0.884:554
0.884:581
0.884:621
0.885:627
0.885:597
0.886:565
0.886:552
0.886:541
0.886:523
0.886:496
0.887:441
0.887:368
0.887:325
0.887:314
0.890:327
0.890:350
0.890:374
0.890:412
0.890:453
0.891:501
0.906:501
0.906:545
0.906:579
0.906:611
0.908:627
0.911:626
0.911:600
0.911:570
0.911:531
0.912:493
0.912:457
0.912:428
0.912:407
0.912:381
0.916:364
0.916:359
0.916:360
0.917:381
0.917:438
0.917:483
0.917:512
0.917:567
0.918:621
0.918:654
0.918:654
0.919:624
0.919:606
0.919:598
0.919:552
0.919:505
0.935:461
0.940:414
0.940:375
0.940:351
0.940:321
0.941:324
0.941:355
0.941:398
0.941:448
0.941:480
0.941:491
0.944:534
0.944:596
0.944:631
0.944:637
0.945:627
0.945:608
0.945:577
0.945:552
0.945:516
0.948:479
0.949:457
0.949:412
0.949:385
0.950:363
0.950:354
0.950:381
0.950:409
0.950:442
0.950:470
0.968:470
0.968:507
0.968:552
0.968:603
0.968:648
0.968:657
0.968:641
0.969:610
0.969:571
0.969:534
0.972:510
0.972:483
0.972:435
0.972:394
0.973:363
0.973:337
0.973:344
0.973:385
0.973:432
0.974:470
0.976:502
0.976:521
0.976:560
0.977:611
0.977:645
0.977:643
0.977:620
0.977:592
0.978:555
0.980:514
0.996:486
0.996:468
0.996:429
0.997:383
0.997:367
0.997:354
0.997:352
1.001:370
1.001:397
1.001:444
1.001:465
1.002:480
1.002:524
1.002:580
1.002:614
1.002:650
1.005:638
1.005:591
1.005:558
1.005:527
1.006:491
1.006:441
1.006:380
1.006:328
1.006:294
1.006:290
1.009:332
1.009:382
1.009:400
1.009:418
1.025:418
1.025:454
1.025:486
1.025:531
1.025:584
1.027:606
1.030:605
1.030:618
1.030:633
1.031:599
1.031:539
1.032:491
1.032:454
1.032:407
1.032:356
1.034:311
1.034:293
1.034:307
1.035:337
1.035:362
1.035:412
1.036:477
1.036:507
1.036:542
1.036:581
1.038:613
1.038:630
1.038:620
1.038:577
1.039:545
1.054:526
1.054:497
1.054:441
1.058:374
1.059:332
1.059:320
1.059:330
1.059:336
1.060:356
1.060:400
1.060:418
1.060:453
1.063:495
1.063:542
1.063:569
1.063:601
1.063:623
1.063:610
1.063:568
1.064:525
1.064:505
1.064:488
1.067:445
1.067:394
1.067:343
1.067:304
1.068:303
1.068:320
1.068:356
1.069:396
1.083:396
1.083:437
1.087:479
1.087:525
1.087:564
1.087:594
1.087:611
1.087:626
1.087:619
1.087:597
1.088:557
1.091:530
1.091:489
1.091:436
1.091:367
1.091:322
1.091:291
1.091:283
1.092:297
1.092:339
1.092:390
1.094:453
1.094:505
1.096:535
1.096:552
1.096:590
1.097:629
1.097:640
1.097:660
1.097:662
1.115:634
1.115:589
1.115:558
1.115:546
1.116:527
1.116:497
1.116:485
1.116:475
1.120:492
1.120:546
1.120:615
1.120:703
1.120:772
1.121:843
1.121:916
1.121:938
1.121:959
1.121:985
1.123:981
1.124:927
1.124:859
1.124:826
1.124:790
1.124:736
1.124:678
1.124:642
1.124:604
1.127:559
1.127:526
1.128:505
1.144:505
1.144:502
1.144:515
1.144:525
1.144:535
1.144:578
1.144:614
1.148:630
1.148:627
1.149:611
1.149:585
1.149:552
1.149:519
1.149:480
1.149:435
1.149:398
1.149:369
1.152:352
1.153:349
1.153:363
1.153:405
1.153:462
1.153:500
1.154:511
1.154:533
1.154:589
1.156:644
1.156:702
1.156:721
1.156:711
1.173:660
1.173:614
1.173:576
1.173:533
1.177:470
1.177:389
1.177:348
1.177:342
1.178:340
1.178:340
1.178:374
1.178:424
1.178:470
1.178:500
1.181:532
1.182:596
1.182:626
1.182:618
1.182:616
1.182:615
1.182:586
1.183:540
1.183:482
1.185:437
1.185:389
1.186:307
1.186:249
1.186:239
1.186:245
1.187:258
1.202:258
1.202:288
1.202:325
1.206:372
1.206:421
1.206:477
1.206:538
1.207:574
1.207:591
1.207:573
1.207:571
1.207:572
1.208:541
1.210:499
1.210:472
1.210:424
1.210:376
1.210:351
1.211:335
1.211:317
1.211:322
1.211:342
1.214:398
1.214:468
1.214:515
1.215:529
1.215:568
1.215:604
1.215:625
1.215:627
1.234:593
1.234:549
1.234:494
1.234:447
1.234:393
1.234:331
1.236:279
1.236:266
1.236:261
1.239:276
1.239:307
1.239:361
1.239:406
1.239:456
1.240:499
1.240:515
1.240:559
1.240:614
1.240:650
1.243:636
1.243:595
1.243:533
1.243:492
1.243:454
1.244:432
1.244:412
1.244:346
1.244:294
1.244:298
1.246:318
1.263:318
1.263:324
1.263:352
1.263:414
1.263:468
1.264:500
1.264:524
1.265:577
1.265:626
1.267:646
1.267:600
1.268:546
1.268:522
1.268:500
1.268:466
1.268:451
1.269:425
1.269:387
1.271:374
1.272:361
1.272:362
1.272:392
1.273:455
1.273:511
1.273:572
1.274:619
1.274:654
1.274:681
1.275:679
1.275:662
1.292:622
1.292:595
1.292:587
1.292:567
1.292:515
1.296:477
1.296:430
1.296:400
1.296:383
1.297:385
1.297:433
1.297:498
1.297:546
1.297:604
1.298:673
1.299:724
1.299:748
1.299:749
1.299:750
1.299:733
1.299:699
1.300:624
1.300:548
1.300:497
1.304:439
1.304:395
1.304:334
1.304:261
1.304:222
1.304:184
1.320:184
1.320:200
1.320:223
1.320:273
1.324:329
1.325:376
1.325:413
1.325:473
1.325:551
1.325:587
1.326:594
1.326:579
1.326:565
1.326:556
1.329:523
1.329:475
1.329:404
1.329:355
1.329:323
1.330:294
1.330:290
1.330:293
1.330:329
1.330:375
1.332:419
1.333:469
1.333:509
1.333:550
1.333:595
1.333:657
1.349:713
1.353:703
1.353:603
1.353:557
1.353:542
1.353:515
1.353:474
1.353:429
1.355:377
1.355:355
1.355:375
1.356:398
1.357:401
1.357:407
1.357:436
1.357:503
1.357:573
1.358:646
1.358:726
1.358:770
1.362:802
1.362:819
1.362:797
1.362:762
1.362:685
1.363:615
1.363:561
1.363:476
1.363:375
1.363:310
1.381:310
1.382:282
1.382:267
1.382:265
1.382:255
1.382:262
1.383:314
1.383:386
1.383:446
1.383:498
1.386:537
1.386:556
1.386:518
1.387:474
1.387:430
1.387:402
1.387:362
1.387:337
1.387:307
1.390:256
1.390:241
1.390:247
1.390:252
1.390:274
1.391:303
1.391:340
1.391:412
1.391:465
1.391:531
1.394:560
1.410:545
1.410:521
1.410:490
1.411:471
1.411:471
1.411:466
1.411:452
1.415:411
1.415:361
1.415:312
1.415:269
1.416:253
1.416:272
1.416:318
1.417:371
1.417:449
1.419:520
1.419:546
1.419:584
1.419:629
1.420:642
1.420:632
1.420:631
1.420:614
1.420:563
1.420:480
1.422:437
1.422:397
1.422:331
1.422:259
1.439:259
1.439:231
1.439:232
1.439:237
1.439:236
1.439:264
1.443:326
1.443:361
1.443:386
1.443:438
1.444:503
1.444:545
1.444:549
1.444:536
1.444:512
1.447:493
1.448:507
1.448:476
1.448:406
1.448:333
1.448:287
1.448:280
1.449:290
1.449:284
1.449:314
1.451:372
1.451:429
1.451:471
1.451:498
1.451:516
1.468:578
1.468:624
1.468:626
1.472:604
1.472:564
1.472:525
1.472:476
1.473:452
1.473:447
1.473:410
1.473:320
1.473:253
1.476:247
1.476:276
1.476:338
1.477:386
1.477:404
1.477:445
1.477:484
1.477:532
1.478:582
1.478:590
1.480:585
1.481:576
1.481:573
1.482:544
1.482:501
1.482:464
1.482:449
1.483:432
1.496:432
1.496:391
1.500:336
1.500:306
1.501:318
1.501:345
1.501:369
1.501:422
1.501:478
1.502:483
1.502:494
1.504:533
1.504:590
1.504:605
1.504:600
1.505:581
1.505:537
1.505:477
1.506:434
1.506:393
1.506:366
1.508:331
1.508:301
1.509:303
1.509:334
1.509:360
1.509:397
1.510:433
1.510:452
1.510:481
1.529:541
1.529:584
1.529:599
1.530:600
1.530:594
1.530:573
1.530:552
1.531:537
1.533:499
1.533:463
1.533:400
1.533:335
1.533:311
1.534:312
1.534:328
1.534:353
1.534:387
1.534:428
1.537:455
1.537:482
1.537:541
1.537:632
1.538:694
1.538:667
1.538:607
1.538:549
1.538:541
1.541:521
1.541:484
1.541:451
1.558:451
1.558:406
1.558:348
1.558:314
1.559:310
1.559:323
1.559:370
1.562:419
1.562:466
1.562:512
1.562:515
1.563:545
1.563:589
1.563:615
1.563:630
1.563:634
1.564:601
1.566:558
1.566:549
1.566:535
1.567:499
1.567:418
1.567:346
1.567:308
1.567:304
1.567:323
1.570:365
1.570:416
1.570:441
1.570:466
1.586:493
1.586:535
1.586:577
1.586:605
1.591:621
1.591:613
1.591:587
1.591:568
1.592:538
1.592:488
1.592:449
1.592:401
1.592:382
1.593:381
1.595:383
1.595:399
1.595:437
1.595:488
1.595:540
1.596:536
1.596:510
1.596:544
1.596:595
1.599:612
1.599:587
1.599:564
1.599:551
1.600:510
1.600:491
1.600:518
1.614:518
1.614:516
1.614:464
1.619:423
1.619:394
1.619:403
1.619:446
1.619:444
1.619:447
1.619:459
1.620:479
1.620:521
1.620:596
1.623:633
1.623:593
1.623:548
1.623:554
1.623:556
1.623:545
1.623:524
1.623:496
1.623:467
1.627:424
1.627:378
1.627:349
1.627:372
1.627:426
1.628:440
1.628:480
1.628:514
1.648:520
1.648:529
1.648:564
1.648:577
1.648:579
1.649:572
1.649:570
1.649:560
1.649:541
1.652:510
1.652:456
1.653:433
1.653:399
1.653:372
1.653:379
1.653:395
1.654:402
1.654:425
1.654:458
1.656:481
1.656:469
1.656:494
1.657:545
1.657:613
1.657:623
1.657:601
1.657:542
1.658:486
1.658:457
1.659:440
1.676:440
1.676:424
1.676:401
1.677:387
1.677:398
1.677:409
1.677:414
1.677:408
1.678:434
1.681:465
1.681:482
1.681:495
1.681:508
1.681:538
1.681:553
1.681:561
1.681:530
1.682:517
1.684:514
1.684:514
1.684:503
1.686:460
1.686:414
1.686:405
1.686:374
1.686:345
1.686:354
1.686:380
1.688:410
1.688:473
1.704:499
1.705:492
1.705:510
1.705:547
1.705:594
1.709:629
1.709:614
1.709:573
1.709:553
1.710:517
1.710:456
1.710:409
1.710:383
1.710:366
1.710:334
1.714:305
1.715:327
1.715:383
1.715:405
1.716:423
1.716:431
1.716:443
1.716:499
1.716:578
1.717:622
1.717:621
1.717:610
1.718:590
1.718:564
1.718:538
1.733:538
1.733:506
1.733:480
1.734:432
1.738:337
1.738:289
1.738:289
1.738:299
1.739:348
1.739:409
1.739:426
1.739:448
1.739:492
1.739:523
1.742:603
1.742:647
1.742:644
1.743:607
1.743:584
1.743:551
1.743:511
1.743:482
1.743:482
1.746:450
1.746:393
1.746:355
1.746:345
1.746:333
1.746:361
1.747:422
1.762:481
1.767:559
1.767:602
1.767:632
1.767:712
1.767:744
1.767:759
1.767:771
1.768:760
1.768:747
1.768:717
1.771:693
1.771:692
1.771:701
1.771:683
1.772:653
1.772:623
1.772:630
1.772:682
1.772:724
1.775:711
1.775:754
1.775:798
1.775:855
1.775:890
1.775:880
1.776:869
1.776:859
1.776:803
1.776:745
1.795:745
1.796:682
1.796:604
1.796:516
1.796:425
1.797:352
1.797:313
1.797:327
1.797:353
1.798:380
1.800:401
1.800:426
1.800:463
1.800:502
1.800:539
1.800:602
1.800:646
1.800:672
1.800:677
1.804:665
1.804:628
1.804:591
1.804:564
1.805:535
1.805:445
1.805:372
1.806:340
1.806:330
1.806:343
1.807:393
1.823:445
1.823:464
1.823:499
1.824:530
1.824:552
1.824:597
1.824:646
1.828:678
1.828:672
1.828:640
1.828:591
1.828:517
1.829:451
1.829:390
1.829:322
1.829:279
1.832:270
1.832:266
1.833:290
1.833:321
1.833:328
1.833:357
1.833:386
1.833:433
1.834:504
1.834:551
1.835:546
1.836:546
1.836:534
1.836:526
1.852:526
1.852:513
1.852:482
1.852:455
1.852:422
1.854:381
1.856:318
1.856:263
1.856:251
1.856:270
1.857:263
1.857:321
1.857:388
1.857:419
1.857:461
1.861:536
1.861:595
1.861:597
1.861:590
1.862:595
1.862:576
1.862:534
1.862:483
1.862:436
1.863:403
1.865:368
1.865:333
1.865:304
1.865:294
1.865:297
1.881:331
1.881:378
1.881:433
1.885:476
1.885:502
1.885:546
1.885:591
1.886:601
1.886:600
1.886:613
1.886:619
1.886:572
1.890:524
1.890:509
1.890:496
1.890:453
1.891:395
1.891:359
1.891:358
1.891:360
1.891:375
1.892:398
1.893:439
1.894:486
1.894:518
1.894:544
1.894:584
1.894:613
1.895:612
1.895:597
1.909:597
1.909:574
1.913:538
1.914:470
1.914:434
1.914:404
1.914:383
1.914:369
1.914:349
1.914:307
1.915:316
1.918:353
1.918:408
1.918:432
1.918:466
1.919:501
1.919:537
1.919:604
1.919:652
1.919:661
1.920:631
1.922:591
1.922:530
1.922:489
1.922:473
1.923:424
1.923:352
1.923:293
1.923:264
1.923:273
1.942:320
1.942:365
1.942:397
1.942:400
1.943:446
1.943:500
1.943:580
1.943:643
1.946:680
1.946:703
1.947:696
1.947:669
1.947:667
1.947:662
1.947:625
1.948:585
1.948:520
1.948:486
1.951:502
1.951:531
1.951:552
1.951:573
1.951:594
1.951:611
1.952:672
1.952:766
1.952:788
1.955:768
1.955:765
1.955:765
1.971:765
1.971:724
1.972:611
1.972:500
1.972:428
1.972:381
1.972:335
1.975:252
1.975:198
1.975:182
1.976:204
1.976:209
1.976:257
1.976:295
1.976:327
1.978:381
1.978:445
1.980:523
1.980:556
1.980:580
1.980:580
1.980:573
1.980:549
1.981:529
1.981:516
1.981:479
1.983:449
1.983:402
1.983:336
1.983:299
2.000:302
2.000:324
2.001:354
2.001:406
2.004:488
2.004:556
2.004:555
2.004:579
2.004:637
2.004:682
2.004:691
2.004:678
2.004:656
2.008:617
2.008:555
2.009:525
2.009:487
2.009:426
2.009:340
2.009:321
2.009:335
2.009:351
2.009:350
2.012:349
2.012:379
2.012:417
2.012:434
2.013:478
2.013:528
2.013:571
2.029:571
2.029:571
2.029:568
2.033:536
2.033:496
2.033:466
2.033:452
2.034:441
2.034:391
2.034:371
2.034:347
2.034:361
2.036:422
2.037:462
2.037:453
2.037:484
2.037:539
2.038:589
2.038:618
2.038:654
2.038:686
2.038:699
2.041:711
2.041:743
2.041:758
2.041:721
2.042:652
2.042:565
2.042:458
2.042:426
2.062:435
2.062:484
2.062:536
2.062:583
2.063:606
2.063:623
2.063:631
2.063:642
2.064:653
2.066:638
2.066:606
2.066:546
2.066:509
2.067:431
2.067:318
2.067:193
2.067:122
2.067:89
2.067:43
2.067:17
2.069:17
2.069:17
2.069:52
2.070:136
2.070:197
2.070:229
2.070:265
2.070:339
2.071:443
2.071:488
2.090:488
2.090:490
2.090:504
2.090:505
2.091:491
2.091:470
2.091:468
2.091:451
2.091:446
2.094:393
2.094:319
2.094:292
2.094:256
2.094:243
2.094:281
2.094:337
2.096:383
2.096:437
2.098:465
2.098:520
2.099:571
2.099:601
2.099:563
2.099:537
2.100:520
2.100:504
2.100:472
2.101:439
2.102:426
2.102:355
2.118:282
2.118:252
2.118:242
2.118:281
2.118:344
2.123:364
2.123:344
2.123:355
2.123:429
2.124:517
2.124:552
2.124:549
2.124:555
2.124:557
2.124:545
2.126:537
2.126:524
2.126:505
2.127:482
2.127:449
2.127:435
2.127:442
2.127:488
2.128:530
2.131:571
2.131:617
2.131:637
2.131:658
2.131:679
2.132:718
2.147:718
2.147:746
2.147:751
2.147:736
2.151:686
2.151:633
2.151:557
2.152:504
2.152:449
2.152:390
2.152:307
2.152:264
2.153:264
2.153:281
2.156:269
2.156:280
2.156:294
2.156:344
2.156:391
2.156:458
2.156:551
2.156:600
2.156:578
2.160:552
2.160:542
2.160:535
2.160:501
2.161:461
2.161:430
2.161:370
2.176:311
2.180:305
2.181:303
2.181:313
2.181:336
2.182:356
2.182:400
2.182:472
2.182:504
2.182:528
2.183:565
2.184:608
2.184:661
2.184:653
2.184:614
2.185:588
2.186:557
2.186:502
2.186:448
2.186:390
2.188:305
2.188:213
2.188:151
2.188:139
2.188:159
2.188:234
2.188:290
2.188:310
2.188:353
2.188:450
2.209:450
2.209:560
2.209:616
2.209:646
2.210:661
2.210:659
2.210:640
2.210:622
2.210:593
2.210:578
2.214:561
2.214:516
2.214:458
2.214:408
2.214:396
2.214:456
2.216:542
2.216:623
2.216:710
2.217:827
2.217:961
2.217:989
2.217:987
2.218:988
2.218:988
2.218:990
2.219:912
2.219:768
2.219:632
2.221:505
2.237:411
2.237:319
2.238:222
2.238:142
2.238:112
2.238:131
2.238:166
2.241:200
2.241:252
2.242:319
2.242:400
2.242:469
2.242:523
2.242:546
2.242:529
2.243:520
2.246:494
2.246:468
2.246:413
2.247:376
2.247:348
2.247:320
2.248:314
2.248:293
2.248:313
2.248:380
2.249:406
2.249:425
2.250:460
2.250:507
2.265:507
2.266:591
2.266:656
2.266:633
2.267:620
2.267:609
2.270:594
2.270:584
2.270:557
2.270:512
2.271:462
2.271:409
2.271:371
2.271:353
2.272:323
2.274:309
2.274:320
2.274:366
2.274:446
2.275:486
2.275:545
2.276:584
2.276:611
2.276:640
2.276:635
2.278:616
2.278:591
2.278:560
2.278:518
2.278:496
2.294:480
2.294:415
2.299:354
2.299:326
2.299:296
2.299:303
2.299:332
2.299:366
2.300:395
2.300:450
2.300:516
2.300:598
2.303:646
2.303:665
2.303:655
2.303:625
2.304:602
2.304:562
2.304:523
2.304:487
2.304:472
2.304:420
2.307:360
2.307:325
2.307:293
2.307:295
2.307:337
2.307:390
2.307:445
2.307:499
2.323:499
2.323:535
2.327:558
2.327:603
2.327:654
2.327:664
2.328:646
2.328:631
2.328:573
2.328:497
2.328:431
2.331:427
2.332:396
2.332:332
2.332:314
2.333:315
2.333:325
2.333:350
2.334:399
2.334:461
2.334:497
2.336:528
2.336:571
2.336:599
2.336:631
2.336:656
2.336:654
2.336:624
2.336:587
2.336:513
2.356:453
2.356:435
2.356:384
2.356:337
2.356:315
2.357:329
2.357:338
2.357:331
2.361:358
2.361:426
2.361:502
2.361:553
2.362:623
2.362:675
2.362:663
2.362:628
2.362:591
2.364:542
2.364:527
2.364:507
2.365:504
2.366:501
2.366:421
2.366:337
2.367:303
2.367:304
2.367:332
2.368:369
2.368:421
2.369:458
2.385:458
2.385:513
2.385:549
2.386:596
2.386:624
2.386:640
2.386:640
2.389:642
2.389:630
2.389:610
2.389:584
2.389:539
2.390:508
2.390:465
2.390:410
2.390:421
2.390:444
2.393:464
2.393:508
2.393:538
2.393:591
2.393:667
2.394:688
2.394:758
2.394:837
2.394:896
2.396:922
2.397:898
2.397:870
2.397:850
2.413:781
2.413:730
2.413:722
2.413:671
2.417:586
2.417:533
2.417:536
2.418:553
2.418:553
2.418:554
2.418:557
2.419:596
2.419:593
2.422:585
2.422:613
2.422:620
2.422:625
2.422:634
2.422:594
2.422:546
2.422:507
2.422:470
2.422:426
2.426:386
2.426:372
2.426:352
2.426:322
2.426:344
2.426:412
2.427:456
2.442:456
2.442:477
2.442:517
2.448:552
2.448:621
2.448:687
2.448:672
2.448:671
2.448:667
2.448:632
2.448:606
2.449:582
2.449:555
2.451:512
2.451:448
2.451:394
2.451:360
2.452:348
2.452:369
2.452:424
2.452:467
2.453:503
2.454:525
2.454:560
2.454:615
2.454:626
2.455:634
2.455:634
2.455:604
2.455:527
2.475:501
2.475:487
2.475:458
2.475:399
2.475:348
2.476:289
2.476:260
2.476:273
2.476:316
2.479:362
2.479:402
2.479:427
2.479:456
2.479:490
2.481:530
2.481:582
2.481:619
2.481:630
2.481:586
2.483:539
2.483:497
2.483:485
2.484:478
2.484:437
2.484:356
2.484:295
2.484:300
2.484:318
2.486:335
2.486:358
2.503:358
2.504:401
2.504:430
2.504:457
2.504:507
2.504:557
2.504:580
2.504:596
2.508:599
2.508:595
2.508:574
2.508:540
2.508:500
2.509:463
2.509:417
2.509:356
2.509:307
2.509:290
2.512:303
2.512:338
2.512:363
2.512:379
2.513:426
2.513:496
2.513:550
2.513:612
2.513:629
2.513:639
2.516:643
2.516:633
2.532:565
2.533:509
2.533:476
2.533:456
2.533:453
2.536:397
2.536:327
2.536:305
2.536:315
2.536:334
2.536:348
2.536:385
2.537:440
2.537:472
2.537:521
2.540:594
2.540:660
2.540:663
2.540:646
2.541:628
2.541:591
2.541:522
2.541:479
2.541:463
2.545:444
2.545:368
2.545:322
2.545:294
2.545:286
2.545:316
2.560:316
2.560:385
2.560:417
2.561:452
2.564:505
2.566:553
2.566:600
2.566:630
2.566:679
2.567:692
2.567:646
2.567:604
2.567:567
2.567:523
2.569:487
2.569:442
2.569:374
2.570:322
2.570:306
2.570:322
2.570:344
2.570:393
2.571:459
2.573:487
2.573:528
2.573:582
2.573:645
2.573:673
2.574:674
2.574:656
2.589:644
2.594:630
2.594:582
2.594:525
2.594:484
2.594:423
2.594:387
2.595:353
2.595:317
2.595:329
2.595:366
2.597:415
2.597:435
2.597:473
2.598:503
2.598:539
2.599:607
2.599:674
2.599:706
2.600:716
2.601:701
2.601:655
2.601:580
2.602:534
2.602:512
2.602:459
2.602:408
2.602:361
2.603:320
2.603:326
2.622:326
2.622:361
2.622:397
2.622:452
2.622:509
2.623:540
2.623:572
2.623:627
2.623:657
2.623:672
2.626:682
2.626:683
2.626:655
2.626:593
2.626:508
2.626:452
2.626:429
2.626:391
2.626:356
2.630:347
2.630:359
2.630:377
2.630:404
2.630:458
2.630:515
2.631:533
2.631:556
2.631:596
2.631:636
2.634:642
2.651:627
2.651:605
2.651:578
2.651:560
2.651:524
2.652:464
2.652:416
2.654:361
2.654:328
2.654:316
2.656:326
2.656:329
2.656:352
2.656:382
2.656:433
2.656:490
2.659:536
2.659:579
2.659:618
2.659:649
2.660:642
2.660:589
2.660:531
2.660:500
2.660:458
2.661:416
2.662:365
2.663:318
2.663:289
2.663:271
2.680:271
2.680:275
2.681:307
2.681:373
2.681:433
2.681:466
2.683:479
2.684:498
2.684:553
2.684:581
2.684:594
2.684:585
2.686:574
2.686:537
2.686:483
2.688:456
2.688:435
2.688:385
2.688:303
2.688:263
2.689:271
2.689:281
2.689:278
2.689:323
2.689:388
2.692:441
2.692:474
2.692:516
2.693:568
2.693:606
2.708:632
2.708:612
2.713:580
2.714:537
2.714:477
2.714:411
2.714:361
2.715:331
2.715:299
2.715:285
2.715:293
2.715:320
2.716:332
2.717:361
2.717:391
2.717:423
2.717:473
2.717:530
2.717:597
2.718:632
2.718:634
2.718:607
2.720:571
2.720:530
2.721:496
2.721:470
2.721:429
2.721:367
2.721:303
2.721:279
2.736:279
2.736:282
2.740:286
2.741:303
2.741:349
2.741:395
2.741:409
2.741:450
2.742:513
2.742:596
2.742:641
2.746:653
2.746:634
2.746:600
2.747:564
2.747:521
2.747:479
2.747:441
2.747:373
2.748:322
2.748:299
2.749:298
2.749:293
2.750:304
2.750:343
2.750:391
2.751:421
2.751:473
2.751:539
2.751:594
2.769:630
2.770:637
2.770:635
2.770:608
2.770:569
2.770:523
2.771:500
2.771:456
2.774:387
2.774:324
2.774:311
2.774:292
2.774:306
2.775:338
2.775:381
2.775:417
2.775:442
2.778:466
2.778:522
2.778:595
2.778:649
2.778:664
2.779:644
2.779:609
2.780:563
2.780:533
2.780:513
2.782:489
2.782:404
2.782:313
2.799:313
2.799:269
2.799:281
2.800:323
2.800:375
2.800:411
2.800:424
2.803:460
2.803:485
2.803:519
2.803:584
2.803:635
2.803:650
2.803:635
2.803:588
2.803:550
2.803:516
2.806:479
2.806:443
2.806:411
2.806:373
2.806:343
2.806:320
2.806:335
2.806:371
2.806:412
2.811:464
2.811:501
2.811:523
2.811:590
2.827:646
2.827:635
2.827:618
2.828:625
2.832:620
2.832:567
2.832:511
2.833:480
2.833:453
2.833:416
2.833:382
2.833:358
2.834:340
2.835:356
2.835:407
2.836:441
2.836:453
2.836:487
2.836:507
2.836:553
2.836:619
2.836:657
2.836:651
2.839:640
2.839:623
2.839:596
2.839:563
2.840:526
2.840:473
2.840:414
2.856:414
2.856:368
2.856:315
2.860:299
2.860:309
2.860:349
2.860:404
2.861:456
2.861:493
2.861:513
2.861:561
2.861:619
2.864:637
2.864:646
2.864:659
2.864:648
2.865:588
2.865:539
2.865:504
2.865:470
2.865:420
2.867:362
2.868:336
2.868:333
2.869:357
2.869:391
2.869:417
2.869:454
2.869:499
2.870:521
2.889:564
2.889:608
2.889:631
2.889:636
2.889:611
2.889:588
2.889:548
2.889:509
2.889:490
2.893:462
2.893:400
2.893:356
2.893:354
2.894:341
2.894:340
2.894:358
2.894:410
2.894:459
2.894:489
2.897:513
2.897:551
2.897:573
2.897:602
2.898:619
2.898:617
2.898:580
2.898:553
2.898:527
2.901:498
2.901:471
2.917:471
2.918:415
2.918:361
2.918:341
2.918:327
2.918:333
2.919:349
2.919:381
2.921:426
2.921:465
2.921:512
2.921:577
2.922:595
2.922:610
2.922:607
2.922:595
2.922:575
2.923:550
2.926:519
2.926:495
2.926:458
2.926:406
2.926:368
2.927:338
2.927:330
2.927:312
2.927:346
2.929:389
2.929:434
2.930:470
2.946:512
2.946:560
2.947:596
2.947:621
2.947:633
2.950:615
2.950:586
2.950:551
2.950:505
2.950:485
2.950:450
2.951:401
2.951:371
2.951:352
2.951:345
2.954:339
2.954:355
2.954:386
2.954:422
2.954:458
2.954:494
2.954:541
2.954:602
2.956:634
2.958:650
2.958:642
2.958:615
2.959:557
2.959:504
2.959:455
2.974:455
2.974:422
2.974:383
2.974:358
2.979:337
2.980:330
2.980:323
2.980:344
2.981:406
2.981:460
2.981:486
2.981:510
2.982:561
2.982:606
2.983:626
2.983:614
2.983:585
2.983:557
2.984:538
2.984:509
2.984:505
2.984:479
2.984:398
2.986:359
2.986:330
2.986:332
2.987:353
2.987:390
2.987:436
2.987:478
3.003:506
3.007:549
3.007:610
3.007:668
3.007:701
3.008:713
3.008:699
3.008:662
3.008:634
3.008:612
3.009:586
3.011:571
3.011:539
3.011:504
3.011:489
3.011:501
3.012:524
3.012:571
3.013:628
3.013:680
3.014:711
3.016:754
3.016:813
3.016:846
3.016:859
3.016:854
3.016:839
3.016:809
3.016:776
3.016:739
3.036:739
3.036:670
3.036:582
3.036:474
3.036:409
3.036:386
3.036:375
3.037:377
3.037:371
3.037:390
3.040:429
3.040:483
3.040:538
3.040:592
3.041:641
3.041:669
3.041:680
3.041:673
3.041:643
3.044:589
3.044:544
3.044:511
3.044:488
3.045:433
3.045:404
3.046:386
3.046:392
3.046:408
3.046:451
3.048:486
3.064:521
3.064:555
3.064:594
3.064:651
3.064:684
3.066:699
3.066:699
3.069:688
3.069:660
3.069:624
3.069:577
3.069:530
3.070:490
3.070:436
3.070:382
3.070:345
3.073:350
3.073:364
3.073:389
3.073:408
3.074:450
3.074:476
3.074:505
3.074:555
3.074:595
3.074:612
3.076:613
3.076:572
3.076:533
3.076:509
3.093:509
3.094:475
3.094:436
3.094:405
3.095:361
3.095:315
3.096:298
3.096:310
3.098:332
3.098:367
3.098:414
3.098:452
3.098:482
3.098:522
3.098:564
3.101:594
3.101:620
3.101:603
3.101:582
3.102:557
3.102:527
3.102:481
3.102:441
3.102:399
3.102:353
3.105:317
3.105:294
3.106:297
3.106:326
3.106:374
3.122:414
3.122:436
3.126:463
3.126:504
3.126:563
3.126:609
3.127:628
3.127:632
3.127:602
3.127:561
3.127:519
3.128:477
3.130:443
3.130:416
3.130:356
3.131:321
3.131:303
3.131:319
3.131:346
3.132:372
3.132:416
3.134:461
3.134:497
3.134:537
3.134:589
3.135:632
3.135:661
3.135:646
3.135:603
3.135:564
3.150:564
3.150:525
3.154:489
3.154:462
3.155:427
3.155:371
3.155:344
3.155:331
3.155:336
3.155:362
3.156:393
3.159:432
3.159:471
3.159:512
3.159:545
3.160:599
3.160:635
3.160:638
3.160:629
3.160:597
3.161:573
3.162:537
3.163:506
3.163:464
3.163:416
3.163:360
3.163:325
3.164:321
3.164:347
3.164:369
3.184:406
3.184:451
3.184:494
3.184:520
3.184:558
3.184:612
3.185:655
3.185:659
3.187:657
3.187:634
3.187:592
3.187:542
3.188:505
3.188:481
3.188:441
3.188:394
3.188:355
3.192:347
3.192:344
3.192:375
3.192:418
3.193:464
3.193:500
3.193:531
3.193:581
3.194:626
3.194:652
3.195:665
3.195:649
3.196:622
3.212:622
3.212:580
3.212:544
3.213:515
3.213:491
3.214:448
3.214:399
3.216:364
3.216:355
3.216:375
3.217:405
3.217:446
3.217:489
3.217:524
3.217:554
3.218:593
3.220:644
3.220:666
3.220:667
3.220:657
3.221:629
3.221:593
3.221:550
3.221:510
3.221:472
3.222:422
3.224:383
3.224:355
3.224:353
3.224:372
3.240:393
3.241:430
3.241:473
3.241:506
3.245:537
3.245:585
3.246:627
3.246:660
3.247:667
3.247:645
3.247:603
3.247:564
3.247:523
3.249:486
3.249:456
3.249:394
3.249:331
3.250:298
3.250:286
3.250:292
3.250:317
3.250:347
3.250:374
3.253:411
3.253:441
3.253:488
3.253:549
3.254:602
3.254:618
3.254:612
3.269:612
3.269:590
3.269:569
3.273:539
3.273:508
3.273:485
3.273:436
3.274:382
3.274:345
3.274:341
3.274:350
3.274:376
3.278:408
3.278:442
3.278:473
3.278:509
3.279:552
3.279:597
3.280:627
3.280:634
3.280:627
3.280:601
3.282:569
3.282:531
3.282:486
3.282:453
3.283:408
3.283:360
3.283:332
3.283:327
3.302:339
3.302:355
3.303:388
3.303:421
3.303:462
3.303:492
3.303:533
3.303:574
3.304:600
3.306:605
3.306:601
3.306:572
3.306:537
3.306:490
3.306:450
3.306:418
3.306:368
3.306:310
3.308:270
3.310:263
3.310:269
3.310:288
3.310:330
3.311:373
3.311:403
3.311:446
3.311:507
3.312:553
3.313:589
3.313:595
3.331:595
3.331:583
3.331:551
3.331:511
3.331:476
3.331:447
3.331:420
3.332:366
3.335:314
3.335:284
3.335:277
3.335:282
3.335:319
3.336:376
3.336:424
3.336:474
3.336:517
3.336:573
3.339:616
3.339:653
3.339:668
3.340:648
3.340:616
3.340:576
3.340:529
3.340:490
3.341:458
3.343:404
3.343:353
3.343:329
3.359:329
3.359:346
3.360:372
3.360:407
3.360:440
3.364:482
3.364:519
3.364:560
3.365:600
3.365:632
3.365:637
3.366:621
3.366:591
3.366:549
3.366:507
3.367:472
3.367:438
3.368:389
3.368:345
3.368:317
3.368:308
3.368:315
3.369:349
3.369:393
3.372:439
3.372:470
3.372:506
3.372:554
3.372:598
3.372:619
3.387:619
3.387:624
3.388:610
3.388:577
3.392:534
3.392:505
3.392:467
3.392:427
3.393:376
3.393:329
3.393:303
3.393:308
3.393:329
3.394:359
3.397:392
3.397:430
3.397:462
3.397:499
3.397:557
3.397:605
3.397:627
3.397:630
3.397:617
3.400:589
3.400:551
3.400:514
3.400:483
3.400:453
3.401:398
3.401:350
3.416:326
3.421:328
3.421:347
3.421:373
3.421:399
3.421:438
3.421:471
3.421:500
3.421:560
3.422:596
3.422:625
3.424:628
3.424:610
3.425:581
3.426:557
3.426:527
3.426:484
3.426:450
3.426:397
3.426:361
3.429:346
3.430:341
3.430:364
3.430:390
3.430:425
3.430:460
3.431:486
3.431:515
3.431:563
3.431:594
3.449:594
3.449:613
3.449:622
3.449:618
3.449:593
3.450:559
3.450:524
3.450:492
3.450:456
3.450:403
3.453:363
3.453:335
3.453:336
3.453:362
3.454:398
3.454:438
3.454:484
3.454:516
3.454:538
3.458:584
3.458:626
3.458:648
3.458:647
3.458:621
3.459:593
3.459:554
3.459:526
3.459:495
3.459:454
3.462:400
3.478:355
3.478:336
3.478:343
3.479:358
3.479:384
3.480:416
3.482:455
3.482:487
3.482:530
3.482:586
3.482:624
3.482:646
3.482:647
3.482:625
3.482:589
3.482:552
3.486:517
3.486:485
3.486:445
3.486:391
3.486:350
3.486:323
3.486:331
3.486:348
3.486:378
3.486:416
3.490:455
3.490:489
3.490:521
3.490:571
3.507:571
3.507:608
3.507:624
3.507:620
3.507:599
3.507:568
3.511:536
3.511:500
3.511:466
3.511:425
3.512:371
3.512:329
3.513:304
3.513:307
3.513:336
3.514:372
3.515:402
3.515:437
3.515:471
3.515:514
3.515:563
3.515:611
3.516:631
3.516:622
3.516:607
3.519:575
3.519:541
3.519:496
3.519:467
3.519:428
3.535:372
3.535:337
3.540:311
3.540:314
3.540:335
3.540:366
3.541:404
3.541:439
3.541:468
3.541:519
3.541:570
3.541:610
3.544:625
3.544:618
3.544:599
3.544:567
3.544:528
3.545:492
3.546:462
3.546:425
3.546:370
3.547:329
3.547:312
3.547:323
3.547:343
3.547:372
3.547:406
3.548:447
3.548:484
3.548:523
3.564:523
3.565:570
3.568:605
3.568:625
3.568:615
3.568:595
3.568:559
3.569:516
3.569:483
3.569:456
3.569:413
3.572:363
3.572:337
3.572:323
3.573:332
3.573:359
3.573:393
3.573:430
3.573:462
3.574:495
3.574:533
3.576:575
3.577:607
3.577:619
3.577:612
3.577:588
3.577:557
3.577:521
3.578:487
3.578:461
3.596:423
3.597:373
3.597:341
3.597:329
3.597:334
3.597:354
3.597:392
3.597:433
3.601:472
3.601:505
3.601:548
3.601:595
3.602:629
3.602:650
3.602:650
3.602:629
3.602:609
3.605:582
3.606:554
3.606:532
3.606:505
3.606:469
3.606:455
3.606:462
3.607:496
3.607:532
3.607:591
3.609:646
3.609:693
3.609:739
3.626:739
3.626:788
3.626:835
3.626:856
3.626:862
3.626:861
3.626:848
3.629:819
3.630:785
3.630:741
3.630:705
3.630:660
3.630:602
3.630:555
3.630:504
3.631:462
3.634:459
3.634:463
3.634:475
3.634:486
3.634:499
3.634:534
3.635:586
3.635:621
3.635:634
3.635:620
3.638:591
3.638:556
3.638:516
3.638:491
3.654:466
3.654:435
3.654:399
3.654:376
3.658:371
3.658:388
3.658:408
3.659:440
3.659:487
3.659:525
3.659:555
3.659:599
3.660:650
3.662:680
3.663:688
3.663:676
3.664:647
3.664:613
3.664:577
3.664:540
3.664:503
3.664:454
3.666:399
3.666:366
3.666:357
3.666:365
3.666:387
3.666:412
3.666:438
3.666:461
3.682:461
3.683:476
3.683:513
3.687:549
3.687:579
3.687:586
3.687:570
3.687:537
3.687:507
3.687:472
3.687:434
3.687:417
3.691:380
3.691:337
3.691:314
3.691:304
3.691:319
3.692:349
3.692:379
3.692:418
3.692:447
3.693:474
3.695:516
3.696:560
3.696:586
3.697:595
3.697:584
3.697:559
3.697:523
3.697:492
3.716:459
3.716:433
3.716:389
3.716:343
3.716:316
3.716:308
3.717:326
3.717:355
3.717:386
3.720:420
3.720:455
3.720:493
3.720:538
3.721:579
3.721:605
3.721:610
3.721:596
3.721:569
3.722:536
3.724:499
3.724:466
3.724:440
3.724:396
3.724:350
3.724:326
3.724:321
3.724:336
3.725:363
3.727:396
3.728:437
3.744:437
3.744:473
3.744:503
3.744:543
3.744:586
3.745:610
3.746:615
3.746:603
3.748:574
3.748:539
3.749:508
3.749:477
3.749:446
3.749:403
3.749:357
3.749:333
3.750:332
3.750:350
3.753:375
3.753:408
3.753:451
3.753:485
3.754:511
3.754:552
3.754:596
3.754:617
3.754:624
3.756:609
3.756:584
3.756:544
3.773:507
3.773:480
3.773:455
3.773:409
3.774:365
3.777:331
3.777:332
3.777:351
3.778:381
3.778:416
3.778:456
3.778:497
3.778:532
3.779:578
3.779:615
3.781:625
3.781:634
3.781:620
3.782:591
3.782:557
3.782:523
3.782:492
3.782:461
3.782:416
3.785:377
3.785:352
3.785:348
3.785:365
3.785:395
3.786:430
3.801:430
3.801:464
3.802:501
3.802:533
3.806:583
3.806:624
3.806:646
3.806:644
3.806:626
3.806:596
3.807:564
3.807:526
3.807:496
3.807:469
3.810:420
3.810:381
3.810:356
3.810:356
3.811:378
3.811:410
3.811:445
3.811:484
3.811:520
3.813:550
3.813:596
3.813:634
3.814:652
3.814:649
3.814:628
3.814:598
3.829:560
3.834:526
3.834:492
3.834:469
3.835:423
3.835:380
3.835:357
3.835:362
3.835:382
3.835:411
3.839:446
3.839:486
3.839:519
3.839:548
3.840:592
3.840:629
3.840:644
3.840:637
3.840:618
3.840:589
3.843:558
3.843:522
3.843:490
3.843:454
3.844:400
3.844:363
3.844:346
3.844:347
3.844:366
3.845:399
3.863:399
3.863:439
3.864:479
3.864:509
3.864:532
3.864:572
3.865:612
3.865:631
3.865:623
3.865:597
3.867:566
3.867:530
3.867:494
3.867:465
3.867:434
3.868:384
3.868:345
3.868:325
3.868:325
3.871:347
3.871:381
3.871:414
3.871:445
3.872:478
3.872:511
3.872:557
3.872:590
3.872:606
3.873:601
3.875:582
3.892:541
3.892:503
3.892:476
3.892:441
3.893:400
3.893:365
3.896:332
3.897:317
3.897:314
3.897:325
3.897:353
3.897:390
3.897:427
3.897:467
3.897:506
3.897:555
3.900:586
3.900:597
3.900:590
3.900:570
3.901:537
3.901:499
3.901:467
3.901:444
3.902:415
3.904:358
3.904:326
3.904:315
3.904:316
3.904:334
3.920:334
3.920:370
3.921:412
3.921:443
3.921:470
3.921:506
3.924:552
3.924:584
3.924:605
3.924:609
3.925:591
3.925:555
3.925:512
3.925:477
3.926:450
3.930:414
3.930:364
3.931:332
3.931:318
3.931:316
3.931:335
3.932:371
3.932:412
3.932:448
3.932:478
3.933:511
3.933:556
3.933:595
3.933:614
3.933:608
3.948:582
3.949:548
3.953:512
3.953:484
3.953:454
3.953:416
3.954:363
3.954:329
3.954:314
3.954:322
3.954:347
3.954:380
3.957:420
3.957:452
3.957:483
3.957:517
3.958:567
3.958:599
3.958:614
3.958:605
3.958:581
3.961:550
3.962:518
3.963:484
3.963:453
3.963:419
3.963:373
3.963:338
3.964:323
3.964:333
3.977:333
3.982:356
3.982:386
3.982:422
3.982:461
3.983:493
3.983:527
3.983:577
3.983:611
3.983:628
3.983:620
3.986:595
3.986:561
3.986:523
3.986:490
3.986:463
3.986:425
3.986:375
3.986:341
3.986:328
3.990:335
3.990:356
3.990:389
3.990:429
3.991:468
3.991:500
3.991:534
3.991:581
3.991:608
3.991:623
4.010:616
4.010:596
4.010:566
4.010:528
4.011:496
4.011:470
4.011:436
4.011:390
4.015:361
4.015:347
4.015:351
4.015:364
4.015:398
4.015:439
4.015:473
4.015:503
4.016:541
4.019:587
4.019:618
4.019:629
4.019:622
4.019:600
4.020:578
4.020:545
4.020:509
4.021:479
4.021:442
4.023:396
4.023:365
4.023:352
4.039:352
4.039:361
4.039:384
4.039:418
4.039:457
4.040:495
4.040:528
4.043:565
4.043:605
4.043:634
4.043:643
4.044:636
4.044:607
4.044:572
4.045:535
4.045:505
4.047:477
4.047:436
4.047:390
4.047:358
4.048:342
4.048:351
4.048:374
4.048:413
4.048:452
4.049:489
4.051:523
4.051:567
4.051:619
4.052:647
4.067:658
4.067:643
4.067:619
4.067:588
4.071:548
4.071:510
4.071:472
4.072:428
4.072:379
4.072:351
4.072:345
4.072:352
4.073:381
4.076:420
4.076:463
4.076:499
4.077:529
4.077:570
4.077:618
4.077:646
4.077:655
4.078:641
4.079:611
4.079:570
4.079:530
4.079:494
4.079:464
4.081:419
4.081:368
4.081:339
4.096:339
4.096:331
4.096:343
4.101:372
4.101:412
4.101:456
4.101:494
4.101:521
4.102:565
4.102:611
4.102:639
4.102:642
4.104:628
4.104:596
4.105:556
4.105:513
4.105:477
4.105:442
4.105:401
4.106:353
4.106:324
4.106:318
4.109:334
4.109:364
4.109:403
4.109:444
4.110:479
4.110:507
4.110:549
4.110:592
4.129:620
4.129:624
4.129:612
4.129:590
4.129:555
4.129:512
4.129:477
4.130:447
4.130:400
4.133:351
4.133:319
4.133:314
4.133:328
4.134:361
4.134:406
4.134:449
4.134:486
4.134:518
4.135:565
4.137:613
4.137:636
4.137:634
4.137:621
4.138:593
4.138:554
4.138:511
4.138:474
4.138:442
4.141:395
4.141:349
4.158:349
4.158:320
4.158:314
4.158:328
4.158:363
4.158:401
4.159:444
4.159:481
4.162:514
4.162:562
4.162:606
4.162:631
4.162:636
4.162:620
4.162:588
4.162:550
4.162:511
4.162:477
4.166:439
4.166:386
4.166:336
4.166:313
4.166:310
4.167:329
4.167:361
4.167:405
4.167:448
4.170:481
4.170:516
4.170:564
4.186:606
4.186:625
4.186:628
4.186:611
4.186:583
4.191:546
4.191:506
4.191:470
4.191:436
4.191:387
4.191:341
4.192:318
4.192:319
4.192:337
4.192:371
4.195:410
4.195:446
4.196:479
4.196:510
4.196:554
4.196:599
4.196:624
4.196:631
4.196:623
4.199:603
4.199:575
4.199:544
4.199:519
4.200:497
4.200:457
4.215:457
4.215:423
4.215:413
4.215:426
4.219:462
4.219:514
4.219:571
4.219:633
4.220:694
4.220:749
4.220:815
4.220:873
4.220:906
4.221:916
4.223:904
4.223:870
4.223:838
4.223:810
4.223:781
4.224:743
4.224:698
4.224:655
4.224:621
4.227:605
4.227:608
4.227:612
4.228:608
4.228:604
4.228:602
4.230:608
4.243:632
4.248:651
4.248:660
4.248:660
4.248:638
4.249:598
4.249:545
4.249:497
4.249:457
4.249:415
4.252:367
4.252:331
4.252:323
4.252:336
4.253:362
4.253:396
4.253:431
4.253:473
4.254:515
4.254:553
4.256:607
4.256:655
4.256:680
4.256:678
4.256:658
4.257:624
4.257:583
4.257:543
4.257:502
4.257:462
4.277:462
4.277:404
4.277:356
4.277:329
4.277:328
4.277:349
4.277:378
4.277:407
4.277:436
4.278:463
4.281:491
4.281:537
4.281:574
4.282:592
4.282:587
4.282:564
4.282:530
4.282:494
4.282:455
4.285:422
4.285:383
4.285:331
4.285:294
4.285:278
4.286:285
4.286:308
4.286:344
4.286:382
4.286:423
4.289:461
4.305:498
4.305:547
4.305:584
4.305:601
4.305:598
4.306:575
4.310:539
4.310:499
4.310:462
4.310:430
4.311:394
4.311:337
4.311:299
4.311:285
4.311:293
4.312:316
4.314:354
4.314:400
4.314:440
4.314:476
4.315:511
4.315:560
4.315:596
4.315:613
4.315:606
4.317:583
4.317:547
4.317:507
4.317:468
4.318:436
4.333:436
4.333:401
4.333:349
4.334:311
4.334:295
4.338:304
4.338:327
4.338:365
4.338:405
4.338:445
4.339:481
4.339:520
4.339:570
4.339:608
4.339:622
4.342:615
4.342:592
4.342:556
4.343:518
4.343:481
4.343:447
4.343:409
4.343:358
4.344:322
4.344:308
4.346:316
4.346:342
4.346:381
4.346:422
4.346:463
4.362:500
4.362:538
4.366:586
4.366:622
4.366:634
4.367:626
4.367:600
4.367:565
4.367:528
4.367:492
4.367:457
4.368:416
4.371:366
4.371:329
4.371:315
4.371:324
4.372:352
4.372:393
4.372:436
4.372:474
4.372:508
4.375:548
4.375:599
4.375:632
4.375:643
4.375:631
4.376:606
4.376:571
4.376:533
4.376:496
4.391:496
4.394:465
4.395:421
4.395:367
4.395:333
4.395:320
4.397:331
4.397:358
4.397:398
4.397:438
4.397:479
4.400:514
4.400:554
4.400:605
4.400:640
4.401:651
4.401:641
4.401:614
4.401:577
4.401:539
4.404:500
4.404:468
4.404:427
4.404:375
4.405:342
4.405:332
4.405:343
4.405:371
4.405:409
4.406:450
4.424:491
4.424:524
4.424:563
4.425:614
4.425:646
4.425:658
4.425:646
4.425:619
4.428:582
4.428:542
4.428:505
4.429:473
4.429:430
4.429:379
4.429:344
4.429:331
4.429:344
4.432:373
4.432:410
4.432:452
4.432:488
4.433:521
4.433:561
4.433:611
4.433:642
4.433:650
4.433:636
4.436:607
4.436:570
4.436:532
4.452:532
4.452:495
4.453:461
4.453:420
4.453:368
4.454:334
4.454:322
4.457:333
4.457:361
4.457:399
4.457:439
4.457:477
4.457:509
4.457:549
4.457:597
4.458:625
4.461:632
4.462:617
4.462:587
4.462:550
4.462:511
4.463:472
4.463:440
4.463:393
4.463:340
4.463:310
4.464:300
4.464:314
4.464:344
4.464:382
4.481:423
4.481:461
4.482:492
4.482:535
4.485:583
4.486:609
4.486:614
4.486:599
4.486:568
4.486:529
4.486:487
4.486:450
4.486:418
4.490:371
4.490:321
4.490:291
4.490:284
4.491:298
4.491:328
4.491:369
4.491:411
4.491:448
4.492:480
4.494:525
4.494:573
4.494:600
4.494:605
4.494:591
4.495:561
4.495:522
4.510:522
4.510:482
4.510:445
4.514:413
4.514:368
4.514:317
4.514:289
4.514:283
4.514:296
4.514:326
4.514:364
4.516:405
4.518:444
4.518:480
4.518:525
4.518:575
4.519:602
4.519:606
4.519:591
4.519:561
4.519:523
4.520:484
4.522:448
4.522:416
4.522:368
4.522:320
4.523:293
4.523:289
4.523:307
4.523:336
4.543:377
4.543:417
4.543:457
4.543:491
4.544:536
4.544:583
4.544:609
4.544:613
4.544:595
4.546:567
4.546:528
4.546:489
4.547:453
4.547:420
4.547:375
4.547:329
4.547:302
4.547:297
4.548:313
4.550:346
4.550:386
4.551:427
4.551:466
4.551:498
4.551:544
4.551:589
4.551:616
4.552:619
4.555:602
4.555:571
4.571:571
4.571:532
4.571:492
4.571:456
4.571:424
4.572:376
4.572:329
4.572:304
4.575:302
4.575:319
4.575:351
4.576:392
4.576:434
4.576:472
4.576:505
4.576:550
4.576:598
4.576:622
4.579:626
4.579:606
4.579:574
4.580:536
4.580:497
4.580:463
4.580:431
4.580:381
4.581:335
4.584:310
4.584:310
4.584:328
4.600:360
4.600:401
4.600:443
4.600:480
4.601:512
4.604:559
4.604:604
4.604:627
4.605:626
4.605:608
4.605:574
4.605:536
4.605:498
4.605:463
4.606:431
4.608:382
4.608:336
4.609:314
4.609:314
4.609:334
4.609:365
4.609:406
4.609:448
4.609:484
4.612:518
4.612:566
4.612:609
4.612:630
4.613:629
4.613:612
4.629:612
4.629:580
4.629:543
4.629:503
4.633:467
4.633:435
4.633:385
4.633:340
4.634:319
4.634:320
4.634:337
4.634:371
4.634:412
4.634:454
4.637:489
4.637:521
4.637:569
4.638:613
4.638:635
4.638:633
4.638:612
4.638:579
4.639:542
4.641:503
4.641:471
4.641:436
4.641:388
4.642:344
4.642:324
4.642:325
4.657:344
4.661:381
4.662:419
4.662:463
4.662:500
4.662:534
4.662:584
4.662:623
4.663:640
4.663:639
4.666:620
4.666:590
4.666:552
4.666:514
4.667:480
4.667:447
4.667:398
4.667:358
4.667:336
4.667:336
4.670:353
4.670:385
4.670:427
4.670:467
4.670:502
4.671:536
4.671:585
4.671:625
4.671:645
4.674:644
4.690:644
4.690:625
4.690:592
4.690:554
4.691:518
4.691:485
4.691:451
4.691:400
4.691:356
4.694:337
4.696:340
4.696:359
4.696:393
4.696:432
4.696:473
4.697:510
4.697:547
4.697:596
4.697:636
4.698:655
4.698:651
4.698:628
4.699:594
4.699:552
4.699:514
4.699:478
4.699:443
4.700:391
4.700:348
4.702:330
4.719:335
4.719:357
4.719:394
4.720:435
4.720:476
4.720:510
4.723:543
4.723:592
4.723:629
4.723:645
4.724:639
4.724:616
4.724:580
4.724:541
4.724:505
4.724:473
4.726:436
4.726:383
4.728:342
4.728:324
4.729:330
4.729:354
4.729:390
4.729:427
4.729:466
4.731:501
4.731:534
4.731:582
4.731:619
4.731:632
4.747:632
4.747:625
4.747:603
4.748:565
4.748:525
4.752:483
4.752:450
4.752:414
4.752:360
4.753:321
4.753:307
4.753:315
4.753:339
4.753:377
4.753:417
4.756:457
4.756:493
4.756:531
4.757:581
4.757:618
4.757:632
4.757:622
4.757:597
4.758:561
4.760:519
4.760:477
4.760:446
4.760:410
4.760:358
4.761:322
4.776:306
4.776:312
4.780:334
4.780:373
4.780:414
4.780:452
4.780:487
4.780:526
4.782:577
4.782:612
4.782:626
4.782:619
4.785:593
4.785:557
4.785:516
4.785:478
4.785:445
4.785:406
4.785:353
4.785:315
4.786:300
4.789:309
4.789:335
4.789:374
4.789:414
4.790:455
4.790:489
4.790:527
4.790:580
4.790:614
4.804:614
4.809:628
4.809:617
4.809:593
4.809:555
4.810:516
4.810:478
4.810:444
4.810:403
4.810:348
4.811:311
4.812:298
4.812:309
4.812:335
4.813:373
4.813:417
4.813:456
4.813:492
4.813:531
4.813:582
4.816:615
4.817:627
4.817:616
4.817:590
4.817:555
4.817:517
4.817:479
4.818:447
4.818:407
4.818:353
4.837:317
4.837:305
4.838:316
4.838:342
4.838:380
4.838:420
4.838:460
4.838:494
4.841:530
4.841:578
4.842:612
4.842:624
4.842:616
4.842:590
4.842:552
4.843:511
4.843:473
4.846:440
4.846:399
4.846:344
4.847:309
4.847:298
4.847:317
4.847:352
4.847:400
4.848:451
4.848:502
4.850:545
4.850:592
4.850:653
4.866:653
4.867:696
4.867:721
4.867:726
4.867:718
4.867:701
4.867:682
4.870:672
4.870:666
4.870:645
4.871:609
4.871:589
4.871:594
4.871:622
4.871:659
4.871:715
4.875:768
4.875:817
4.875:858
4.875:905
4.875:965
4.875:990
4.875:990
4.876:970
4.876:925
4.876:866
4.878:798
4.879:719
4.879:640
4.879:564
4.894:481
4.895:419
4.895:393
4.895:395
4.898:415
4.898:447
4.899:470
4.899:487
4.899:506
4.899:538
4.899:576
4.900:607
4.900:625
4.903:620
4.903:602
4.903:566
4.904:528
4.904:496
4.904:467
4.904:428
4.904:383
4.904:359
4.904:354
4.907:369
4.907:398
4.907:434
4.908:472
4.908:504
4.908:530
4.908:565
4.923:565
4.923:606
4.923:630
4.928:636
4.928:619
4.928:582
4.928:533
4.928:480
4.928:437
4.929:403
4.929:358
4.929:306
4.932:271
4.932:262
4.932:275
4.932:300
4.933:335
4.933:375
4.933:412
4.933:443
4.933:487
4.934:539
4.936:569
4.936:578
4.936:564
4.937:536
4.937:502
4.937:463
4.937:428
4.938:396
4.956:354
4.956:302
4.956:273
4.956:268
4.957:280
4.957:308
4.957:349
4.957:392
4.957:431
4.961:464
4.962:506
4.962:555
4.963:585
4.963:592
4.963:580
4.963:552
4.963:517
4.963:479
4.964:444
4.964:415
4.964:369
4.964:318
4.964:290
4.964:283
4.966:297
4.966:328
4.966:365
4.966:407
4.969:444
4.969:475
4.984:475
4.986:519
4.986:569
4.986:596
4.986:603
4.986:589
4.986:560
4.986:524
4.989:487
4.989:453
4.989:422
4.989:377
4.990:327
4.990:299
4.990:293
4.990:311
4.990:342
4.990:381
4.993:424
4.993:464
4.993:495
4.993:538
4.993:584
4.994:608
4.995:614
4.995:599
4.995:570
4.996:535
4.996:496
4.996:460
5.013:430
5.013:384
5.013:336
5.013:309
5.014:305
5.018:322
5.018:352
5.018:392
5.018:435
5.019:474
5.019:507
5.019:551
5.019:598
5.019:623
5.022:628
5.022:612
5.022:582
5.022:546
5.023:507
5.023:472
5.023:441
5.023:394
5.023:346
5.023:322
5.026:318
5.026:335
5.026:369
5.026:410
5.027:449
5.027:487
5.042:487
5.042:519
5.042:565
5.042:612
5.046:637
5.046:639
5.046:623
5.047:590
5.047:552
5.047:514
5.047:482
5.047:450
5.048:403
5.048:356
5.050:331
5.050:328
5.050:348
5.051:381
5.051:419
5.051:462
5.051:501
5.051:527
5.052:572
5.055:618
5.055:642
5.055:645
5.055:630
5.055:597
5.055:561
5.055:523
5.070:490
5.075:459
5.075:411
5.075:365
5.076:339
5.076:337
5.076:355
5.076:386
5.077:427
5.078:469
5.078:505
5.078:539
5.080:587
5.080:630
5.080:652
5.080:654
5.080:636
5.080:602
5.080:561
5.081:520
5.083:483
5.083:450
5.083:401
5.083:357
5.084:334
5.084:333
5.084:351
5.084:386
5.084:427
5.087:466
5.104:466
5.104:502
5.104:532
5.104:576
5.104:619
5.105:640
5.105:639
5.105:621
5.105:587
5.108:548
5.108:509
5.108:475
5.108:441
5.108:392
5.109:344
5.109:323
5.109:323
5.110:342
5.110:377
5.111:417
5.112:456
5.112:489
5.112:518
5.112:562
5.112:602
5.112:621
5.113:619
5.113:599
5.113:564
5.116:524
5.132:485
5.132:451
5.132:416
5.132:363
5.132:318
5.133:295
5.137:298
5.137:318
5.137:351
5.137:390
5.137:429
5.138:466
5.138:498
5.138:545
5.138:586
5.138:604
5.141:601
5.141:582
5.141:550
5.141:511
5.142:474
5.142:440
5.142:407
5.142:357
5.142:312
5.144:290
5.144:291
5.145:309
5.145:343
5.145:383
5.161:383
5.162:422
5.162:459
5.162:493
5.162:539
5.165:579
5.165:598
5.165:596
5.165:577
5.166:544
5.166:506
5.166:468
5.166:434
5.167:399
5.167:343
5.169:300
5.169:280
5.169:285
5.169:309
5.169:344
5.169:382
5.171:422
5.171:460
5.171:494
5.173:545
5.173:586
5.173:604
5.173:599
5.174:577
5.174:545
5.190:506
5.190:471
5.194:439
5.194:406
5.194:354
5.194:314
5.195:296
5.195:303
5.195:326
5.195:360
5.196:401
5.196:442
5.197:478
5.197:512
5.198:562
5.198:599
5.198:616
5.198:611
5.198:589
5.199:556
5.199:519
5.202:483
5.202:452
5.202:418
5.203:364
5.203:323
5.203:306
5.203:312
5.203:335
5.204:371
5.218:371
5.223:412
5.223:450
5.223:485
5.223:521
5.224:570
5.224:608
5.224:623
5.224:618
5.224:595
5.225:560
5.226:521
5.226:483
5.226:451
5.226:415
5.226:362
5.226:323
5.228:305
5.228:312
5.228:337
5.231:374
5.231:415
5.231:454
5.231:488
5.232:525
5.232:575
5.232:613
5.232:630
5.232:624
5.232:601
5.251:568
5.251:526
5.251:488
5.251:455
5.252:417
5.252:364
5.252:327
5.252:312
5.254:318
5.255:343
5.255:379
5.255:419
5.255:461
5.255:495
5.257:533
5.257:586
5.257:622
5.259:637
5.259:629
5.259:605
5.259:567
5.259:531
5.260:495
5.260:461
5.260:422
5.261:369
5.261:332
5.262:315
5.263:326
5.263:352
5.280:352
5.280:387
5.280:431
5.280:472
5.280:505
5.280:542
5.281:591
5.284:626
5.284:639
5.284:630
5.284:606
5.284:570
5.285:531
5.285:492
5.285:461
5.285:423
5.288:369
5.288:334
5.288:322
5.288:334
5.288:359
5.289:396
5.289:437
5.289:475
5.289:507
5.289:545
5.292:596
5.292:631
5.292:644
5.292:634
5.308:609
5.309:572
5.309:532
5.313:495
5.313:463
5.313:423
5.313:370
5.314:336
5.314:324
5.314:335
5.314:362
5.314:398
5.314:436
5.316:476
5.316:509
5.316:549
5.316:599
5.316:634
5.317:646
5.317:635
5.317:609
5.317:571
5.317:531
5.320:491
5.320:456
5.320:415
5.320:362
5.321:330
5.321:317
5.321:329
5.337:329
5.337:355
5.337:392
5.341:434
5.341:475
5.341:509
5.342:548
5.342:597
5.342:629
5.342:640
5.342:630
5.342:602
5.345:564
5.345:525
5.345:485
5.345:455
5.345:415
5.346:363
5.346:330
5.346:318
5.346:329
5.346:357
5.349:396
5.349:438
5.349:477
5.349:512
5.351:554
5.351:604
5.351:633
5.351:641
5.369:630
5.369:603
5.370:565
5.370:525
5.370:489
5.370:458
5.370:416
5.371:366
5.371:335
5.374:326
5.374:339
5.374:367
5.374:402
5.374:441
5.375:479
5.375:512
5.375:553
5.375:602
5.378:631
5.378:639
5.378:624
5.378:596
5.379:561
5.379:523
5.379:485
5.379:454
5.379:411
5.379:361
5.382:331
5.382:323
5.398:323
5.398:336
5.398:366
5.398:402
5.399:442
5.399:481
5.399:516
5.399:558
5.403:606
5.403:634
5.403:640
5.403:625
5.403:596
5.403:560
5.404:522
5.404:488
5.404:460
5.404:414
5.407:359
5.407:329
5.407:323
5.407:338
5.407:367
5.407:407
5.408:450
5.408:488
5.408:520
5.411:564
5.412:612
5.412:639
5.427:644
5.427:627
5.428:596
5.428:558
5.428:519
5.431:484
5.431:452
5.431:406
5.431:357
5.432:328
5.432:324
5.432:338
5.432:368
5.432:407
5.436:448
5.436:485
5.436:518
5.436:563
5.436:613
5.436:640
5.437:643
5.437:626
5.437:595
5.437:556
5.439:515
5.440:480
5.440:447
5.440:398
5.441:347
5.441:321
5.456:321
5.456:318
5.456:335
5.456:368
5.461:408
5.462:451
5.462:492
5.462:525
5.462:572
5.462:620
5.462:645
5.463:647
5.463:629
5.464:596
5.464:557
5.464:516
5.464:480
5.465:443
5.465:392
5.465:343
5.465:318
5.465:316
5.465:337
5.468:373
5.468:413
5.468:457
5.468:496
5.469:529
5.469:578
5.469:625
5.484:650
5.489:648
5.489:627
5.489:594
5.489:554
5.490:514
5.490:475
5.490:443
5.490:392
5.490:342
5.493:316
5.493:314
5.494:333
5.495:368
5.495:411
5.496:455
5.496:494
5.496:527
5.496:573
5.496:620
5.496:643
5.496:644
5.496:624
5.497:591
5.497:552
5.497:510
5.497:472
5.497:439
5.498:388
5.501:340
5.517:340
5.517:316
5.517:314
5.517:332
5.518:370
5.518:413
5.518:456
5.518:496
5.518:531
5.522:578
5.522:622
5.522:645
5.522:646
5.523:627
5.523:592
5.523:552
5.523:512
5.523:475
5.523:440
5.525:387
5.525:339
5.525:316
5.526:316
5.526:336
5.526:374
5.527:417
5.527:461
5.527:501
5.529:535
5.529:585
5.545:629
5.545:650
5.546:650
5.546:629
5.546:595
5.546:555
5.550:514
5.550:478
5.550:442
5.550:389
5.550:343
5.551:322
5.551:325
5.551:345
5.551:378
5.551:418
5.553:459
5.554:497
5.554:531
5.554:581
5.554:624
5.554:648
5.555:646
5.555:630
5.555:598
5.558:559
5.558:519
5.558:484
5.559:449
5.559:398
5.574:398
5.574:355
5.574:333
5.574:336
5.574:356
5.578:393
5.578:435
5.579:477
5.579:512
5.579:548
5.579:598
5.579:641
5.580:663
5.580:660
5.580:636
5.583:600
5.583:559
5.583:516
5.584:479
5.584:443
5.584:390
5.584:345
5.584:324
5.584:328
5.586:352
5.586:389
5.586:433
5.586:474
5.587:509
5.587:544
5.602:595
5.602:635
5.607:653
5.607:647
5.607:625
5.607:589
5.608:551
5.608:511
5.608:475
5.608:438
5.608:384
5.608:339
5.610:320
5.612:324
5.612:349
5.612:384
5.612:424
5.612:464
5.613:499
5.613:533
5.613:584
5.616:624
5.616:641
5.616:635
5.616:611
5.616:571
5.617:528
5.617:486
5.617:451
5.617:416
5.631:416
5.635:362
5.636:320
5.636:300
5.636:306
5.636:328
5.637:368
5.637:413
5.637:453
5.637:490
5.637:526
5.639:576
5.640:617
5.640:636
5.640:629
5.640:606
5.640:570
5.641:529
5.641:489
5.641:453
5.643:412
5.644:356
5.644:313
5.644:295
5.644:303
5.644:327
5.645:367
5.645:412
5.646:457
5.646:494
5.664:530
5.664:582
5.664:623
5.664:641
5.666:634
5.666:610
5.666:573
5.666:531
5.668:489
5.669:449
5.669:408
5.669:351
5.669:309
5.669:291
5.670:301
5.670:326
5.670:366
5.673:411
5.673:453
5.673:490
5.674:528
5.674:581
5.674:620
5.674:636
5.674:625
5.676:601
5.676:565
5.678:521
5.678:481
5.678:446
5.694:446
5.694:405
5.694:347
5.694:308
5.694:293
5.694:303
5.694:327
5.697:369
5.697:416
5.697:457
5.697:493
5.697:532
5.698:585
5.698:622
5.698:636
5.698:624
5.702:597
5.702:560
5.702:518
5.703:478
5.703:443
5.703:403
5.704:346
5.704:310
5.704:296
5.704:308
5.705:336
5.705:374
5.706:418
5.706:462
5.721:500
5.721:539
5.722:590
5.726:625
5.726:637
5.726:628
5.727:600
5.727:562
5.727:519
5.727:481
5.727:446
5.728:401
5.728:345
5.730:307
5.730:295
5.730:305
5.730:334
5.730:375
5.731:421
5.731:463
5.731:500
5.731:540
5.731:593
5.734:627
5.734:637
5.734:623
5.734:594
5.734:554
5.734:514
5.735:478
5.750:478
5.751:445
5.751:403
5.755:348
5.755:312
5.756:300
5.756:312
5.756:340
5.756:383
5.756:428
5.757:470
5.757:505
5.758:546
5.758:596
5.759:629
5.759:641
5.760:629
5.760:600
5.760:560
5.760:517
5.761:480
5.761:445
5.763:403
5.763:351
5.763:316
5.763:304
5.763:319
5.763:347
5.764:388
5.764:433
5.783:475
5.783:510
5.783:552
5.783:604
5.784:636
5.784:646
5.784:632
5.784:604
5.784:565
5.787:523
5.787:485
5.787:451
5.787:404
5.788:348
5.788:316
5.788:306
5.788:319
5.788:350
5.791:391
5.791:435
5.791:476
5.791:510
5.791:554
5.791:605
5.791:635
5.792:644
5.792:629
5.792:597
5.796:558
5.796:514
5.812:514
5.813:472
5.813:437
5.813:388
5.814:333
5.814:303
5.814:300
5.814:325
5.816:367
5.816:423
5.816:484
5.816:539
5.817:585
5.817:642
5.817:706
5.817:747
5.817:768
5.818:770
5.820:759
5.820:743
5.820:731
5.820:722
5.820:707
5.821:682
5.821:648
5.821:633
5.821:642
5.824:671
5.824:723
5.824:777
5.841:830
5.841:875
5.841:919
5.841:975
5.841:989
5.844:989
5.844:990
5.844:990
5.846:945
5.846:880
5.846:798
5.846:713
5.846:642
5.846:563
5.849:475
5.849:424
5.849:398
5.849:398
5.850:421
5.850:440
5.850:451
5.850:473
5.850:496
5.850:533
5.853:580
5.853:616
5.853:630
5.853:620
5.854:595
5.854:559
5.869:559
5.870:523
5.870:490
5.870:465
5.874:428
5.874:387
5.874:364
5.874:361
5.874:376
5.875:405
5.875:442
5.875:476
5.875:509
5.877:536
5.877:575
5.877:618
5.877:642
5.878:640
5.878:613
5.878:568
5.878:515
5.879:464
5.879:422
5.881:384
5.881:330
5.881:279
5.882:251
5.882:247
5.882:266
5.882:300
5.897:342
5.902:387
5.902:427
5.902:460
5.902:509
5.902:558
5.903:584
5.903:587
5.903:569
5.903:535
5.906:496
5.906:454
5.906:416
5.907:384
5.907:334
5.907:284
5.907:258
5.907:257
5.907:275
5.908:308
5.910:352
5.910:399
5.910:441
5.911:475
5.911:524
5.911:573
5.911:596
5.912:598
5.912:579
5.914:544
5.931:544
5.931:504
5.931:464
5.931:427
5.931:395
5.932:345
5.932:295
5.932:271
5.932:269
5.934:289
5.934:325
5.934:369
5.936:411
5.936:451
5.936:487
5.936:535
5.936:582
5.937:607
5.937:608
5.939:588
5.939:555
5.939:517
5.940:475
5.940:439
5.940:405
5.940:353
5.940:303
5.941:278
5.943:279
5.943:299
5.958:336
5.960:380
5.960:428
5.960:469
5.960:503
5.960:551
5.963:598
5.964:622
5.964:623
5.964:602
5.964:568
5.964:527
5.965:485
5.965:449
5.965:415
5.965:365
5.967:318
5.967:294
5.967:294
5.968:316
5.968:353
5.968:395
5.968:440
5.968:478
5.969:514
5.971:565
5.971:610
5.971:635
5.971:633
5.972:610
5.988:610
5.988:575
5.988:534
5.988:493
5.989:454
5.992:420
5.992:368
5.993:322
5.993:300
5.994:305
5.994:328
5.994:363
5.994:405
5.994:448
5.994:487
5.997:524
5.997:574
5.997:619
5.997:640
5.997:636
5.997:616
5.997:582
5.997:542
5.998:503
6.000:471
6.001:439
6.001:386
6.001:340
6.001:316
6.001:318
6.017:336
6.017:372
6.021:415
6.021:459
6.021:499
6.022:538
6.022:591
6.022:635
6.023:657
6.023:654
6.023:632
6.024:597
6.024:553
6.025:509
6.025:474
6.025:438
6.025:384
6.025:340
6.026:319
6.026:322
6.026:347
6.029:387
6.029:428
6.029:475
6.029:516
6.029:551
6.029:603
6.029:646
6.030:666
6.030:663
6.044:663
6.049:640
6.049:601
6.050:560
6.050:520
6.050:482
6.051:447
6.051:393
6.051:346
6.051:326
6.052:331
6.053:354
6.054:393
6.054:438
6.054:482
6.054:519
6.054:553
6.056:608
6.056:648
6.056:665
6.058:660
6.058:635
6.058:597
6.058:555
6.058:512
6.059:473
6.059:437
6.059:382
6.059:338
6.059:318
6.078:322
6.078:345
6.078:384
6.078:426
6.078:471
6.079:507
6.079:543
6.081:593
6.082:633
6.082:650
6.082:641
6.082:615
6.083:575
6.083:532
6.083:491
6.083:454
6.083:416
6.086:360
6.086:317
6.086:297
6.086:300
6.087:325
6.087:361
6.087:404
6.087:447
6.087:484
6.087:519
6.090:570
6.090:610
6.090:625
6.106:625
6.106:616
6.107:591
6.107:552
6.107:508
6.107:465
6.107:427
6.111:386
6.111:329
6.111:290
6.111:273
6.112:283
6.112:309
6.112:348
6.112:391
6.112:434
6.114:470
6.115:510
6.115:564
6.115:603
6.115:616
6.115:604
6.115:575
6.116:536
6.116:493
6.116:453
6.119:417
6.119:375
6.119:321
6.119:283
6.134:270
6.136:282
6.136:309
6.139:350
6.140:395
6.140:437
6.140:471
6.141:508
6.141:558
6.141:594
6.142:609
6.142:600
6.142:573
6.143:533
6.144:495
6.144:454
6.144:420
6.144:381
6.144:326
6.144:289
6.144:276
6.144:286
6.147:313
6.148:355
6.148:400
6.148:440
6.148:478
6.148:518
6.148:570
6.149:607
6.164:607
6.164:621
6.168:609
6.168:581
6.168:542
6.169:501
6.169:460
6.169:428
6.169:385
6.169:330
6.170:296
6.170:284
6.172:296
6.172:325
6.173:365
6.173:411
6.173:454
6.173:491
6.173:532
6.173:584
6.174:619
6.174:629
6.177:618
6.177:590
6.177:550
6.177:506
6.178:468
6.178:434
6.178:391
6.178:336
6.197:302
6.197:288
6.197:303
6.197:333
6.198:374
6.198:420
6.198:463
6.198:499
6.198:541
6.201:593
6.201:626
6.201:636
6.202:624
6.202:595
6.202:553
6.202:511
6.202:471
6.202:438
6.205:396
6.205:342
6.205:308
6.206:298
6.206:312
6.206:342
6.206:385
6.206:430
6.206:473
6.206:509
6.208:551
6.209:602
6.225:602
6.225:634
6.225:644
6.226:629
6.226:599
6.226:560
6.226:519
6.226:478
6.229:444
6.229:397
6.230:342
6.230:310
6.230:300
6.230:315
6.230:345
6.230:388
6.231:433
6.233:475
6.233:511
6.233:557
6.234:608
6.234:639
6.234:646
6.234:630
6.234:598
6.235:558
6.235:516
6.237:480
6.238:445
6.238:399
6.254:344
6.254:312
6.254:303
6.254:319
6.254:351
6.259:392
6.259:437
6.259:478
6.259:511
6.260:558
6.260:611
6.260:641
6.260:648
6.260:630
6.263:600
6.263:562
6.263:520
6.263:480
6.263:445
6.264:398
6.264:343
6.264:311
6.264:306
6.264:323
6.266:354
6.266:396
6.266:442
6.267:482
6.267:518
6.267:561
6.283:561
6.283:611
6.283:640
6.283:647
6.286:628
6.287:596
6.287:557
6.287:515
6.287:476
6.287:442
6.287:392
6.288:337
6.288:308
6.291:303
6.291:322
6.291:355
6.291:396
6.291:441
6.292:481
6.293:515
6.293:562
6.294:613
6.294:642
6.294:647
6.295:631
6.295:598
6.295:557
6.296:513
6.296:474
6.296:440
6.311:391
6.316:337
6.316:309
6.316:303
6.316:320
6.316:354
6.316:397
6.317:443
6.317:483
6.317:516
6.320:564
6.320:614
6.320:641
6.320:642
6.321:625
6.321:593
6.321:552
6.321:509
6.321:472
6.321:438
6.324:391
6.324:339
6.324:314
6.324:310
6.324:328
6.324:361
6.325:405
6.325:449
6.325:488
6.328:521
6.344:521
6.344:567
6.344:616
6.344:642
6.344:644
6.344:625
6.344:593
6.344:552
6.344:510
6.349:474
6.349:442
6.349:390
6.349:338
6.350:313
6.350:311
6.350:329
6.350:364
6.350:408
6.350:451
6.353:489
6.353:523
6.353:572
6.353:620
6.354:644
6.354:645
6.354:626
6.354:593
6.354:552
6.356:511
6.356:477
6.373:443
6.373:389
6.373:338
6.373:314
6.373:310
6.374:330
6.377:363
6.378:403
6.378:446
6.378:488
6.378:522
6.378:572
6.378:619
6.379:642
6.379:642
6.379:623
6.381:587
6.381:546
6.382:505
6.382:466
6.382:432
6.382:379
6.382:330
6.383:307
6.383:308
6.385:329
6.386:364
6.386:406
6.386:452
6.386:490
6.401:490
6.401:524
6.401:575
6.401:621
6.402:644
6.406:643
6.406:622
6.406:586
6.407:543
6.407:502
6.407:465
6.407:430
6.407:377
6.408:330
6.408:306
6.410:307
6.411:328
6.411:366
6.412:411
6.412:455
6.412:496
6.412:531
6.412:581
6.413:625
6.413:648
6.413:646
6.413:626
6.414:591
6.414:548
6.414:506
6.430:470
6.430:436
6.435:382
6.435:335
6.435:314
6.435:314
6.435:337
6.435:375
6.435:418
6.436:462
6.436:498
6.439:531
6.439:585
6.439:631
6.439:654
6.440:651
6.440:625
6.440:585
6.440:543
6.440:501
6.440:465
6.443:431
6.444:378
6.444:335
6.444:316
6.445:323
6.445:349
6.445:387
6.445:430
6.446:474
6.458:474
6.464:513
6.464:549
6.464:604
6.464:648
6.464:670
6.465:665
6.465:642
6.465:607
6.465:566
6.465:525
6.467:490
6.467:455
6.467:401
6.467:355
6.467:334
6.468:337
6.468:355
6.468:391
6.468:432
6.471:473
6.471:511
6.471:548
6.471:601
6.472:645
6.472:663
6.472:658
6.472:636
6.472:598
6.473:556
6.491:514
6.491:477
6.492:439
6.492:383
6.492:339
6.493:321
6.493:327
6.496:351
6.496:390
6.496:433
6.496:476
6.497:515
6.497:552
6.497:604
6.497:644
6.497:660
6.498:653
6.500:628
6.500:587
6.500:543
6.500:501
6.501:463
6.501:423
6.501:368
6.501:325
6.501:304
6.504:308
6.504:330
6.504:368
6.504:411
6.520:411
6.520:457
6.521:495
6.521:531
6.521:585
6.521:624
6.521:642
6.524:635
6.524:611
6.524:573
6.524:530
6.524:489
6.526:453
6.526:414
6.527:357
6.527:315
6.529:297
6.529:306
6.529:330
6.529:370
6.530:416
6.530:459
6.530:496
6.530:534
6.530:586
6.531:626
6.533:639
6.533:629
6.533:603
6.533:563
6.549:521
6.549:480
6.549:446
6.553:408
6.553:353
6.553:312
6.553:296
6.554:306
6.554:333
6.554:373
6.554:416
6.554:458
6.555:496
6.557:534
6.558:584
6.558:621
6.558:636
6.558:627
6.558:601
6.559:562
6.559:520
6.559:480
6.561:444
6.561:403
6.561:349
6.561:311
6.562:296
6.562:306
6.562:334
6.562:376
6.577:376
6.577:421
6.582:463
6.582:500
6.582:537
6.582:588
6.583:625
6.583:638
6.583:628
6.583:603
6.583:564
6.583:522
6.586:481
6.586:447
6.586:401
6.586:346
6.587:309
6.587:295
6.587:306
6.587:333
6.587:373
6.588:418
6.590:462
6.590:498
6.590:537
6.590:590
6.590:627
6.591:639
6.591:628
6.591:602
6.610:563
6.610:520
6.610:479
6.610:446
6.610:405
6.610:349
6.610:313
6.611:300
6.611:312
6.615:339
6.615:382
6.615:426
6.616:468
6.616:504
6.616:545
6.616:596
6.616:632
6.616:643
6.619:631
6.619:605
6.619:564
6.619:522
6.620:483
6.620:450
6.620:406
6.620:351
6.620:317
6.621:306
6.623:318
6.623:346
6.639:346
6.639:386
6.639:429
6.640:470
6.640:506
6.640:546
6.640:600
6.640:633
6.644:644
6.644:631
6.644:604
6.644:566
6.645:523
6.645:484
6.645:449
6.645:404
6.645:349
6.647:313
6.647:302
6.647:315
6.647:346
6.648:389
6.648:436
6.648:479
6.648:515
6.648:558
6.648:608
6.651:639
6.651:648
6.651:632
6.667:604
6.668:564
6.668:524
6.668:483
6.668:449
6.672:403
6.672:349
6.672:316
6.672:307
6.672:319
6.672:349
6.673:390
6.673:434
6.673:473
6.676:508
6.677:549
6.677:598
6.677:631
6.677:645
6.677:641
6.677:621
6.677:594
6.677:567
6.677:543
6.680:523
6.680:486
6.680:446
6.680:427
6.680:434
6.680:470
6.696:470
6.696:524
6.697:585
6.697:656
6.701:727
6.701:790
6.701:856
6.701:928
6.702:977
6.702:990
6.702:990
6.702:982
6.702:956
6.705:927
6.705:899
6.705:874
6.705:834
6.705:788
6.705:752
6.706:728
6.706:720
6.706:731
6.706:748
6.710:754
6.710:743
6.710:727
6.710:738
6.711:752
6.711:748
6.711:735
6.724:702
6.729:655
6.730:587
6.730:513
6.730:453
6.730:407
6.730:352
6.731:302
6.731:280
6.731:286
6.734:315
6.734:353
6.734:400
6.734:454
6.735:502
6.735:543
6.735:599
6.735:662
6.735:698
6.736:707
6.737:690
6.737:655
6.737:609
6.738:559
6.738:510
6.738:467
6.738:410
6.738:351
6.739:318
6.741:310
6.757:310
6.757:321
6.758:347
6.758:380
6.758:410
6.758:443
6.759:471
6.759:514
6.759:560
6.762:585
6.762:589
6.762:572
6.762:540
6.763:499
6.763:457
6.763:421
6.763:387
6.763:336
6.763:286
6.766:261
6.766:260
6.766:279
6.767:315
6.767:356
6.767:402
6.767:442
6.767:477
6.768:523
6.770:570
6.770:596
6.786:597
6.786:579
6.786:548
6.786:506
6.786:464
6.786:426
6.791:391
6.791:340
6.791:292
6.791:267
6.792:266
6.792:287
6.793:323
6.793:365
6.793:412
6.793:453
6.794:490
6.794:540
6.795:589
6.795:612
6.795:614
6.795:595
6.795:560
6.796:520
6.796:478
6.799:441
6.799:408
6.799:358
6.799:308
6.799:283
6.814:283
6.815:284
6.815:305
6.815:340
6.815:384
6.820:429
6.820:469
6.820:505
6.820:554
6.821:600
6.821:621
6.821:623
6.821:602
6.822:569
6.822:529
6.824:487
6.824:448
6.824:415
6.824:367
6.824:318
6.824:296
6.825:296
6.825:318
6.825:354
6.828:396
6.828:442
6.828:484
6.828:520
6.828:569
6.828:617
6.844:639
6.844:637
6.848:614
6.848:579
6.848:536
6.848:495
6.849:460
6.849:426
6.849:375
6.849:328
6.849:307
6.852:309
6.852:333
6.852:371
6.853:414
6.853:456
6.853:498
6.853:535
6.853:586
6.854:631
6.854:653
6.856:650
6.856:628
6.856:593
6.856:551
6.856:508
6.857:470
6.857:434
6.857:382
6.857:335
6.872:335
6.877:315
6.877:318
6.877:342
6.877:382
6.877:427
6.877:475
6.878:515
6.878:550
6.878:602
6.878:646
6.881:665
6.881:660
6.881:636
6.881:596
6.881:554
6.881:515
6.882:479
6.882:445
6.882:390
6.885:345
6.885:325
6.885:330
6.885:354
6.885:393
6.885:438
6.886:481
6.886:521
6.886:558
6.886:610
6.905:654
6.905:674
6.905:667
6.906:644
6.906:606
6.906:565
6.906:525
6.909:489
6.909:452
6.909:398
6.909:354
6.909:334
6.911:339
6.911:362
6.911:401
6.911:446
6.911:491
6.914:530
6.914:563
6.914:615
6.915:656
6.915:674
6.915:667
6.915:643
6.915:604
6.915:563
6.917:522
6.917:485
6.917:448
6.917:395
6.934:395
6.934:349
6.934:327
6.934:333
6.934:353
6.934:391
6.938:435
6.938:478
6.938:516
6.938:551
6.939:604
6.939:642
6.939:659
6.939:649
6.939:622
6.939:582
6.942:539
6.942:498
6.943:459
6.943:419
6.943:363
6.943:320
6.944:301
6.944:307
6.944:329
6.944:367
6.945:410
6.945:451
6.946:489
6.946:526
6.962:578
6.962:618
6.962:633
6.967:621
6.967:594
6.967:554
6.967:511
6.968:468
6.968:431
6.968:390
6.968:331
6.968:288
6.969:272
6.971:279
6.971:301
6.971:340
6.971:383
6.972:425
6.972:463
6.972:502
6.972:555
6.972:593
6.975:607
6.976:597
6.976:569
6.976:528
6.977:487
6.977:447
6.977:412
6.977:373
6.991:373
6.991:316
6.995:276
6.995:262
6.995:272
6.995:298
6.995:337
6.996:382
6.996:423
6.996:460
6.996:498
6.996:553
7.000:590
7.000:603
7.000:592
7.000:565
7.001:526
7.001:485
7.001:445
7.001:413
7.001:371
7.004:316
7.004:278
7.004:264
7.004:275
7.005:304
7.005:344
7.005:391
7.005:436
7.005:471
7.023:511
7.024:565
7.024:599
7.024:612
7.024:601
7.024:573
7.025:535
7.025:492
7.025:452
7.028:418
7.028:377
7.029:322
7.029:285
7.029:272
7.030:285
7.030:314
7.030:355
7.031:400
7.032:442
7.033:481
7.033:521
7.033:575
7.034:610
7.034:622
7.034:611
7.034:584
7.035:545
7.035:503
7.036:464
7.036:430
7.052:430
7.052:389
7.053:334
7.053:297
7.053:284
7.053:294
7.053:325
7.053:364
7.056:407
7.056:451
7.057:486
7.057:527
7.057:583
7.057:617
7.057:629
7.057:619
7.058:590
7.061:551
7.061:508
7.061:470
7.061:437
7.062:392
7.062:337
7.062:304
7.062:291
7.062:304
7.063:332
7.065:375
7.065:419
7.065:461
7.081:498
7.082:539
7.082:593
7.082:627
7.082:639
7.086:624
7.086:595
7.086:554
7.086:514
7.087:473
7.087:439
7.087:394
7.087:340
7.087:306
7.090:295
7.090:310
7.090:342
7.090:384
7.091:429
7.091:471
7.091:508
7.091:553
7.091:604
7.092:635
7.094:642
7.094:628
7.094:598
7.094:560
7.094:518
7.095:479
7.110:479
7.110:444
7.110:398
7.110:342
7.114:311
7.114:302
7.114:318
7.115:348
7.115:392
7.115:437
7.115:480
7.115:515
7.116:561
7.118:611
7.118:642
7.118:648
7.118:633
7.119:602
7.119:560
7.119:518
7.119:480
7.119:445
7.120:399
7.122:344
7.122:315
7.122:309
7.122:325
7.123:356
7.123:398
7.123:442
7.139:485
7.143:518
7.143:563
7.143:614
7.143:642
7.144:648
7.144:631
7.144:599
7.144:557
7.144:516
7.146:478
7.147:445
7.147:396
7.147:342
7.147:313
7.147:305
7.148:323
7.148:356
7.148:397
7.148:442
7.150:486
7.151:521
7.151:567
7.151:617
7.151:644
7.151:648
7.152:632
7.152:599
7.152:558
7.155:512
7.171:512
7.172:474
7.172:442
7.172:394
7.172:342
7.172:312
7.172:309
7.173:327
7.173:358
7.176:400
7.177:446
7.177:486
7.177:520
7.177:568
7.178:614
7.178:642
7.178:647
7.178:629
7.178:596
7.179:558
7.180:515
7.180:478
7.180:444
7.180:392
7.180:339
7.181:311
7.181:308
7.181:327
7.184:362
7.184:405
7.200:449
7.200:488
7.200:521
7.200:568
7.201:616
7.201:643
7.204:646
7.204:628
7.204:592
7.205:551
7.205:510
7.205:473
7.205:439
7.205:387
7.206:334
7.206:309
7.208:306
7.209:324
7.209:359
7.210:405
7.210:448
7.210:490
7.210:523
7.210:571
7.210:617
7.212:642
7.212:645
7.212:629
7.212:596
7.213:553
7.228:553
7.228:510
7.228:470
7.229:435
7.229:382
7.233:334
7.233:308
7.233:308
7.233:328
7.234:365
7.234:407
7.234:450
7.234:492
7.234:527
7.234:575
7.237:622
7.237:646
7.237:645
7.238:625
7.238:591
7.238:550
7.238:509
7.238:470
7.239:433
7.241:381
7.241:330
7.241:306
7.241:308
7.242:328
7.242:364
7.257:408
7.257:452
7.262:492
7.262:527
7.262:579
7.262:626
7.263:647
7.263:645
7.263:624
7.263:587
7.264:548
7.266:505
7.266:468
7.266:432
7.266:380
7.267:332
7.267:309
7.267:310
7.267:330
7.267:367
7.268:411
7.270:454
7.270:492
7.271:527
7.271:575
7.271:620
7.271:644
7.272:640
7.272:617
7.272:583
7.286:583
7.290:543
7.290:499
7.290:464
7.290:429
7.291:375
7.291:331
7.292:309
7.292:310
7.292:333
7.292:368
7.294:411
7.294:455
7.294:494
7.294:529
7.294:580
7.295:626
7.295:648
7.296:646
7.296:625
7.299:588
7.299:546
7.299:507
7.299:472
7.300:435
7.300:381
7.300:336
7.300:314
7.300:316
7.301:337
7.318:376
7.319:418
7.319:463
7.319:502
7.319:538
7.319:592
7.320:637
7.323:655
7.323:647
7.323:622
7.323:584
7.324:541
7.324:501
7.324:464
7.324:428
7.324:376
7.326:335
7.327:318
7.327:325
7.327:349
7.327:388
7.328:435
7.328:479
7.328:518
7.328:554
7.328:607
7.331:649
7.331:667
7.331:664
7.331:640
7.347:640
7.348:603
7.348:564
7.348:525
7.348:491
7.348:454
7.352:398
7.352:352
7.352:331
7.352:335
7.353:358
7.353:396
7.353:441
7.353:485
7.353:524
7.353:561
7.356:613
7.356:655
7.356:674
7.356:665
7.357:639
7.357:601
7.357:558
7.357:517
7.358:480
7.358:441
7.360:386
7.360:344
7.360:326
7.360:331
7.375:357
7.375:395
7.375:439
7.380:482
7.380:519
7.380:555
7.380:608
7.381:646
7.381:661
7.381:650
7.381:622
7.381:583
7.381:538
7.385:496
7.385:460
7.385:419
7.385:361
7.385:318
7.385:298
7.385:306
7.385:329
7.386:371
7.389:418
7.389:463
7.389:501
7.389:539
7.390:591
7.390:629
7.390:645
7.390:636
7.404:636
7.404:610
7.409:573
7.410:530
7.410:489
7.410:452
7.410:412
7.410:356
7.410:315
7.410:301
7.410:311
7.410:336
7.413:377
7.413:424
7.413:466
7.413:503
7.414:542
7.414:597
7.414:631
7.414:640
7.414:628
7.417:601
7.417:563
7.417:523
7.417:483
7.418:447
7.418:405
7.418:349
7.418:309
7.418:294
7.437:307
7.437:333
7.438:374
7.438:419
7.438:463
7.438:499
7.438:540
7.439:592
7.439:629
7.441:642
7.442:629
7.442:601
7.442:559
7.442:514
7.442:475
7.442:443
7.443:404
7.443:348
7.446:312
7.446:297
7.446:309
7.446:337
7.446:378
7.446:424
7.447:466
7.447:502
7.447:542
7.447:593
7.450:625
7.450:638
7.466:638
7.466:628
7.466:601
7.466:561
7.466:521
7.466:479
7.466:443
7.466:402
7.471:346
7.471:310
7.471:299
7.471:312
7.472:341
7.472:384
7.472:425
7.472:468
7.472:506
7.475:544
7.475:596
7.476:630
7.476:641
7.476:631
7.476:603
7.476:563
7.476:520
7.476:480
7.476:447
7.479:405
7.479:351
7.479:316
7.494:303
7.494:314
7.495:343
7.495:386
7.495:429
7.499:473
7.499:508
7.499:545
7.499:598
7.500:631
7.500:641
7.500:627
7.500:599
7.500:557
7.503:512
7.503:472
7.504:440
7.504:404
7.504:359
7.504:336
7.504:336
7.504:367
7.504:406
7.506:459
7.507:517
7.507:573
7.507:620
7.508:683
7.508:754
7.508:806
7.523:806
7.523:837
7.523:847
7.523:851
7.528:842
7.528:825
7.528:806
7.528:790
7.528:761
7.529:716
7.529:694
7.529:696
7.529:726
7.532:768
7.532:814
7.532:866
7.532:915
7.533:945
7.533:968
7.533:990
7.533:990
7.533:975
7.534:911
7.536:828
7.536:741
7.536:667
7.536:592
7.537:527
7.537:462
7.537:399
7.557:356
7.557:321
7.557:310
7.557:325
7.557:357
7.558:396
7.558:439
7.559:483
7.559:543
7.559:606
7.560:640
7.560:649
7.560:636
7.561:615
7.561:582
7.561:547
7.561:521
7.561:497
7.561:455
7.562:401
7.564:367
7.564:354
7.564:364
7.564:387
7.565:422
7.565:462
7.565:496
7.566:523
7.566:568
7.569:617
7.584:617
7.584:637
7.584:632
7.584:603
7.586:558
7.586:512
7.586:464
7.586:419
7.586:384
7.589:333
7.589:281
7.589:253
7.589:249
7.589:267
7.590:305
7.590:349
7.590:395
7.590:435
7.591:469
7.592:515
7.593:562
7.593:587
7.593:594
7.593:574
7.593:543
7.594:505
7.594:465
7.594:429
7.596:398
7.597:352
7.614:298
7.614:268
7.614:264
7.614:283
7.614:315
7.615:359
7.618:407
7.618:446
7.618:482
7.618:529
7.619:578
7.619:604
7.619:608
7.619:592
7.619:557
7.622:515
7.622:475
7.622:440
7.622:408
7.623:359
7.623:310
7.623:283
7.623:281
7.623:297
7.623:331
7.625:373
7.625:419
7.625:461
7.627:498
7.627:547
7.641:547
7.642:596
7.642:620
7.642:621
7.642:604
7.646:571
7.646:530
7.646:488
7.646:454
7.646:424
7.646:373
7.646:321
7.646:294
7.646:294
7.646:315
7.651:350
7.651:391
7.651:434
7.651:472
7.651:508
7.652:559
7.652:608
7.652:631
7.652:631
7.655:611
7.655:574
7.655:535
7.655:495
7.655:462
7.655:430
7.671:380
7.671:330
7.676:304
7.676:303
7.676:323
7.677:360
7.677:406
7.677:452
7.677:491
7.677:523
7.677:573
7.679:617
7.679:640
7.679:639
7.679:620
7.680:587
7.680:547
7.680:507
7.680:470
7.680:437
7.681:382
7.683:334
7.683:314
7.683:318
7.683:339
7.684:376
7.684:417
7.684:464
7.684:506
7.685:545
7.699:545
7.704:596
7.704:638
7.704:656
7.704:655
7.704:635
7.704:599
7.705:557
7.705:513
7.705:475
7.708:442
7.709:386
7.709:340
7.709:321
7.709:324
7.709:347
7.709:384
7.709:432
7.709:481
7.710:523
7.712:558
7.712:608
7.712:648
7.712:665
7.713:660
7.713:639
7.713:605
7.713:564
7.713:523
7.714:489
7.732:454
7.732:402
7.733:352
7.733:328
7.733:331
7.733:355
7.733:393
7.737:437
7.737:482
7.737:523
7.737:557
7.737:607
7.737:653
7.737:671
7.737:664
7.737:639
7.737:601
7.741:561
7.741:520
7.741:483
7.742:447
7.742:394
7.742:348
7.742:329
7.742:333
7.743:356
7.745:393
7.745:434
7.745:474
7.745:510
7.760:510
7.761:545
7.761:597
7.761:638
7.761:654
7.761:645
7.765:621
7.765:583
7.765:539
7.766:498
7.766:461
7.766:425
7.766:368
7.766:325
7.766:305
7.766:310
7.769:331
7.769:367
7.769:408
7.769:450
7.770:486
7.770:522
7.770:572
7.770:611
7.770:628
7.773:618
7.773:592
7.773:552
7.773:509
7.773:469
7.789:432
7.789:394
7.789:338
7.793:293
7.793:273
7.795:278
7.795:299
7.795:337
7.795:379
7.795:420
7.796:458
7.796:492
7.796:545
7.798:584
7.798:602
7.798:595
7.798:570
7.799:533
7.799:492
7.799:449
7.799:412
7.799:373
7.802:316
7.802:276
7.802:256
7.802:264
7.803:290
7.803:329
7.803:374
7.803:417
7.818:417
7.819:454
7.823:489
7.823:542
7.823:581
7.823:596
7.824:588
7.824:562
7.824:525
7.824:484
7.824:443
7.825:405
7.826:365
7.826:310
7.826:271
7.827:255
7.827:265
7.827:293
7.827:335
7.827:380
7.828:425
7.831:463
7.831:504
7.831:554
7.831:591
7.832:606
7.832:597
7.832:572
7.832:534
7.832:492
7.851:452
7.851:418
7.852:377
7.852:322
7.852:279
7.852:265
7.852:276
7.853:304
7.853:346
7.855:391
7.855:432
7.856:468
7.856:509
7.856:562
7.856:600
7.856:614
7.856:604
7.856:577
7.859:536
7.860:495
7.860:456
7.860:424
7.860:382
7.860:326
7.861:290
7.861:279
7.862:292
7.862:322
7.863:363
7.863:408
7.880:408
7.880:447
7.880:480
7.880:521
7.880:573
7.881:607
7.881:620
7.881:608
7.884:581
7.884:543
7.884:502
7.884:463
7.885:430
7.885:387
7.885:332
7.885:298
7.885:287
7.888:297
7.888:326
7.888:369
7.888:415
7.889:458
7.889:492
7.889:532
7.889:584
7.889:617
7.890:627
7.892:616
7.892:589
7.893:550
7.908:509
7.908:470
7.908:438
7.908:394
7.908:339
7.913:304
7.913:294
7.913:310
7.913:339
7.913:381
7.913:426
7.914:468
7.914:504
7.914:546
7.916:601
7.916:632
7.916:641
7.916:627
7.916:598
7.917:557
7.917:514
7.917:475
7.917:442
7.917:399
7.920:345
7.920:313
7.920:305
7.921:321
7.921:351
7.921:392
7.936:392
7.936:437
7.936:477
7.936:511
7.941:556
7.942:607
7.942:640
7.942:651
7.942:636
7.943:606
7.943:564
7.943:521
7.943:482
7.945:449
7.945:402
7.945:347
7.945:317
7.945:308
7.946:323
7.946:353
7.946:395
7.946:443
7.947:483
7.950:518
7.950:564
7.950:614
7.950:642
7.950:649
7.950:635
7.951:604
7.970:565
7.970:521
7.971:482
7.971:449
7.971:402
7.972:350
7.972:318
7.972:310
7.972:326
7.972:359
7.974:403
7.975:448
7.975:489
7.975:524
7.976:567
7.976:616
7.976:645
7.976:651
7.976:636
7.978:604
7.978:564
7.978:522
7.978:484
7.978:449
7.978:401
7.978:349
7.978:318
7.978:315
7.980:331
7.982:364
7.999:364
7.999:404
7.999:448
7.999:490
7.999:521
7.999:566
8.000:617
8.000:643
8.000:648
8.003:632
8.003:601
8.003:562
8.003:518
8.004:478
8.004:444
8.004:396
8.004:343
8.004:315
8.004:310
8.007:328
8.007:360
8.007:403
8.007:448
8.007:489
8.007:524
8.007:571
8.008:619
8.008:645
8.011:648
8.011:630
8.027:596
8.027:553
8.027:511
8.027:476
8.028:444
8.028:393
8.031:340
8.032:312
8.032:309
8.032:328
8.033:364
8.033:406
8.033:449
8.034:489
8.034:524
8.034:573
8.036:621
8.036:648
8.036:648
8.036:629
8.037:593
8.037:551
8.037:508
8.037:471
8.037:438
8.039:387
8.039:338
8.039:310
8.039:308
8.040:327
8.055:327
8.055:364
8.055:409
8.055:454
8.055:495
8.060:529
8.060:578
8.060:624
8.060:646
8.060:648
8.061:628
8.061:590
8.061:547
8.061:504
8.061:467
8.063:433
8.064:383
8.064:333
8.064:308
8.064:308
8.064:327
8.064:364
8.064:408
8.064:452
8.068:491
8.068:525
8.068:576
8.068:623
8.069:647
8.069:645
8.084:624
8.084:591
8.089:551
8.089:511
8.089:472
8.089:440
8.090:387
8.090:337
8.090:313
8.090:313
8.090:332
8.093:367
8.093:410
8.093:455
8.093:495
8.093:529
8.093:579
8.093:626
8.093:649
8.093:647
8.093:626
8.096:592
8.096:550
8.097:510
8.097:472
8.097:436
8.097:382
8.097:333
8.097:310
8.098:311
8.113:311
8.118:335
8.118:370
8.118:413
8.118:455
8.119:496
8.119:535
8.119:590
8.119:637
8.119:656
8.122:649
8.122:624
8.122:586
8.122:544
8.123:503
8.123:467
8.123:431
8.123:380
8.123:335
8.123:316
8.126:323
8.126:347
8.126:387
8.126:431
8.126:476
8.126:516
8.126:551
8.126:604
8.126:648
8.126:668
8.146:663
8.146:641
8.147:607
8.147:568
8.147:527
8.147:492
8.147:457
8.150:403
8.150:356
8.150:331
8.150:335
8.151:357
8.151:394
8.151:438
8.151:483
8.151:520
8.152:558
8.154:609
8.154:651
8.154:671
8.156:665
8.156:641
8.156:604
8.156:562
8.156:518
8.157:479
8.158:440
8.159:387
8.159:344
8.159:324
8.175:324
8.176:329
8.176:351
8.176:391
8.176:437
8.176:480
8.179:518
8.179:552
8.179:600
8.179:641
8.180:657
8.180:649
8.180:622
8.180:582
8.180:539
8.181:498
8.183:461
8.183:421
8.183:365
8.183:321
8.184:301
8.184:306
8.184:332
8.184:372
8.184:417
8.187:462
8.187:501
8.187:537
8.187:587
8.187:629
8.203:646
8.203:639
8.203:615
8.207:576
8.208:533
8.208:491
8.209:456
8.209:416
8.209:362
8.209:320
8.209:302
8.209:310
8.210:336
8.211:374
8.211:418
8.211:460
8.212:500
8.212:537
8.212:589
8.212:628
8.212:644
8.213:636
8.216:612
8.216:574
8.216:532
8.216:492
8.217:459
8.217:419
8.217:362
8.217:321
8.231:321
8.232:304
8.236:313
8.236:336
8.236:373
8.236:415
8.236:459
8.237:496
8.237:534
8.237:587
8.237:624
8.237:640
8.240:631
8.241:604
8.242:565
8.242:522
8.242:483
8.242:448
8.242:407
8.242:352
8.243:314
8.244:299
8.244:308
8.244:335
8.244:373
8.245:416
8.245:460
8.245:497
8.245:538
8.245:591
8.265:630
8.265:643
8.265:633
8.265:608
8.265:569
8.265:525
8.265:486
8.266:451
8.266:408
8.268:351
8.268:313
8.269:298
8.269:309
8.269:336
8.269:376
8.269:421
8.269:465
8.270:501
8.273:539
8.273:590
8.273:626
8.273:640
8.273:627
8.274:598
8.274:558
8.274:518
8.274:479
8.274:449
8.277:415
8.277:367
8.293:367
8.294:340
8.294:339
8.294:364
8.294:401
8.295:455
8.295:515
8.295:572
8.297:623
8.297:685
8.297:758
8.297:811
8.298:844
8.298:857
8.298:858
8.298:848
8.298:828
8.302:807
8.302:791
8.302:767
8.302:725
8.303:698
8.303:691
8.303:721
8.303:763
8.303:808
8.304:861
8.306:909
8.306:939
8.306:959
8.322:989
8.322:990
8.322:963
8.323:900
8.326:818
8.327:733
8.327:657
8.327:580
8.327:516
8.328:460
8.328:399
8.328:351
8.328:312
8.328:301
8.330:319
8.330:351
8.330:391
8.330:437
8.331:484
8.331:540
8.331:604
8.331:642
8.331:654
8.334:646
8.334:622
8.334:587
8.335:552
8.335:523
8.335:499
8.335:461
8.350:461
8.350:409
8.350:374
8.351:359
8.354:368
8.354:389
8.354:419
8.354:456
8.354:491
8.356:521
8.356:562
8.356:609
8.356:634
8.359:632
8.360:602
8.360:560
8.360:514
8.360:468
8.360:426
8.361:390
8.361:345
8.361:291
8.361:259
8.363:251
8.363:267
8.363:300
8.364:341
8.364:384
8.364:424
8.364:458
8.384:504
8.384:556
8.384:590
8.384:595
8.385:578
8.385:549
8.385:508
8.385:467
8.385:430
8.386:395
8.388:350
8.388:298
8.388:270
8.388:263
8.388:280
8.389:312
8.389:355
8.389:401
8.389:444
8.392:479
8.392:523
8.392:576
8.392:605
8.393:611
8.393:596
8.393:565
8.393:525
8.394:486
8.394:448
8.396:415
8.412:415
8.412:367
8.412:317
8.413:286
8.413:281
8.413:299
8.413:332
8.413:376
8.414:423
8.416:463
8.416:497
8.416:543
8.416:592
8.417:620
8.417:623
8.417:607
8.417:576
8.417:535
8.418:494
8.420:458
8.420:427
8.420:379
8.420:327
8.420:298
8.421:295
8.421:312
8.421:346
8.421:389
8.424:435
8.424:476
8.440:512
8.441:560
8.441:610
8.441:638
8.441:641
8.441:623
8.445:587
8.445:548
8.445:507
8.445:470
