0.001:5
0.001:530
0.001:2
0.001:548
0.001:555
0.001:560
0.001:568
0.001:573
0.001:571
0.002:569
0.002:565
0.002:558
0.002:557
0.002:542
0.003:549
0.003:563
0.004:554
0.004:560
0.004:589
0.004:610
0.004:628
0.004:645
0.004:623
0.004:608
0.004:581
0.004:560
0.004:535
0.004:530
0.005:523
0.005:526
0.005:526
0.005:526
0.005:533
0.005:533
0.005:519
0.005:511
0.005:514
0.005:535
0.005:567
0.005:577
0.005:564
0.005:536
0.005:506
0.006:512
0.006:530
0.006:536
0.006:547
0.006:563
0.006:559
0.006:552
0.006:548
0.006:527
0.006:511
0.006:497
0.006:499
0.006:497
0.006:508
0.006:526
0.006:526
0.007:550
0.007:568
0.007:578
0.007:599
0.007:603
0.007:599
0.007:596
0.007:578
0.007:574
0.007:594
0.007:604
0.007:589
0.007:568
0.007:555
0.007:551
0.007:544
0.008:545
0.008:532
0.008:524
0.008:528
0.008:540
0.008:553
0.008:553
0.008:551
0.008:554
0.008:552
0.008:538
0.008:528
0.008:520
0.008:538
0.008:568
0.009:579
0.009:540
0.009:512
0.009:509
0.009:527
0.009:542
0.009:557
0.009:561
0.009:542
0.009:500
0.009:480
0.009:492
0.009:525
0.009:550
0.009:549
0.009:546
0.010:534
0.010:523
0.010:508
0.010:494
0.010:503
0.010:500
0.010:522
0.010:551
0.010:536
0.010:510
0.010:499
0.010:499
0.010:499
0.010:513
0.010:518
0.010:513
0.011:518
0.011:519
0.011:527
0.011:527
0.011:514
0.011:486
0.011:473
0.011:478
0.011:494
0.011:498
0.011:473
0.011:463
0.011:479
0.011:497
0.011:488
0.011:494
0.011:511
0.012:513
0.012:504
0.012:491
0.012:483
0.012:483
0.012:493
0.012:517
0.012:524
0.012:534
0.012:530
0.012:524
0.012:512
0.012:488
0.012:464
0.012:458
0.012:487
0.012:510
0.012:494
0.012:487
0.012:505
0.013:511
0.013:499
0.013:482
0.013:465
0.013:451
0.013:442
0.013:438
0.013:446
0.013:461
0.013:462
0.013:456
0.013:488
0.013:516
0.013:538
0.013:540
0.013:518
0.013:495
0.013:491
0.013:495
0.013:495
0.013:502
0.014:505
0.014:498
0.014:487
0.014:480
0.014:469
0.014:468
0.015:468
0.018:489
0.018:502
0.018:514
0.019:513
0.020:502
0.020:477
0.020:458
0.020:458
0.020:473
0.020:491
0.021:492
0.021:498
0.021:499
0.021:482
0.022:466
0.022:475
0.022:482
0.022:486
0.022:497
0.023:500
0.023:490
0.023:496
0.023:476
0.023:425
0.023:416
0.023:466
0.023:487
0.023:477
0.023:464
0.023:466
0.023:489
0.023:502
0.024:509
0.024:505
0.024:499
0.024:481
0.024:467
0.024:470
0.024:477
0.024:484
0.024:500
0.024:499
0.024:486
0.024:473
0.024:456
0.025:437
0.025:434
0.025:440
0.025:472
0.025:505
0.025:503
0.025:503
0.025:472
0.025:458
0.025:451
0.025:471
0.025:490
0.025:483
0.026:467
0.026:461
0.026:457
0.026:472
0.026:483
0.026:475
0.026:464
0.026:465
0.026:485
0.026:510
0.026:512
0.026:491
0.026:469
0.026:448
0.027:445
0.027:472
0.027:484
0.027:473
0.027:461
0.027:462
0.027:467
0.027:470
0.027:471
0.027:462
0.027:456
0.027:452
0.027:446
0.028:464
0.028:482
0.028:483
0.028:479
0.028:483
0.028:482
0.028:466
0.028:458
0.028:444
0.028:413
0.028:453
0.028:493
0.028:500
0.028:493
0.029:482
0.029:476
0.029:479
0.029:478
0.029:479
0.029:477
0.029:478
0.029:475
0.029:462
0.029:451
0.029:453
0.029:471
0.029:471
0.030:478
0.030:491
0.030:490
0.031:472
0.031:460
0.031:461
0.031:460
0.031:460
0.031:459
0.031:459
0.031:462
0.032:454
0.032:460
0.032:480
0.032:485
0.032:491
0.032:494
0.032:505
0.035:506
0.035:495
0.035:490
0.035:483
0.035:477
0.036:478
0.036:476
0.036:473
0.036:471
0.036:476
0.036:470
0.036:469
0.037:454
0.037:436
0.037:437
0.037:447
0.037:462
0.037:485
0.037:519
0.037:521
0.037:495
0.037:485
0.037:475
0.038:474
0.038:476
0.038:475
0.038:468
0.038:471
0.038:458
0.038:436
0.038:425
0.038:413
0.039:422
0.039:422
0.039:411
0.039:404
0.039:383
0.039:364
0.039:349
0.039:350
0.039:391
0.039:391
0.039:442
0.039:469
0.039:478
0.040:499
0.040:500
0.040:472
0.040:445
0.040:422
0.040:416
0.040:429
0.040:440
0.040:441
0.040:439
0.040:451
0.041:457
0.041:450
0.041:434
0.041:421
0.041:418
0.041:423
0.041:432
0.041:433
0.041:433
0.041:436
0.041:439
0.041:449
0.041:458
0.041:465
0.041:482
0.041:484
0.042:464
0.042:458
0.042:464
0.042:490
0.042:503
0.042:481
0.042:460
0.042:445
0.042:446
0.042:481
0.042:504
0.042:499
0.042:498
0.042:506
0.042:517
0.043:511
0.043:501
0.043:496
0.043:487
0.043:485
0.043:493
0.043:500
0.043:495
0.043:485
0.043:475
0.043:465
0.043:463
0.043:464
0.043:472
0.043:472
0.044:484
0.044:521
0.044:542
0.044:530
0.044:503
0.044:479
0.044:470
0.044:476
0.044:482
0.044:491
0.044:495
0.044:489
0.044:491
0.044:503
0.044:504
0.045:493
0.045:488
0.045:491
0.045:480
0.045:488
0.045:497
0.045:487
0.045:473
0.045:471
0.045:470
0.045:475
0.045:465
0.045:487
0.045:560
0.046:598
0.046:563
0.046:501
0.046:471
0.046:470
0.046:478
0.046:473
0.046:482
0.046:495
0.046:493
0.046:479
0.046:483
0.046:490
0.046:502
0.046:497
0.046:481
0.046:473
0.047:466
0.047:490
0.047:525
0.047:533
0.047:510
0.047:498
0.047:496
0.047:485
0.047:479
0.047:479
0.047:468
0.047:477
0.047:483
0.047:483
0.047:480
0.047:480
0.047:492
0.047:504
0.047:505
0.047:497
0.047:479
0.047:475
0.048:474
0.048:473
0.048:475
0.048:484
0.048:493
0.048:496
0.048:485
0.048:479
0.048:479
0.048:475
0.048:471
0.048:502
0.048:521
0.048:526
0.048:546
0.048:584
0.048:595
0.048:584
0.048:539
0.048:493
0.048:484
0.049:469
0.049:445
0.049:419
0.049:403
0.049:387
0.049:369
0.049:374
0.051:362
0.051:328
0.051:282
0.051:221
0.051:177
0.051:139
0.052:88
0.052:21
0.052:17
0.052:17
0.052:17
0.052:18
0.052:18
0.052:18
0.053:18
0.053:19
0.053:19
0.053:19
0.053:19
0.053:19
0.053:19
0.053:19
0.053:19
0.054:19
0.054:19
0.054:19
0.054:19
0.054:17
0.054:18
0.054:17
0.054:80
0.054:162
0.054:270
0.054:395
0.054:501
0.054:573
0.054:625
0.054:668
0.054:672
0.054:651
0.054:637
0.054:621
0.054:606
0.055:600
0.055:594
0.055:581
0.055:562
0.055:547
0.055:554
0.055:571
0.055:584
0.055:597
0.055:624
0.055:622
0.055:610
0.055:594
0.055:607
0.055:641
0.055:630
0.055:601
0.055:580
0.055:576
0.055:576
0.055:580
0.056:584
0.056:591
0.056:602
0.056:603
0.056:619
0.056:615
0.056:592
0.056:575
0.056:581
0.056:593
0.056:592
0.056:593
0.056:596
0.056:595
0.056:582
0.056:574
0.056:591
0.056:615
0.056:604
0.056:604
0.056:591
0.056:592
0.057:583
0.057:567
0.057:568
0.057:569
0.057:576
0.057:586
0.057:597
0.057:607
0.057:592
0.057:576
0.057:564
0.057:571
0.057:572
0.057:571
0.057:559
0.057:539
0.057:521
0.057:536
0.057:574
0.057:591
0.057:590
0.057:589
0.058:574
0.058:554
0.058:531
0.058:528
0.058:554
0.058:561
0.058:556
0.058:559
0.058:544
0.058:532
0.058:534
0.058:542
0.058:535
0.058:525
0.058:518
0.058:516
0.058:515
0.058:511
0.058:516
0.058:530
0.058:547
0.058:543
0.059:529
0.059:485
0.059:448
0.059:451
0.059:493
0.059:516
0.059:519
0.059:524
0.059:529
0.059:529
0.059:507
0.059:491
0.059:494
0.059:494
0.059:500
0.059:504
0.059:499
0.059:491
0.059:487
0.059:478
0.059:474
0.059:474
0.060:482
0.060:502
0.060:524
0.060:515
0.060:502
0.060:498
0.060:507
0.060:506
0.060:494
0.060:477
0.060:480
0.060:498
0.060:481
0.060:473
0.060:487
0.060:484
0.060:491
0.060:488
0.060:472
0.060:455
0.060:462
0.060:491
0.061:530
0.061:552
0.061:535
0.061:503
0.061:470
0.061:446
0.061:446
0.061:447
0.061:443
0.061:448
0.061:441
0.061:431
0.061:427
0.061:424
0.061:433
0.061:461
0.061:479
0.061:486
0.061:476
0.061:455
0.061:443
0.061:447
0.062:442
0.062:440
0.062:439
0.062:434
0.062:426
0.062:431
0.062:422
0.062:422
0.062:417
0.062:419
0.062:405
0.063:402
0.063:412
0.063:410
0.063:431
0.063:445
0.063:437
0.063:430
0.063:424
0.063:420
0.063:415
0.063:412
0.063:408
0.063:407
0.063:416
0.063:409
0.063:391
0.064:379
0.064:374
0.064:372
0.064:370
0.064:371
0.064:372
0.064:388
0.064:392
0.064:389
0.064:384
0.064:366
0.064:347
0.064:380
0.064:425
0.064:450
0.065:452
0.065:464
0.065:454
0.065:416
0.065:397
0.065:383
0.065:376
0.065:361
0.065:366
0.065:389
0.065:417
0.065:430
0.065:420
0.065:422
0.065:417
0.066:421
0.066:433
0.067:434
0.067:436
0.067:440
0.067:434
0.067:429
0.067:427
0.067:443
0.067:462
0.067:462
0.068:462
0.068:456
0.068:463
0.068:472
0.068:477
0.068:477
0.068:489
0.069:515
0.069:526
0.069:513
0.069:489
0.069:455
0.069:467
0.069:498
0.069:523
0.069:532
0.069:530
0.069:513
0.069:504
0.069:503
0.069:506
0.070:504
0.070:507
0.070:513
0.070:537
0.070:543
0.070:542
0.070:525
0.070:517
0.070:538
0.070:556
0.070:567
0.070:569
0.070:574
0.070:568
0.070:556
0.070:556
0.070:560
0.071:560
0.071:573
0.071:580
0.071:583
0.071:574
0.071:585
0.071:595
0.071:591
0.071:570
0.071:560
0.071:561
0.071:560
0.071:565
0.071:565
0.071:550
0.071:528
0.071:512
0.071:541
0.071:566
0.071:570
0.071:575
0.072:575
0.072:566
0.072:552
0.072:562
0.072:563
0.072:550
0.072:548
0.072:558
0.072:570
0.072:571
0.072:540
0.072:521
0.072:528
0.072:545
0.072:564
0.072:572
0.072:573
0.072:566
0.072:574
0.072:582
0.072:572
0.073:553
0.073:538
0.073:527
0.073:527
0.073:546
0.073:568
0.073:574
0.073:566
0.073:547
0.073:542
0.073:540
0.073:533
0.073:538
0.073:549
0.073:556
0.073:564
0.073:548
0.073:533
0.073:517
0.073:509
0.073:506
0.073:494
0.074:490
0.074:498
0.074:519
0.074:532
0.074:533
0.074:513
0.074:497
0.074:516
0.074:532
0.074:537
0.074:553
0.074:538
0.074:527
0.074:526
0.074:525
0.074:525
0.074:517
0.074:517
0.074:507
0.074:512
0.074:523
0.075:515
0.075:513
0.075:495
0.075:472
0.075:468
0.075:478
0.075:489
0.075:483
0.075:481
0.075:493
0.075:496
0.075:483
0.075:481
0.075:513
0.075:530
0.075:515
0.075:510
0.075:492
0.075:493
0.075:514
0.075:555
0.075:589
0.076:569
0.076:549
0.076:529
0.076:514
0.076:498
0.076:489
0.076:479
0.076:491
0.076:506
0.076:516
0.076:502
0.076:496
0.076:488
0.076:483
0.076:516
0.076:532
0.076:526
0.076:508
0.076:505
0.076:511
0.076:507
0.077:507
0.077:505
0.077:500
0.077:490
0.077:480
0.077:481
0.077:489
0.077:486
0.077:486
0.077:493
0.077:499
0.077:510
0.077:531
0.077:531
0.077:536
0.077:499
0.077:461
0.077:455
0.077:468
0.077:473
0.078:471
0.078:474
0.078:481
0.078:491
0.078:492
0.078:504
0.078:514
0.078:497
0.078:487
0.078:494
0.078:493
0.078:483
0.078:476
0.078:487
0.078:486
0.078:478
0.078:459
0.078:455
0.078:463
0.078:479
0.078:490
0.079:507
0.079:510
0.079:480
0.079:458
0.079:464
0.079:467
0.079:468
0.079:464
0.079:457
0.079:464
0.079:484
0.079:472
0.079:454
0.079:462
0.079:464
0.079:462
0.079:470
0.079:489
0.079:491
0.079:473
0.079:488
0.079:506
0.080:508
0.080:502
0.080:475
0.080:460
0.080:459
0.080:456
0.080:456
0.080:469
0.080:501
0.080:512
0.080:512
0.080:510
0.080:499
0.080:498
0.080:489
0.080:472
0.080:463
0.080:480
0.080:512
0.080:517
0.080:511
0.080:482
0.081:463
0.081:466
0.081:472
0.081:472
0.081:464
0.081:454
0.081:456
0.081:463
0.081:474
0.081:472
0.081:478
0.081:509
0.081:515
0.081:489
0.081:497
0.081:499
0.081:489
0.081:487
0.081:491
0.081:479
0.081:467
0.082:472
0.082:475
0.082:477
0.082:474
0.082:474
0.082:484
0.082:504
0.082:512
0.082:499
0.082:465
0.082:446
0.082:438
0.082:455
0.082:491
0.082:533
0.082:526
0.084:489
0.085:457
0.085:453
0.085:470
0.085:488
0.085:484
0.086:481
0.086:489
0.086:505
0.086:513
0.086:505
0.086:505
0.086:489
0.086:475
0.086:475
0.086:482
0.086:485
0.086:483
0.086:459
0.086:454
0.086:484
0.086:512
0.087:507
0.087:496
0.087:486
0.087:476
0.087:463
0.087:463
0.087:465
0.087:468
0.087:471
0.087:475
0.087:469
0.087:473
0.087:474
0.087:471
0.087:473
0.087:471
0.087:496
0.087:506
0.087:499
0.088:481
0.088:459
0.088:450
0.088:471
0.088:506
0.088:508
0.088:478
0.088:448
0.088:449
0.088:458
0.088:480
0.088:487
0.088:487
0.088:510
0.088:502
0.088:474
0.088:439
0.088:424
0.088:421
0.088:459
0.088:508
0.088:507
0.089:489
0.089:495
0.089:496
0.089:497
0.089:508
0.089:507
0.089:502
0.089:493
0.089:493
0.089:471
0.089:459
0.089:452
0.089:451
0.089:464
0.089:486
0.089:488
0.089:482
0.089:477
0.089:460
0.089:444
0.089:453
0.089:467
0.090:485
0.090:512
0.090:534
0.090:518
0.090:492
0.090:472
0.090:453
0.090:453
0.090:453
0.090:443
0.090:445
0.090:458
0.090:462
0.090:446
0.090:430
0.090:420
0.090:418
0.090:438
0.090:445
0.090:438
0.090:425
0.090:423
0.091:422
0.091:412
0.091:408
0.091:405
0.091:422
0.091:447
0.091:482
0.091:489
0.091:485
0.091:466
0.091:445
0.091:435
0.091:429
0.091:419
0.091:412
0.091:419
0.091:421
0.091:428
0.091:440
0.091:438
0.091:432
0.091:434
0.092:433
0.092:440
0.092:440
0.092:458
0.092:476
0.092:489
0.092:486
0.092:462
0.092:451
0.092:437
0.092:446
0.092:463
0.092:458
0.092:443
0.092:471
0.092:512
0.092:529
0.092:519
0.093:489
0.093:473
0.093:471
0.093:478
0.093:497
0.093:501
0.093:499
0.093:503
0.093:502
0.093:508
0.093:535
0.093:530
0.093:514
0.093:488
0.093:474
0.093:482
0.093:499
0.093:506
0.093:495
0.093:483
0.093:478
0.093:476
0.094:483
0.094:492
0.094:486
0.094:496
0.094:505
0.094:509
0.094:508
0.094:512
0.094:518
0.094:517
0.094:513
0.094:489
0.094:468
0.094:456
0.094:448
0.094:464
0.094:494
0.094:506
0.094:502
0.094:495
0.094:488
0.095:493
0.095:493
0.095:508
0.095:513
0.095:503
0.095:485
0.095:485
0.095:492
0.095:489
0.095:508
0.095:527
0.095:520
0.095:484
0.095:468
0.095:471
0.095:490
0.095:506
0.095:508
0.095:501
0.095:492
0.095:497
0.095:499
0.096:499
0.096:512
0.096:517
0.096:518
0.096:507
0.096:488
0.096:492
0.096:499
0.096:498
0.096:491
0.096:474
0.096:459
0.096:448
0.096:456
0.096:473
0.096:516
0.096:529
0.096:544
0.096:573
0.096:556
0.096:511
0.097:467
0.097:457
0.097:455
0.097:470
0.097:496
0.097:509
0.097:511
0.097:495
0.097:504
0.097:522
0.097:524
0.097:519
0.097:495
0.097:476
0.097:481
0.097:498
0.097:515
0.097:529
0.097:529
0.097:534
0.097:525
0.097:511
0.098:495
0.098:480
0.098:475
0.098:466
0.098:458
0.098:431
0.098:408
0.098:402
0.098:390
0.098:376
0.098:330
0.098:267
0.098:216
0.098:172
0.098:144
0.098:120
0.098:61
0.098:17
0.098:17
0.098:17
0.098:17
0.098:17
0.098:18
0.099:18
0.099:18
0.099:19
0.099:18
0.099:19
0.101:19
0.101:19
0.101:19
0.101:19
0.101:19
0.101:19
0.101:19
0.101:18
0.101:17
0.101:17
0.101:81
0.101:174
0.101:263
0.101:375
0.101:500
0.101:599
0.102:667
0.102:693
0.102:690
0.102:683
0.102:671
0.102:622
0.102:592
0.102:606
0.102:612
0.102:604
0.102:611
0.102:593
0.102:593
0.102:583
0.102:563
0.102:548
0.102:554
0.102:582
0.102:586
0.102:578
0.103:588
0.103:586
0.103:595
0.103:594
0.103:563
0.103:549
0.103:584
0.103:613
0.103:640
0.103:662
0.103:648
0.103:615
0.103:579
0.103:572
0.103:589
0.103:605
0.103:614
0.103:616
0.103:592
0.103:566
0.103:568
0.103:578
0.104:600
0.104:630
0.104:633
0.104:611
0.104:594
0.104:595
0.104:594
0.104:582
0.104:570
0.104:561
0.104:569
0.104:568
0.104:561
0.104:553
0.104:558
0.104:571
0.104:570
0.104:571
0.104:569
0.104:566
0.104:560
0.104:563
0.105:553
0.105:539
0.105:550
0.105:582
0.105:610
0.105:612
0.105:586
0.105:556
0.105:556
0.105:535
0.105:529
0.105:537
0.105:540
0.105:543
0.105:540
0.105:522
0.105:526
0.105:528
0.105:528
0.105:537
0.105:523
0.106:510
0.106:515
0.106:527
0.106:523
0.106:497
0.106:490
0.106:508
0.106:516
0.106:501
0.106:486
0.106:500
0.106:510
0.106:555
0.106:601
0.106:596
0.106:558
0.106:516
0.106:486
0.106:489
0.106:501
0.106:498
0.107:501
0.107:504
0.107:501
0.107:505
0.107:509
0.107:516
0.107:505
0.107:497
0.107:497
0.107:502
0.107:504
0.107:492
0.107:501
0.107:506
0.107:496
0.107:487
0.107:482
0.108:488
0.108:489
0.108:474
0.108:472
0.108:477
0.108:477
0.108:470
0.108:458
0.108:457
0.108:457
0.108:475
0.108:482
0.108:487
0.108:475
0.108:467
0.108:468
0.108:468
0.108:464
0.108:464
0.108:476
0.108:495
0.109:494
0.109:473
0.109:447
0.109:429
0.109:440
0.109:450
0.109:445
0.109:440
0.109:460
0.109:464
0.109:434
0.109:433
0.109:450
0.109:451
0.109:445
0.109:448
0.109:441
0.109:428
0.109:421
0.109:423
0.109:434
0.109:460
0.110:450
0.110:447
0.110:451
0.110:435
0.110:408
0.110:396
0.110:377
0.110:363
0.110:355
0.110:383
0.110:404
0.110:399
0.110:417
0.110:439
0.110:454
0.110:444
0.110:412
0.110:391
0.110:400
0.110:416
0.110:419
0.111:403
0.111:400
0.111:409
0.111:408
0.111:409
0.111:409
0.111:404
0.111:397
0.111:395
0.111:403
0.111:408
0.111:395
0.111:386
0.111:376
0.111:385
0.111:401
0.111:393
0.111:398
0.111:409
0.111:412
0.111:421
0.112:424
0.112:418
0.112:410
0.112:419
0.112:428
0.112:425
0.112:399
0.112:398
0.112:405
0.112:404
0.112:399
0.112:390
0.112:403
0.112:415
0.112:449
0.112:486
0.112:504
0.112:487
0.112:454
0.112:432
0.112:418
0.112:410
0.113:427
0.113:463
0.113:491
0.113:492
0.113:482
0.113:483
0.113:488
0.113:499
0.113:510
0.113:516
0.113:511
0.113:516
0.113:522
0.113:507
0.113:514
0.113:548
0.113:572
0.113:579
0.113:575
0.113:557
0.113:548
0.114:542
0.114:542
0.114:530
0.114:527
0.114:531
0.114:549
0.114:570
0.114:591
0.114:592
0.114:578
0.114:568
0.114:565
0.114:554
0.114:555
0.114:558
0.114:564
0.114:575
0.114:578
0.114:579
0.114:582
0.114:558
0.115:539
0.115:536
0.115:552
0.115:565
0.115:574
0.115:577
0.115:567
0.115:567
0.115:588
0.115:604
0.115:602
0.115:588
0.117:588
0.117:586
0.118:582
0.118:567
0.118:558
0.118:562
0.118:575
0.118:598
0.118:604
0.118:585
0.118:557
0.119:554
0.119:565
0.119:572
0.119:585
0.119:612
0.119:632
0.119:610
0.119:579
0.119:562
0.119:557
0.119:555
0.119:558
0.119:565
0.119:571
0.119:581
0.119:573
0.120:553
0.120:553
0.120:558
0.120:558
0.120:551
0.120:545
0.120:551
0.120:550
0.120:564
0.120:566
0.120:553
0.120:541
0.120:548
0.120:514
0.120:494
0.121:533
0.121:576
0.121:598
0.121:578
0.121:552
0.121:539
0.121:536
0.121:537
0.121:532
0.121:532
0.121:543
0.121:543
0.121:531
0.121:536
0.121:540
0.122:542
0.122:581
0.122:568
0.122:534
0.122:522
0.122:533
0.122:549
0.122:541
0.122:529
0.122:518
0.122:505
0.122:497
0.122:499
0.122:514
0.122:539
0.123:556
0.123:537
0.123:521
0.123:503
0.123:504
0.123:518
0.123:512
0.123:507
0.123:535
0.123:544
0.123:537
0.123:529
0.123:519
0.123:508
0.123:513
0.124:502
0.124:502
0.124:485
0.124:485
0.124:494
0.124:502
0.124:497
0.124:515
0.124:532
0.124:529
0.124:514
0.124:483
0.124:452
0.124:456
0.124:456
0.125:484
0.125:511
0.125:517
0.125:518
0.125:517
0.125:520
0.125:530
0.125:515
0.125:486
0.125:466
0.125:463
0.125:483
0.125:506
0.125:505
0.125:488
0.126:475
0.126:474
0.126:470
0.126:473
0.126:494
0.126:503
0.126:524
0.126:571
0.126:569
0.126:543
0.126:526
0.126:527
0.126:513
0.126:504
0.126:521
0.127:533
0.127:520
0.127:500
0.127:477
0.127:462
0.127:464
0.127:474
0.127:502
0.127:511
0.127:513
0.127:511
0.127:499
0.127:496
0.127:502
0.127:507
0.128:496
0.128:496
0.128:491
0.128:499
0.128:526
0.128:523
0.128:493
0.128:468
0.128:459
0.128:477
0.128:479
0.128:480
0.128:471
0.128:460
0.128:448
0.129:445
0.129:474
0.129:508
0.129:513
0.129:493
0.129:483
0.129:486
0.129:490
0.129:481
0.129:475
0.129:467
0.129:463
0.129:475
0.129:488
0.129:477
0.130:463
0.130:455
0.130:475
0.130:520
0.130:534
0.130:523
0.130:530
0.130:533
0.130:534
0.130:514
0.130:484
0.130:474
0.130:479
0.130:489
0.130:497
0.130:483
0.131:470
0.131:470
0.131:461
0.131:478
0.131:497
0.131:492
0.131:489
0.131:495
0.131:525
0.131:544
0.131:524
0.131:499
0.131:483
0.131:492
0.131:498
0.132:498
0.132:496
0.132:498
0.132:504
0.133:496
0.133:490
0.133:483
0.133:487
0.133:486
0.133:492
0.133:493
0.133:488
0.134:491
0.134:487
0.134:482
0.134:488
0.134:501
0.134:492
0.134:489
0.134:486
0.134:490
0.134:502
0.134:525
0.134:529
0.134:516
0.135:502
0.135:487
0.135:464
0.135:471
0.135:488
0.135:492
0.135:481
0.135:473
0.135:473
0.135:476
0.135:485
0.135:509
0.135:527
0.136:519
0.136:500
0.136:489
0.136:486
0.136:477
0.136:469
0.136:486
0.136:530
0.136:530
0.136:505
0.136:476
0.136:448
0.136:458
0.136:484
0.136:481
0.136:473
0.136:496
0.136:504
0.136:508
0.136:499
0.136:484
0.136:461
0.137:461
0.137:451
0.137:465
0.137:478
0.137:473
0.137:467
0.137:484
0.137:501
0.137:504
0.137:492
0.137:499
0.137:515
0.137:514
0.137:505
0.137:519
0.137:518
0.137:497
0.137:471
0.137:472
0.137:473
0.137:472
0.137:477
0.138:478
0.138:478
0.138:475
0.138:477
0.138:494
0.138:497
0.138:474
0.138:461
0.138:448
0.138:443
0.138:436
0.138:438
0.138:456
0.138:482
0.138:493
0.138:467
0.138:450
0.138:454
0.138:458
0.138:453
0.138:449
0.139:436
0.139:428
0.139:427
0.139:401
0.139:385
0.139:465
0.139:515
0.139:511
0.139:495
0.139:463
0.139:448
0.139:440
0.139:436
0.139:439
0.139:444
0.139:462
0.139:464
0.139:464
0.139:461
0.139:471
0.140:477
0.140:474
0.140:464
0.140:464
0.140:472
0.140:487
0.140:484
0.140:482
0.140:475
0.140:464
0.140:461
0.140:467
0.140:480
0.140:488
0.140:484
0.140:486
0.140:504
0.140:499
0.140:476
0.140:485
0.140:533
0.140:518
0.141:481
0.141:478
0.141:485
0.141:504
0.141:513
0.141:515
0.141:510
0.141:521
0.141:520
0.141:520
0.141:530
0.141:541
0.141:540
0.141:513
0.141:506
0.141:497
0.141:499
0.141:494
0.141:487
0.141:483
0.141:501
0.142:521
0.142:504
0.142:511
0.142:524
0.142:530
0.142:521
0.142:518
0.142:525
0.142:526
0.142:508
0.142:494
0.142:490
0.142:495
0.142:511
0.142:511
0.142:535
0.142:545
0.142:529
0.142:507
0.142:508
0.142:525
0.142:539
0.143:514
0.143:491
0.143:479
0.143:494
0.143:502
0.143:491
0.143:499
0.143:510
0.143:513
0.143:523
0.143:525
0.143:520
0.143:513
0.143:507
0.143:506
0.143:505
0.143:497
0.143:499
0.143:509
0.143:506
0.143:505
0.144:502
0.144:510
0.144:500
0.144:498
0.144:493
0.144:491
0.144:489
0.144:502
0.144:525
0.144:533
0.144:532
0.144:525
0.144:513
0.144:514
0.144:525
0.144:532
0.144:560
0.144:560
0.144:535
0.144:524
0.144:502
0.144:481
0.145:461
0.145:448
0.145:452
0.145:483
0.145:507
0.145:510
0.145:508
0.145:499
0.145:514
0.145:514
0.145:540
0.145:545
0.145:539
0.145:522
0.145:498
0.145:500
0.145:500
0.145:492
0.145:491
0.145:505
0.145:502
0.145:492
0.146:457
0.146:396
0.146:361
0.146:330
0.146:326
0.146:315
0.146:291
0.146:256
0.146:210
0.146:166
0.146:138
0.146:92
0.146:40
0.146:17
0.146:17
0.146:17
0.146:17
0.146:17
0.146:18
0.146:18
0.146:18
0.146:18
0.146:19
0.146:18
0.147:18
0.147:18
0.147:17
0.147:18
0.147:17
0.147:17
0.147:26
0.147:107
0.147:196
0.147:277
0.147:360
0.147:460
0.147:546
0.147:613
0.147:684
0.147:744
0.147:756
0.147:732
0.147:691
0.147:663
0.147:647
0.147:662
0.148:663
0.148:663
0.148:643
0.148:624
0.148:612
0.148:615
0.148:612
0.148:598
0.148:583
0.148:576
0.148:575
0.148:580
0.148:577
0.148:563
0.148:547
0.148:551
0.148:584
0.148:602
0.148:593
0.148:567
0.148:547
0.148:562
0.151:578
0.151:581
0.151:583
0.151:589
0.151:605
0.151:610
0.151:607
0.151:596
0.151:591
0.151:582
0.151:575
0.151:579
0.151:588
0.151:579
0.152:564
0.152:557
0.152:563
0.152:559
0.152:561
0.152:574
0.152:553
0.152:542
0.152:544
0.152:573
0.152:589
0.152:589
0.152:578
0.152:561
0.152:555
0.152:547
0.152:548
0.152:551
0.153:544
0.153:537
0.153:526
0.153:526
0.153:554
0.153:581
0.153:572
0.153:572
0.153:557
0.153:544
0.153:524
0.153:511
0.153:525
0.153:556
0.153:547
0.153:537
0.153:542
0.153:560
0.153:558
0.153:548
0.153:527
0.153:512
0.154:493
0.154:498
0.154:519
0.154:519
0.154:519
0.154:521
0.154:511
0.154:513
0.154:556
0.155:583
0.155:583
0.155:544
0.155:505
0.155:490
0.155:497
0.155:498
0.155:501
0.155:529
0.155:536
0.155:530
0.155:515
0.155:510
0.155:510
0.155:506
0.155:504
0.155:504
0.155:506
0.155:505
0.155:500
0.155:501
0.155:514
0.156:502
0.156:489
0.156:486
0.156:492
0.156:499
0.156:508
0.156:503
0.156:498
0.156:490
0.156:475
0.156:460
0.156:469
0.156:494
0.156:502
0.156:502
0.156:494
0.156:496
0.156:498
0.156:488
0.156:486
0.156:472
0.156:458
0.157:452
0.157:472
0.157:488
0.157:479
0.157:475
0.157:469
0.157:462
0.157:449
0.157:451
0.157:453
0.157:467
0.157:476
0.157:459
0.157:448
0.157:453
0.157:469
0.157:483
0.157:485
0.157:454
0.157:431
0.157:419
0.158:420
0.158:422
0.158:398
0.158:392
0.158:438
0.158:477
0.158:493
0.158:487
0.158:460
0.158:433
0.158:430
0.158:442
0.158:449
0.158:443
0.158:431
0.158:433
0.158:427
0.158:434
0.158:446
0.158:444
0.158:440
0.158:427
0.159:413
0.159:403
0.159:390
0.159:393
0.159:396
0.159:389
0.159:381
0.159:388
0.159:392
0.159:392
0.159:386
0.159:395
0.159:421
0.159:430
0.159:423
0.159:420
0.159:407
0.159:399
0.159:397
0.159:409
0.159:409
0.159:384
0.160:371
0.160:383
0.160:393
0.160:394
0.160:398
0.160:410
0.160:431
0.160:425
0.160:412
0.160:403
0.160:404
0.160:440
0.160:452
0.160:454
0.160:449
0.160:433
0.160:413
0.160:415
0.160:446
0.160:466
0.160:474
0.160:482
0.161:470
0.161:454
0.161:444
0.161:470
0.161:480
0.161:475
0.161:479
0.161:490
0.161:485
0.161:523
0.161:556
0.161:565
0.161:556
0.161:539
0.161:532
0.161:527
0.161:525
0.161:515
0.161:539
0.161:548
0.161:535
0.162:529
0.162:530
0.162:553
0.162:565
0.162:565
0.162:556
0.162:539
0.162:532
0.162:533
0.162:543
0.162:566
0.162:577
0.162:579
0.162:583
0.162:572
0.162:567
0.162:565
0.162:565
0.162:564
0.162:563
0.162:560
0.162:558
0.163:566
0.163:589
0.163:611
0.163:606
0.163:586
0.163:578
0.163:589
0.163:587
0.163:588
0.163:604
0.163:611
0.163:611
0.163:594
0.163:569
0.163:572
0.163:614
0.163:622
0.163:616
0.163:608
0.163:601
0.163:591
0.163:587
0.164:602
0.164:609
0.164:604
0.164:597
0.164:587
0.164:578
0.164:571
0.164:559
0.164:549
0.164:544
0.164:559
0.164:588
0.164:600
0.164:586
0.164:588
0.164:582
0.164:563
0.164:568
0.164:566
0.164:576
0.164:576
0.165:583
0.165:581
0.165:571
0.165:571
0.165:581
0.165:577
0.165:561
0.165:548
0.165:555
0.165:571
0.165:594
0.165:581
0.165:562
0.165:550
0.165:551
0.167:552
0.167:558
0.167:546
0.168:522
0.168:518
0.168:537
0.168:548
0.168:547
0.168:547
0.168:552
0.168:559
0.168:541
0.168:5225
0.168:468
0.168:449
0.169:442
0.169:441
0.169:448
0.169:9
0.169:455
0.169:462
0.169:475
0.169:480
0.169:486
0.169:493
0.169:523
0.169:549
0.169:519
0.169:519
0.169:514
0.169:487
0.169:468
0.169:462
0.169:460
0.169:463
0.169:470
0.169:466
0.170:473
0.170:482
0.170:468
0.170:449
0.170:442
0.170:441
0.170:448
0.170:457
0.170:4
0.171:462
0.171:475
0.171:480
0.171:486
0.171:493
0.171:523
0.171:549
0.171:519
0.171:519
0.171:514
0.171:487
0.171:468
0.171:462
0.171:460
0.171:463
0.171:470
0.171:466
0.171:473
0.171:482
0.171:468
0.171:449
0.171:442
0.172:441
0.172:448
0.172:457
0.172:453
0.172:454
0.172:457
0.172:484
0.172:498
0.172:532
0.172:547
0.172:523
0.172:490
0.172:463
0.172:446
0.172:435
0.172:448
0.172:442
0.172:442
0.172:449
0.172:449
0.172:449
0.173:459
0.173:474
0.173:486
0.173:490
0.173:480
0.173:468
0.173:462
0.173:458
0.173:461
0.173:473
0.173:473
0.173:473
0.173:469
0.173:468
0.173:465
0.173:475
0.173:508
0.173:508
0.173:473
0.173:459
0.173:451
0.174:455
0.174:463
0.174:468
0.174:481
0.174:476
0.174:471
0.174:468
0.174:440
0.174:433
0.174:437
0.174:438
0.174:455
0.174:473
0.174:486
0.174:490
0.174:486
0.174:452
0.174:425
0.174:490
0.174:518
0.174:512
0.174:502
0.175:486
0.175:477
0.175:463
0.175:469
0.175:502
0.175:506
0.175:484
0.175:462
0.175:453
0.175:496
0.175:500
0.175:481
0.175:462
0.175:457
0.175:469
0.175:489
0.175:508
0.175:495
0.175:481
0.175:471
0.175:457
0.175:454
0.176:468
0.176:471
0.176:469
0.176:465
0.176:459
0.176:460
0.176:460
0.176:471
0.176:485
0.176:492
0.176:483
0.176:475
0.176:470
0.176:464
0.176:454
0.176:434
0.176:428
0.176:425
0.176:428
0.176:436
0.176:428
0.177:439
0.177:469
0.177:494
0.177:510
0.177:525
0.177:536
0.177:532
0.177:502
0.177:478
0.177:466
0.177:477
0.177:488
0.177:464
0.177:443
0.177:430
0.193:455
0.193:485
0.193:487
0.193:460
0.193:464
0.197:460
0.197:460
0.197:464
0.197:463
0.197:480
0.197:511
0.197:506
0.197:491
0.197:492
0.197:484
0.201:467
0.201:437
0.201:443
0.201:441
0.201:458
0.201:443
0.201:414
0.201:411
0.201:411
0.205:407
0.205:411
0.205:423
0.205:429
0.205:434
0.205:428
0.221:428
0.221:418
0.221:403
0.221:397
0.226:408
0.226:420
0.226:428
0.226:438
0.226:445
0.226:449
0.226:440
0.226:418
0.226:418
0.226:439
0.230:440
0.230:466
0.230:504
0.230:512
0.230:510
0.230:482
0.230:455
0.230:460
0.230:472
0.233:484
0.233:478
0.233:467
0.233:477
0.234:483
0.234:485
0.234:482
0.249:487
0.254:484
0.254:465
0.254:448
0.254:477
0.254:509
0.254:522
0.254:506
0.254:484
0.254:474
0.255:466
0.258:471
0.258:528
0.258:566
0.258:557
0.258:520
0.258:505
0.258:495
0.258:505
0.258:508
0.263:499
0.263:488
0.263:482
0.263:484
0.263:479
0.263:480
0.263:487
0.263:478
0.263:486
0.263:529
0.283:529
0.283:577
0.283:584
0.283:542
0.283:500
0.284:479
0.284:480
0.284:485
0.284:493
0.284:504
0.287:513
0.287:507
0.287:494
0.287:480
0.287:477
0.287:479
0.287:493
0.287:498
0.287:494
0.291:487
0.291:478
0.291:491
0.291:516
0.291:519
0.291:516
0.291:498
0.291:477
0.291:456
0.291:456
0.295:464
0.311:485
0.311:509
0.311:512
0.311:514
0.311:512
0.311:515
0.311:513
0.315:504
0.315:506
0.315:509
0.315:522
0.316:527
0.316:509
0.316:476
0.316:479
0.316:502
0.320:494
0.320:482
0.320:496
0.320:502
0.320:510
0.320:515
0.320:511
0.320:497
0.320:488
0.320:477
0.323:464
0.323:469
0.323:498
0.323:522
0.339:522
0.339:508
0.339:469
0.339:474
0.340:504
0.340:530
0.344:527
0.344:538
0.344:560
0.344:557
0.344:545
0.344:516
0.344:466
0.344:425
0.344:404
0.348:397
0.348:379
0.348:354
0.348:354
0.348:331
0.350:293
0.350:261
0.350:226
0.350:182
0.350:149
0.352:103
0.352:40
0.352:17
0.352:17
0.352:17
0.368:17
0.369:18
0.369:18
0.373:18
0.373:18
0.373:19
0.373:19
0.373:19
0.373:18
0.373:19
0.373:19
0.373:18
0.373:18
0.373:18
0.373:17
0.377:17
0.377:88
0.377:180
0.377:259
0.377:350
0.377:470
0.377:579
0.378:646
0.378:684
0.378:695
0.381:678
0.381:652
0.381:633
0.381:638
0.381:622
0.397:622
0.397:601
0.401:603
0.401:615
0.401:636
0.401:635
0.401:609
0.402:574
0.402:562
0.402:570
0.402:576
0.405:574
0.405:579
0.405:593
0.406:608
0.406:601
0.406:588
0.406:564
0.406:545
0.406:536
0.406:531
0.410:536
0.410:562
0.410:626
0.410:653
0.410:632
0.410:599
0.410:574
0.410:576
0.410:581
0.430:578
0.430:568
0.430:574
0.430:595
0.430:603
0.430:600
0.431:595
0.431:580
0.434:561
0.434:541
0.434:541
0.434:556
0.434:561
0.434:592
0.434:612
0.434:617
0.434:615
0.439:570
0.439:518
0.439:534
0.439:542
0.439:521
0.439:532
0.439:554
0.439:558
0.440:552
0.440:545
0.443:543
0.443:549
0.443:567
0.459:567
0.459:564
0.459:549
0.459:539
0.459:564
0.459:569
0.459:550
0.463:550
0.463:561
0.463:550
0.463:540
0.463:533
0.463:541
0.463:544
0.463:538
0.463:519
0.463:511
0.466:516
0.466:529
0.466:534
0.468:523
0.468:526
0.468:542
0.468:539
0.469:528
0.469:520
0.471:507
0.471:507
0.471:531
0.471:543
0.487:537
0.487:524
0.487:516
0.488:520
0.492:519
0.492:527
0.492:518
0.492:504
0.492:500
0.492:501
0.492:507
0.492:506
0.492:495
0.496:490
0.496:479
0.496:485
0.496:493
0.496:479
0.496:476
0.496:494
0.496:509
0.496:512
0.496:502
0.499:495
0.500:489
0.500:493
0.500:488
0.500:477
0.500:463
0.500:469
0.516:469
0.516:476
0.516:483
0.521:474
0.521:471
0.521:454
0.521:456
0.521:462
0.521:458
0.521:470
0.521:481
0.521:491
0.521:499
0.524:497
0.524:478
0.525:481
0.525:474
0.525:464
0.525:451
0.525:450
0.525:465
0.525:476
0.529:477
0.529:470
0.529:477
0.529:492
0.529:493
0.529:487
0.529:471
0.529:446
0.549:441
0.550:434
0.550:423
0.550:415
0.550:426
0.550:431
0.550:434
0.550:430
0.550:434
0.553:434
0.553:440
0.553:444
0.553:444
0.553:425
0.553:423
0.553:434
0.554:436
0.554:428
0.554:414
0.558:402
0.558:383
0.558:370
0.558:362
0.558:360
0.558:389
0.558:430
0.558:455
0.558:453
0.561:441
0.561:418
0.577:418
0.577:408
0.577:409
0.577:406
0.577:417
0.578:439
0.578:457
0.578:455
0.582:429
0.582:397
0.582:403
0.582:416
0.582:410
0.583:417
0.583:418
0.583:415
0.583:423
0.583:440
0.586:445
0.586:433
0.586:424
0.586:402
0.586:423
0.586:440
0.586:427
0.586:414
0.586:413
0.586:448
0.589:489
0.589:515
0.606:508
0.606:476
0.606:448
0.606:440
0.606:440
0.610:442
0.610:449
0.610:467
0.610:478
0.610:491
0.610:493
0.611:492
0.611:487
0.611:492
0.611:494
0.616:485
0.616:468
0.616:480
0.616:479
0.616:483
0.616:520
0.616:549
0.616:538
0.617:527
0.619:513
0.619:517
0.619:531
0.619:551
0.619:559
0.619:546
0.635:546
0.635:521
0.635:501
0.635:500
0.639:510
0.639:527
0.639:527
0.639:524
0.639:532
0.639:546
0.639:566
0.639:578
0.640:579
0.640:586
0.643:600
0.643:587
0.643:581
0.643:572
0.643:563
0.643:574
0.643:570
0.643:542
0.643:532
0.647:528
0.648:534
0.648:549
0.648:583
0.648:591
0.648:581
0.648:596
0.663:628
0.668:645
0.668:619
0.668:590
0.668:583
0.668:591
0.668:586
0.668:580
0.669:588
0.669:577
0.669:558
0.671:548
0.672:540
0.672:553
0.672:586
0.672:596
0.672:583
0.672:565
0.672:556
0.672:562
0.676:566
0.677:563
0.677:557
0.677:566
0.677:560
0.677:559
0.677:572
0.677:568
0.677:554
0.677:573
0.695:573
0.695:560
0.697:560
0.697:547
0.697:531
0.697:544
0.697:584
0.697:587
0.697:569
0.697:561
0.700:562
0.700:558
0.700:553
0.700:579
0.700:605
0.701:604
0.701:575
0.701:549
0.701:539
0.704:544
0.704:550
0.704:553
0.704:554
0.704:557
0.704:568
0.704:573
0.704:563
0.705:546
0.705:530
0.708:520
0.724:527
0.724:534
0.724:544
0.724:556
0.725:562
0.725:558
0.725:550
0.729:536
0.729:527
0.729:520
0.729:517
0.729:518
0.729:521
0.729:517
0.729:517
0.729:510
0.733:507
0.733:494
0.733:488
0.733:484
0.733:481
0.733:489
0.733:508
0.734:546
0.734:569
0.734:548
0.736:519
0.736:510
0.736:508
0.736:524
0.753:524
0.753:544
0.753:550
0.753:544
0.754:560
0.754:545
0.758:528
0.758:530
0.758:539
0.758:549
0.758:550
0.758:543
0.758:527
0.758:505
0.758:493
0.761:489
0.761:490
0.762:487
0.762:493
0.762:515
0.762:526
0.762:504
0.762:494
0.762:488
0.762:469
0.765:456
0.766:453
0.766:459
0.766:499
0.766:521
0.782:519
0.782:521
0.786:521
0.786:512
0.786:501
0.786:510
0.786:497
0.786:489
0.786:497
0.786:487
0.786:491
0.786:507
0.790:524
0.790:518
0.790:513
0.790:520
0.790:522
0.790:519
0.790:520
0.790:514
0.790:505
0.790:501
0.794:512
0.794:506
0.794:507
0.794:521
0.794:518
0.794:509
0.794:501
0.794:500
0.810:500
0.810:506
0.814:507
0.815:504
0.815:495
0.815:487
0.815:480
0.815:491
0.815:514
0.815:538
0.815:524
0.819:500
0.819:489
0.819:488
0.819:483
0.819:478
0.819:481
0.819:496
0.819:498
0.819:480
0.820:475
0.823:487
0.823:489
0.823:493
0.823:501
0.823:496
0.823:505
0.823:501
0.823:483
0.823:485
0.843:509
0.843:513
0.843:531
0.843:550
0.843:532
0.844:511
0.844:492
0.844:493
0.848:504
0.849:490
0.849:484
0.849:469
0.849:469
0.849:492
0.849:504
0.850:485
0.850:464
0.852:478
0.852:521
0.852:548
0.852:559
0.852:544
0.852:512
0.852:488
0.852:477
0.852:489
0.852:490
0.856:480
0.856:463
0.856:473
0.873:473
0.873:500
0.873:504
0.873:498
0.874:507
0.874:505
0.874:498
0.876:498
0.876:503
0.876:502
0.876:496
0.876:498
0.878:482
0.878:474
0.878:500
0.878:512
0.878:503
0.881:493
0.881:484
0.881:475
0.881:464
0.881:448
0.882:435
0.882:452
0.882:478
0.882:474
0.885:456
0.885:461
0.885:469
0.886:465
0.900:448
0.901:428
0.901:435
0.901:457
0.906:458
0.906:465
0.906:477
0.906:485
0.907:487
0.907:497
0.907:504
0.907:495
0.907:495
0.909:497
0.909:486
0.909:460
0.909:441
0.909:436
0.910:440
0.910:454
0.910:464
0.910:466
0.910:473
0.914:482
0.914:474
0.914:480
0.915:497
0.915:500
0.915:488
0.915:478
0.929:478
0.929:479
0.930:487
0.934:488
0.934:498
0.934:506
0.935:502
0.935:514
0.935:517
0.935:513
0.936:511
0.936:516
0.938:548
0.938:569
0.938:567
0.938:541
0.939:513
0.939:491
0.939:481
0.939:492
0.939:508
0.940:493
0.942:461
0.942:466
0.942:521
0.942:543
0.943:548
0.943:550
0.943:538
0.943:535
0.963:517
0.963:506
0.963:503
0.963:503
0.964:520
0.964:541
0.964:540
0.964:526
0.964:513
0.967:513
0.967:527
0.967:527
0.967:512
0.968:497
0.968:501
0.968:510
0.968:512
0.969:520
0.969:520
0.971:515
0.971:514
0.971:529
0.972:543
0.972:541
0.972:528
0.972:520
0.972:506
0.973:492
0.975:499
0.975:510
0.991:510
0.992:513
0.992:520
0.992:516
0.992:526
0.992:533
0.993:524
0.993:499
0.996:493
0.996:489
0.996:488
0.996:488
0.997:491
0.997:497
0.997:510
0.997:520
0.997:514
0.997:523
0.999:527
0.999:514
0.999:519
0.999:517
0.999:509
1.000:509
1.000:504
1.000:527
1.000:572
1.003:584
1.003:549
1.004:488
1.020:457
1.020:468
1.020:499
1.020:513
1.020:525
1.024:540
1.024:536
1.024:541
1.024:540
1.025:535
1.025:532
1.025:532
1.025:531
1.025:544
1.026:541
1.028:533
1.028:537
1.028:548
1.029:543
1.029:532
1.029:528
1.029:512
1.029:498
1.030:489
1.032:500
1.033:476
1.033:444
1.033:425
1.033:404
1.033:379
1.048:379
1.048:341
1.048:307
1.049:274
1.053:237
1.053:183
1.053:133
1.053:80
1.053:37
1.054:17
1.054:17
1.054:17
1.054:17
1.054:17
1.054:18
1.055:18
1.057:18
1.057:18
1.057:19
1.057:19
1.057:19
1.057:19
1.057:18
1.058:18
1.058:17
1.058:17
1.058:17
1.058:28
1.061:123
1.061:224
1.076:363
1.081:537
1.082:647
1.082:709
1.082:729
1.083:726
1.083:720
1.083:713
1.083:693
1.084:662
1.084:641
1.085:626
1.085:612
1.085:610
1.085:606
1.085:596
1.087:587
1.087:573
1.087:556
1.087:552
1.089:559
1.089:585
1.089:607
1.089:602
1.090:574
1.090:591
1.090:601
1.090:600
1.090:596
1.091:586
1.110:586
1.110:580
1.110:584
1.110:600
1.111:610
1.111:612
1.111:608
1.111:603
1.112:600
1.112:597
1.114:589
1.114:578
1.114:563
1.115:562
1.115:553
1.115:564
1.115:601
1.115:627
1.116:630
1.118:625
1.118:615
1.118:597
1.118:587
1.118:584
1.118:583
1.118:584
1.118:595
1.119:607
1.119:607
1.122:600
1.138:598
1.138:592
1.138:567
1.138:550
1.138:551
1.140:572
1.140:611
1.142:634
1.143:642
1.143:638
1.143:626
1.143:586
1.143:560
1.143:556
1.143:562
1.143:589
1.147:604
1.147:595
1.148:568
1.149:549
1.149:543
1.149:542
1.149:534
1.149:530
1.149:528
1.150:522
1.151:519
1.151:532
1.152:551
1.152:561
1.166:561
1.168:564
1.168:559
1.168:536
1.168:555
1.168:567
1.171:554
1.171:538
1.172:526
1.172:538
1.172:541
1.172:526
1.172:506
1.173:497
1.173:499
1.176:510
1.176:535
1.176:540
1.176:541
1.177:544
1.177:564
1.177:556
1.177:533
1.177:511
1.178:499
1.179:495
1.179:493
1.179:505
1.179:514
1.179:522
1.195:503
1.195:488
1.199:516
1.200:540
1.200:544
1.200:528
1.200:491
1.200:464
1.200:493
1.200:535
1.200:537
1.201:520
1.204:495
1.204:480
1.204:478
1.204:490
1.205:510
1.205:511
1.205:502
1.205:491
1.205:468
1.208:451
1.208:444
1.208:444
1.208:448
1.208:451
1.208:459
1.209:475
1.209:479
1.209:500
1.224:500
1.224:520
1.228:511
1.228:501
1.228:488
1.228:483
1.228:485
1.228:479
1.229:477
1.229:475
1.229:470
1.233:463
1.233:457
1.233:454
1.233:449
1.233:442
1.233:430
1.234:418
1.234:409
1.234:410
1.234:433
1.236:456
1.236:484
1.236:522
1.238:525
1.238:483
1.238:440
1.238:412
1.238:406
1.239:427
1.256:451
1.256:445
1.258:427
1.258:417
1.258:410
1.258:389
1.258:400
1.259:411
1.262:413
1.262:429
1.262:444
1.262:468
1.263:476
1.263:456
1.263:435
1.263:429
1.263:422
1.265:409
1.266:405
1.266:414
1.266:428
1.266:441
1.267:450
1.267:454
1.267:442
1.267:431
1.267:425
1.269:405
1.269:395
1.269:389
1.286:389
1.286:392
1.287:408
1.287:420
1.287:425
1.287:428
1.287:429
1.290:454
1.290:476
1.290:453
1.290:436
1.291:438
1.291:446
1.291:449
1.291:460
1.291:482
1.294:505
1.294:499
1.294:482
1.294:488
1.295:482
1.295:472
1.295:477
1.295:504
1.295:518
1.296:507
1.298:488
1.298:486
1.298:491
1.298:501
1.315:493
1.315:490
1.316:500
1.316:523
1.319:552
1.319:572
1.319:616
1.319:618
1.319:576
1.319:526
1.319:511
1.319:517
1.319:525
1.323:550
1.323:569
1.323:555
1.323:554
1.324:569
1.324:596
1.324:611
1.324:616
1.324:616
1.324:608
1.327:598
1.328:600
1.328:599
1.328:594
1.328:581
1.328:571
1.329:569
1.343:569
1.343:570
1.344:567
1.349:558
1.349:557
1.349:575
1.349:584
1.349:580
1.350:590
1.350:601
1.350:626
1.350:648
1.352:653
1.352:610
1.353:586
1.353:588
1.353:584
1.353:579
1.353:599
1.354:599
1.354:579
1.354:574
1.356:586
1.356:592
1.356:585
1.356:569
1.357:544
1.357:543
1.357:558
1.357:584
1.376:610
1.376:635
1.376:643
1.376:617
1.377:600
1.377:598
1.377:585
1.377:575
1.377:572
1.380:566
1.380:566
1.380:573
1.381:562
1.382:553
1.382:548
1.382:556
1.383:572
1.383:581
1.383:576
1.384:566
1.384:557
1.384:563
1.385:574
1.385:591
1.385:601
1.385:584
1.385:554
1.386:547
1.388:546
1.388:538
1.405:538
1.405:538
1.405:529
1.405:518
1.405:520
1.405:527
1.406:535
1.406:545
1.409:553
1.409:548
1.409:541
1.409:543
1.409:546
1.410:547
1.410:527
1.410:517
1.410:533
1.410:571
1.413:617
1.413:631
1.413:605
1.413:561
1.414:529
1.414:523
1.415:543
1.415:544
1.415:530
1.416:547
1.417:553
1.417:542
1.433:530
1.433:526
1.434:520
1.434:544
1.434:564
1.438:565
1.438:573
1.438:572
1.438:569
1.439:553
1.439:537
1.439:528
1.439:520
1.439:505
1.439:514
1.441:516
1.441:514
1.441:521
1.442:521
1.442:514
1.442:507
1.442:498
1.442:496
1.442:532
1.446:565
1.446:568
1.446:557
1.446:541
1.447:546
1.447:557
1.462:557
1.462:541
1.462:500
1.462:483
1.466:479
1.467:488
1.467:491
1.467:508
1.467:525
1.467:519
1.467:507
1.468:509
1.468:526
1.468:523
1.470:525
1.470:521
1.470:519
1.471:502
1.471:497
1.471:497
1.471:484
1.471:496
1.472:518
1.475:527
1.475:532
1.475:528
1.475:524
1.476:520
1.476:504
1.476:497
1.491:525
1.495:535
1.495:513
1.495:497
1.495:514
1.496:530
1.496:523
1.496:515
1.496:496
1.496:490
1.497:518
1.499:520
1.499:523
1.499:521
1.499:524
1.500:515
1.500:498
1.500:485
1.500:474
1.500:474
1.503:478
1.504:482
1.504:492
1.504:503
1.504:509
1.504:503
1.505:492
1.505:493
1.505:512
1.505:532
1.524:532
1.524:533
1.524:528
1.524:522
1.525:506
1.525:489
1.525:477
1.525:460
1.525:475
1.525:502
1.528:516
1.528:510
1.528:492
1.528:489
1.528:479
1.528:474
1.528:461
1.528:446
1.528:460
1.531:489
1.532:505
1.532:513
1.532:526
1.532:526
1.532:539
1.532:542
1.533:521
1.533:499
1.533:506
1.535:503
1.551:500
1.552:500
1.552:503
1.552:504
1.552:501
1.552:498
1.557:495
1.557:497
1.557:493
1.557:485
1.557:479
1.558:473
1.558:479
1.558:488
1.558:470
1.558:439
1.561:435
1.561:456
1.561:480
1.561:470
1.562:445
1.562:431
1.562:436
1.562:472
1.562:524
1.563:546
1.564:515
1.564:464
1.565:419
1.565:422
1.580:422
1.581:449
1.581:459
1.581:457
1.581:462
1.581:476
1.585:480
1.585:468
1.585:476
1.585:500
1.585:489
1.585:477
1.586:481
1.586:484
1.586:471
1.589:485
1.589:504
1.589:517
1.589:512
1.589:499
1.589:492
1.589:500
1.590:509
1.590:505
1.590:500
1.592:512
1.592:512
1.593:523
1.593:516
1.593:522
1.609:533
1.609:523
1.613:514
1.613:506
1.614:493
1.614:506
1.614:526
1.615:519
1.615:532
1.615:539
1.615:540
1.615:541
1.618:546
1.618:541
1.618:530
1.618:521
1.619:533
1.619:560
1.619:552
1.619:527
1.619:515
1.622:508
1.622:501
1.622:511
1.622:518
1.623:522
1.623:529
1.623:544
1.623:554
1.623:560
1.638:560
1.643:564
1.643:559
1.643:564
1.643:568
1.644:552
1.644:523
1.644:508
1.644:510
1.644:511
1.645:505
1.647:492
1.647:497
1.647:506
1.648:510
1.649:523
1.649:559
1.649:576
1.649:547
1.649:514
1.650:531
1.650:556
1.651:554
1.651:543
1.651:524
1.651:510
1.651:505
1.652:505
1.652:524
1.652:536
1.671:538
1.671:527
1.671:511
1.671:500
1.671:508
1.671:515
1.672:504
1.672:503
1.675:525
1.675:546
1.675:549
1.675:538
1.676:523
1.676:522
1.676:523
1.676:523
1.676:526
1.679:523
1.679:513
1.679:498
1.680:487
1.680:496
1.680:518
1.680:538
1.681:554
1.681:550
1.682:548
1.683:551
1.683:558
1.683:565
1.700:565
1.700:563
1.700:558
1.700:546
1.701:537
1.701:519
1.701:521
1.704:497
1.704:455
1.704:429
1.704:448
1.705:434
1.705:394
1.705:349
1.705:309
1.705:275
1.708:248
1.708:231
1.708:213
1.708:203
1.709:147
1.709:80
1.709:25
1.709:17
1.709:17
1.709:17
1.709:17
1.712:18
1.712:18
1.712:18
1.728:18
1.728:19
1.728:19
1.728:18
1.728:19
1.732:18
1.733:18
1.733:18
1.733:17
1.733:17
1.733:51
1.733:140
1.734:226
1.734:332
1.734:457
1.734:554
1.736:637
1.736:689
1.737:724
1.737:737
1.737:724
1.737:694
1.737:664
1.737:654
1.738:691
1.741:697
1.741:680
1.741:655
1.742:635
1.742:620
1.756:620
1.756:604
1.756:593
1.761:590
1.761:591
1.761:592
1.761:594
1.762:586
1.762:589
1.762:584
1.762:558
1.762:565
1.764:576
1.765:580
1.765:584
1.766:575
1.766:569
1.766:580
1.766:588
1.766:589
1.767:597
1.767:605
1.769:612
1.769:639
1.769:662
1.770:651
1.770:631
1.770:622
1.770:619
1.771:618
1.790:613
1.790:604
1.790:589
1.790:588
1.790:567
1.791:541
1.791:556
1.791:590
1.791:593
1.794:584
1.794:586
1.794:571
1.794:566
1.795:575
1.795:597
1.795:613
1.795:613
1.795:577
1.796:547
1.799:533
1.800:541
1.800:579
1.800:592
1.801:587
1.801:576
1.801:561
1.801:552
1.801:586
1.801:599
1.801:590
1.818:590
1.818:585
1.818:574
1.818:569
1.819:577
1.819:587
1.819:585
1.819:595
1.823:587
1.823:559
1.823:521
1.823:485
1.824:472
1.824:490
1.824:514
1.824:555
1.824:576
1.825:579
1.827:569
1.827:549
1.827:538
1.828:540
1.828:535
1.828:531
1.828:529
1.828:528
1.828:532
1.831:535
1.831:527
1.831:518
1.847:515
1.847:505
1.847:508
1.848:515
1.848:513
1.851:503
1.851:504
1.851:513
1.852:512
1.852:498
1.852:482
1.852:494
1.852:519
1.852:544
1.853:546
1.855:542
1.855:538
1.855:539
1.855:527
1.855:514
1.856:500
1.856:491
1.856:505
1.856:505
1.859:489
1.859:476
1.859:475
1.859:480
1.859:488
1.860:486
1.876:486
1.876:505
1.876:541
1.876:536
1.880:527
1.880:511
1.880:507
1.881:503
1.881:492
1.881:486
1.882:467
1.882:462
1.882:454
1.882:445
1.884:430
1.884:426
1.884:421
1.884:425
1.885:434
1.885:447
1.885:458
1.885:454
1.885:460
1.888:480
1.888:507
1.888:505
1.889:484
1.889:473
1.889:480
1.889:476
1.904:468
1.909:463
1.909:448
1.909:447
1.909:444
1.909:445
1.910:437
1.910:427
1.910:421
1.910:423
1.913:416
1.913:436
1.913:444
1.914:437
1.914:433
1.914:417
1.914:436
1.915:477
1.915:493
1.915:479
1.917:428
1.917:400
1.917:386
1.918:386
1.918:398
1.918:401
1.918:397
1.918:390
1.919:387
1.919:391
1.937:391
1.938:387
1.938:371
1.938:364
1.938:385
1.938:427
1.939:473
1.939:508
1.939:506
1.939:484
1.941:457
1.941:423
1.942:422
1.942:433
1.942:433
1.942:435
1.943:435
1.943:419
1.943:411
1.946:428
1.946:444
1.946:452
1.946:486
1.947:494
1.947:475
1.947:460
1.947:448
1.947:453
1.948:459
1.949:483
1.965:496
1.966:488
1.966:481
1.966:496
1.966:503
1.966:494
1.970:484
1.970:480
1.970:490
1.970:493
1.971:528
1.971:566
1.971:575
1.971:554
1.971:516
1.971:503
1.974:523
1.974:546
1.974:553
1.974:550
1.975:545
1.975:536
1.975:533
1.975:528
1.975:531
1.978:527
1.978:550
1.978:559
1.979:564
1.979:572
1.994:572
1.994:581
1.994:597
1.994:610
1.995:618
1.995:613
1.998:601
1.998:599
1.998:611
1.998:603
1.999:598
1.999:591
1.999:581
1.999:576
1.999:585
2.003:607
2.003:608
2.003:602
2.003:590
2.004:591
2.004:621
2.004:627
2.004:624
2.004:628
2.005:625
2.006:614
2.007:583
2.007:554
2.007:583
2.007:611
2.022:618
2.022:606
2.027:594
2.028:584
2.028:569
2.028:575
2.028:582
2.028:591
2.028:589
2.029:579
2.029:571
2.029:570
2.031:579
2.031:586
2.031:586
2.031:594
2.031:602
2.033:607
2.033:620
2.033:633
2.033:629
2.035:609
2.035:589
2.035:573
2.035:572
2.036:575
2.036:553
2.036:546
2.036:553
2.036:560
2.051:560
2.056:565
2.056:569
2.056:568
2.056:571
2.057:591
2.057:593
2.057:581
2.057:580
2.057:580
2.058:572
2.060:567
2.060:564
2.060:564
2.060:561
2.061:547
2.061:541
2.061:535
2.061:538
2.061:537
2.061:549
2.064:559
2.064:559
2.064:561
2.064:564
2.065:573
2.065:582
2.065:581
2.065:563
2.065:548
2.085:537
2.085:541
2.085:540
2.085:539
2.085:553
2.086:556
2.086:534
2.086:513
2.089:526
2.089:568
2.089:590
2.089:593
2.090:555
2.090:501
2.090:475
2.090:500
2.090:537
2.093:556
2.093:549
2.093:535
2.093:532
2.094:531
2.094:528
2.094:535
2.094:543
2.094:543
2.094:534
2.098:523
2.098:511
2.098:517
2.113:517
2.113:518
2.113:529
2.114:544
2.114:545
2.114:540
2.114:537
2.118:533
2.118:528
2.118:526
2.118:546
2.119:554
2.119:553
2.119:543
2.119:517
2.119:496
2.122:501
2.122:523
2.122:525
2.122:533
2.123:533
2.123:536
2.123:542
2.123:524
2.123:503
2.124:491
2.125:500
2.125:510
2.125:522
2.125:515
2.141:505
2.142:501
2.142:501
2.142:501
2.146:521
2.146:541
2.146:538
2.146:515
2.146:502
2.147:499
2.148:496
2.148:487
2.148:489
2.150:501
2.150:512
2.150:509
2.150:520
2.151:536
2.151:534
2.151:527
2.151:526
2.151:555
2.151:571
2.154:534
2.154:500
2.154:499
2.154:481
2.154:478
2.154:483
2.155:457
2.170:457
2.170:456
2.170:475
2.175:472
2.175:492
2.175:516
2.175:523
2.176:510
2.176:516
2.176:540
2.176:541
2.176:533
2.179:517
2.179:498
2.179:497
2.179:510
2.180:513
2.180:509
2.180:509
2.181:516
2.181:496
2.181:475
2.182:480
2.183:486
2.183:490
2.183:511
2.183:526
2.184:529
2.184:531
2.184:539
2.203:538
2.203:525
2.203:498
2.203:469
2.203:461
2.204:470
2.204:492
2.204:513
2.204:516
2.208:523
2.208:520
2.208:489
2.208:479
2.208:476
2.208:475
2.208:477
2.208:480
2.209:503
2.209:514
2.211:512
2.211:503
2.211:495
2.212:486
2.212:484
2.212:478
2.212:468
2.212:464
2.213:458
2.215:453
2.215:447
2.232:447
2.232:444
2.232:432
2.233:446
2.233:472
2.233:473
2.233:468
2.233:464
2.236:461
2.236:472
2.236:494
2.236:504
2.237:519
2.237:532
2.237:534
2.237:506
2.237:472
2.238:457
2.240:450
2.240:447
2.240:446
2.240:446
2.241:468
2.241:477
2.241:484
2.241:480
2.241:480
2.244:487
2.244:496
2.244:511
2.260:517
2.261:514
2.261:511
2.261:508
2.261:507
2.265:511
2.265:512
2.265:520
2.265:519
2.265:513
2.266:512
2.266:511
2.266:512
2.266:499
2.266:486
2.268:478
2.268:493
2.268:499
2.268:509
2.268:529
2.268:547
2.268:560
2.269:560
2.269:550
2.273:545
2.273:540
2.273:534
2.273:531
2.274:523
2.274:512
2.289:512
2.289:516
2.289:520
2.289:523
2.294:519
2.294:503
2.294:498
2.294:510
2.295:536
2.295:561
2.295:568
2.295:557
2.295:536
2.296:511
2.297:502
2.297:511
2.297:524
2.297:540
2.298:539
2.298:545
2.298:530
2.298:529
2.299:529
2.302:512
2.302:527
2.302:544
2.302:548
2.303:545
2.303:542
2.303:561
2.318:577
2.322:578
2.322:591
2.322:594
2.322:582
2.323:564
2.323:543
2.323:523
2.323:511
2.323:518
2.326:517
2.326:521
2.326:511
2.326:514
2.326:518
2.326:522
2.327:523
2.327:528
2.327:534
2.327:540
2.330:545
2.330:542
2.332:536
2.332:530
2.332:526
2.332:520
2.332:524
2.332:523
2.333:520
2.333:512
2.351:512
2.351:498
2.351:497
2.351:494
2.352:494
2.352:499
2.352:503
2.352:508
2.352:512
2.353:512
2.355:520
2.355:533
2.355:530
2.355:551
2.356:558
2.356:549
2.356:548
2.356:553
2.356:544
2.359:519
2.359:497
2.359:477
2.359:458
2.360:438
2.360:422
2.360:407
2.360:395
2.360:389
2.360:372
2.362:351
2.379:320
2.379:288
2.380:248
2.380:214
2.380:160
2.380:107
2.381:69
2.383:24
2.384:17
2.384:17
2.384:17
2.384:18
2.384:17
2.384:18
2.384:18
2.385:18
2.385:18
2.385:18
2.388:18
2.388:18
2.388:18
2.388:17
2.388:17
2.388:32
2.388:104
2.388:165
2.389:234
2.389:325
2.389:428
2.391:536
2.408:536
2.408:628
2.408:675
2.408:697
2.408:717
2.412:736
2.412:729
2.412:690
2.413:659
2.413:640
2.414:643
2.414:652
2.414:646
2.414:630
2.414:627
2.416:625
2.416:621
2.416:618
2.416:617
2.416:597
2.416:592
2.416:593
2.416:588
2.416:590
2.416:579
2.420:568
2.420:555
2.421:556
2.421:574
2.421:598
2.436:618
2.436:620
2.441:620
2.441:608
2.441:596
2.441:583
2.442:585
2.442:593
2.442:596
2.442:589
2.442:591
2.443:598
2.445:594
2.445:592
2.445:584
2.445:575
2.446:570
2.446:571
2.446:567
2.447:563
2.447:559
2.449:567
2.450:577
2.450:578
2.450:571
2.450:574
2.451:589
2.451:595
2.451:593
2.451:586
2.465:586
2.469:571
2.469:574
2.469:570
2.469:565
2.470:566
2.470:570
2.470:572
2.470:566
2.470:562
2.470:560
2.474:575
2.474:586
2.474:587
2.474:570
2.475:563
2.475:568
2.475:572
2.475:572
2.475:558
2.478:539
2.478:531
2.478:523
2.478:524
2.479:539
2.479:541
2.479:544
2.479:552
2.479:556
2.479:553
2.498:552
2.498:547
2.498:542
2.498:545
2.499:550
2.499:562
2.499:561
2.499:555
2.502:536
2.502:518
2.502:509
2.502:517
2.503:524
2.503:524
2.503:519
2.503:509
2.503:499
2.507:492
2.507:492
2.507:498
2.507:497
2.507:498
2.508:504
2.508:501
2.508:502
2.508:514
2.508:534
2.510:547
2.510:545
2.510:536
2.526:536
2.527:528
2.527:522
2.527:510
2.527:493
2.527:483
2.528:481
2.531:493
2.531:498
2.531:492
2.531:496
2.532:511
2.532:517
2.532:517
2.532:513
2.533:503
2.535:498
2.536:502
2.536:505
2.536:494
2.536:500
2.536:503
2.537:506
2.537:494
2.537:476
2.537:469
2.539:458
2.539:453
2.539:443
2.539:434
2.555:437
2.555:449
2.555:468
2.555:476
2.559:489
2.559:481
2.559:472
2.559:470
2.560:474
2.560:471
2.560:471
2.561:464
2.561:454
2.564:466
2.564:462
2.564:449
2.564:447
2.564:444
2.565:422
2.565:426
2.565:435
2.565:437
2.566:443
2.567:449
2.568:454
2.568:451
2.568:457
2.568:469
2.568:456
2.570:441
2.583:441
2.584:429
2.584:421
2.588:425
2.589:437
2.589:439
2.589:450
2.589:454
2.589:443
2.589:424
2.589:422
2.589:421
2.592:425
2.592:428
2.592:422
2.592:424
2.593:427
2.593:426
2.593:422
2.593:420
2.593:432
2.593:432
2.596:421
2.598:410
2.598:410
2.598:418
2.598:426
2.599:437
2.599:445
2.599:442
2.616:436
2.616:445
2.618:450
2.618:454
2.618:458
2.618:463
2.618:471
2.619:471
2.619:476
2.621:478
2.621:477
2.621:472
2.621:468
2.621:468
2.621:477
2.621:481
2.622:481
2.622:487
2.622:482
2.624:485
2.625:504
2.625:511
2.625:513
2.625:521
2.625:521
2.626:530
2.626:545
2.626:557
2.629:564
2.629:568
2.645:568
2.645:569
2.646:568
2.646:561
2.646:553
2.646:555
2.647:555
2.647:552
2.649:564
2.650:569
2.650:572
2.650:573
2.650:577
2.650:587
2.650:591
2.650:586
2.650:591
2.650:604
2.653:608
2.653:603
2.653:586
2.653:581
2.653:597
2.653:605
2.653:602
2.653:594
2.653:587
2.657:576
2.658:577
2.658:572
2.674:559
2.674:558
2.674:563
2.674:571
2.675:587
2.678:600
2.678:612
2.678:613
2.678:615
2.678:614
2.678:614
2.678:611
2.678:606
2.678:601
2.682:598
2.682:605
2.682:606
2.683:596
2.683:595
2.683:589
2.684:589
2.684:594
2.684:595
2.684:595
2.686:603
2.686:605
2.686:605
2.686:605
2.686:595
2.686:586
2.702:586
2.702:587
2.703:605
2.703:630
2.707:639
2.707:625
2.707:622
2.708:619
2.708:611
2.708:606
2.708:602
2.708:603
2.708:601
2.709:603
2.711:604
2.711:611
2.711:611
2.712:613
2.712:614
2.712:608
2.712:597
2.712:592
2.713:592
2.715:589
2.715:589
2.715:578
2.716:575
2.716:571
2.716:561
2.716:554
2.731:557
2.736:569
2.736:583
2.736:599
2.736:596
2.737:598
2.737:599
2.737:591
2.737:580
2.737:565
2.740:548
2.740:522
2.740:503
2.740:495
2.740:487
2.740:487
2.740:488
2.740:491
2.740:486
2.740:476
2.744:464
2.744:459
2.744:466
2.744:470
2.745:489
2.745:517
2.745:531
2.745:540
2.746:552
2.747:561
2.764:561
2.764:567
2.764:569
2.764:566
2.764:572
2.765:592
2.765:606
2.765:607
2.765:592
2.768:574
2.768:560
2.768:529
2.768:510
2.768:492
2.768:505
2.768:524
2.769:556
2.769:584
2.769:596
2.772:621
2.772:643
2.772:653
2.772:643
2.772:631
2.773:625
2.773:619
2.773:605
2.773:592
2.773:575
2.776:537
2.792:494
2.792:452
2.793:429
2.793:419
2.793:421
2.793:452
2.797:489
2.798:522
2.798:550
2.798:549
2.798:527
2.799:500
2.799:487
2.799:478
2.800:473
2.800:470
2.801:474
2.801:480
2.802:480
2.802:478
2.802:472
2.802:453
2.802:450
2.803:455
2.803:486
2.805:512
2.805:527
2.805:523
2.805:520
2.805:522
2.821:522
2.821:527
2.821:538
2.821:554
2.822:557
2.826:547
2.826:524
2.826:520
2.826:525
2.827:532
2.827:529
2.827:530
2.827:536
2.827:550
2.827:531
2.830:507
2.831:475
2.831:462
2.831:460
2.831:460
2.832:481
2.832:509
2.832:528
2.832:533
2.833:533
2.833:520
2.833:504
2.834:503
2.834:505
2.835:506
2.850:507
2.850:514
2.854:516
2.854:518
2.854:502
2.854:499
2.855:512
2.855:521
2.855:522
2.855:518
2.855:520
2.855:514
2.858:501
2.858:495
2.858:488
2.858:480
2.858:470
2.859:464
2.859:475
2.859:480
2.859:478
2.863:474
2.864:473
2.864:480
2.864:490
2.864:504
2.864:508
2.865:512
2.865:503
2.865:490
2.878:490
2.883:492
2.883:496
2.883:504
2.884:506
2.884:506
2.885:515
2.885:518
2.885:530
2.885:538
2.885:539
2.887:539
2.887:540
2.888:536
2.888:535
2.888:533
2.888:528
2.888:513
2.889:507
2.889:503
2.891:504
2.891:506
2.891:496
2.891:497
2.892:502
2.892:502
2.892:484
2.892:461
2.892:446
2.892:443
2.912:460
2.912:470
2.912:494
2.912:505
2.913:513
2.913:501
2.913:486
2.914:482
2.915:488
2.915:491
2.916:483
2.916:473
2.916:457
2.916:446
2.918:429
2.918:429
2.918:447
2.920:458
2.920:464
2.920:472
2.920:486
2.920:482
2.921:478
2.921:482
2.921:484
2.921:490
2.921:490
2.924:482
2.924:471
2.924:467
2.940:467
2.940:461
2.941:455
2.941:444
2.941:427
2.941:420
2.941:426
2.945:425
2.945:416
2.945:396
2.945:384
2.945:399
2.945:409
2.946:427
2.946:434
2.947:460
2.948:488
2.948:509
2.949:516
2.949:527
2.949:535
2.949:534
2.949:553
2.950:580
2.950:589
2.951:583
2.952:577
2.952:560
2.952:562
2.952:572
2.969:578
2.969:572
2.969:562
2.969:559
2.972:557
2.973:555
2.973:548
2.973:542
2.973:527
2.973:519
2.974:515
2.974:512
2.974:519
2.978:535
2.978:555
2.978:566
2.978:572
2.978:575
2.979:582
2.979:575
2.979:568
2.979:569
2.979:567
2.981:558
2.981:544
2.982:539
2.982:548
2.982:545
2.983:539
2.983:536
2.997:536
2.998:552
2.998:550
3.001:547
3.001:550
3.002:559
3.002:556
3.002:538
3.002:530
3.002:535
3.002:514
3.003:496
3.006:491
3.006:492
3.006:493
3.006:497
3.006:502
3.007:510
3.007:524
3.007:525
3.007:523
3.007:536
3.009:550
3.010:562
3.010:563
3.010:560
3.010:547
3.010:538
3.011:546
3.011:552
3.030:560
3.030:556
3.030:553
3.030:539
3.030:522
3.030:504
3.031:496
3.031:488
3.031:495
3.034:511
3.034:521
3.034:535
3.034:544
3.034:555
3.034:557
3.034:563
3.034:565
3.035:567
3.035:562
3.038:561
3.039:551
3.039:531
3.039:514
3.039:510
3.039:505
3.039:501
3.039:502
3.039:525
3.043:559
3.043:578
3.059:578
3.059:596
3.059:612
3.059:626
3.059:641
3.060:635
3.060:607
3.060:567
3.063:539
3.064:506
3.064:470
3.065:437
3.065:391
3.065:367
3.066:335
3.066:298
3.066:271
3.067:234
3.067:190
3.067:138
3.068:91
3.068:41
3.068:17
3.068:17
3.068:17
3.068:17
3.068:17
3.068:18
3.069:18
3.071:19
3.087:18
3.088:19
3.088:19
3.088:19
3.088:19
3.088:20
3.092:19
3.092:20
3.092:19
3.092:18
3.092:18
3.093:17
3.093:46
3.093:194
3.093:316
3.093:448
3.093:582
3.096:677
3.096:740
3.097:773
3.097:787
3.097:771
3.097:748
3.098:730
3.098:704
3.099:683
3.099:661
3.100:642
3.100:646
3.100:657
3.116:657
3.116:662
3.116:665
3.116:670
3.120:669
3.120:656
3.120:642
3.120:635
3.121:636
3.121:645
3.121:638
3.121:624
3.121:620
3.121:621
3.124:623
3.124:630
3.124:631
3.124:641
3.125:649
3.125:660
3.125:661
3.125:665
3.125:668
3.129:678
3.129:686
3.129:673
3.129:655
3.130:642
3.130:637
3.130:634
3.144:636
3.149:637
3.149:632
3.149:611
3.150:584
3.150:578
3.150:578
3.151:593
3.151:602
3.151:608
3.153:621
3.153:642
3.153:651
3.153:657
3.153:655
3.154:635
3.154:625
3.154:615
3.154:610
3.154:609
3.158:628
3.158:646
3.158:636
3.158:609
3.158:591
3.158:577
3.159:564
3.159:558
3.159:559
3.161:565
3.178:565
3.178:573
3.178:575
3.178:589
3.179:603
3.179:604
3.179:603
3.179:602
3.179:599
3.182:596
3.182:587
3.182:588
3.182:592
3.182:592
3.182:587
3.182:587
3.183:593
3.183:584
3.183:570
3.186:560
3.186:564
3.186:564
3.186:565
3.186:563
3.186:545
3.188:530
3.188:529
3.188:537
3.188:547
3.190:553
3.206:557
3.206:553
3.207:548
3.207:546
3.207:540
3.207:532
3.211:528
3.211:520
3.211:511
3.211:514
3.211:529
3.212:545
3.212:555
3.212:542
3.212:532
3.212:537
3.215:547
3.215:555
3.216:552
3.216:549
3.216:557
3.217:552
3.217:544
3.217:531
3.217:519
3.218:513
3.218:506
3.218:496
3.218:494
3.218:493
3.234:493
3.235:492
3.235:482
3.235:481
3.235:488
3.239:494
3.239:496
3.239:493
3.239:494
3.239:479
3.239:470
3.239:459
3.239:459
3.239:466
3.239:475
3.243:486
3.243:489
3.243:492
3.245:479
3.245:470
3.245:466
3.245:462
3.245:455
3.245:455
3.246:453
3.248:443
3.248:437
3.248:433
3.249:431
3.249:428
3.263:432
3.263:427
3.268:416
3.268:408
3.268:422
3.269:436
3.269:445
3.269:462
3.269:467
3.269:462
3.269:450
3.269:437
3.271:422
3.271:419
3.272:422
3.272:425
3.272:424
3.272:432
3.272:437
3.273:435
3.273:437
3.276:436
3.276:441
3.276:443
3.276:439
3.276:437
3.276:454
3.278:454
3.278:441
3.278:433
3.292:433
3.297:427
3.297:427
3.298:427
3.298:430
3.298:431
3.298:430
3.298:429
3.298:434
3.298:447
3.299:456
3.301:466
3.301:465
3.301:481
3.301:487
3.302:501
3.302:499
3.302:498
3.302:489
3.302:474
3.305:462
3.305:453
3.305:451
3.305:438
3.306:423
3.306:419
3.306:424
3.306:432
3.306:437
3.306:458
3.325:476
3.325:478
3.325:477
3.326:490
3.326:517
3.326:537
3.326:543
3.326:543
3.330:542
3.330:540
3.330:541
3.330:547
3.331:558
3.331:557
3.331:549
3.331:536
3.331:514
3.333:517
3.333:535
3.335:545
3.335:542
3.335:546
3.336:558
3.336:567
3.336:571
3.336:567
3.336:564
3.337:571
3.337:581
3.338:596
3.354:596
3.354:615
3.354:625
3.354:623
3.355:616
3.355:627
3.355:636
3.358:646
3.358:647
3.358:638
3.359:639
3.359:638
3.359:635
3.359:634
3.359:636
3.359:639
3.363:631
3.363:623
3.363:612
3.363:608
3.363:603
3.364:595
3.364:580
3.364:567
3.365:570
3.365:586
3.366:599
3.366:613
3.366:621
3.368:634
3.382:645
3.382:653
3.382:667
3.387:676
3.387:678
3.387:669
3.388:658
3.388:646
3.388:639
3.388:632
3.388:625
3.389:625
3.389:621
3.391:614
3.391:604
3.391:597
3.391:586
3.392:588
3.392:578
3.392:573
3.392:571
3.392:565
3.392:564
3.395:570
3.395:589
3.395:598
3.395:590
3.395:593
3.396:587
3.397:582
3.411:582
3.411:578
3.411:570
3.415:563
3.415:558
3.415:576
3.416:596
3.416:599
3.416:607
3.416:613
3.416:613
3.416:614
3.419:606
3.419:590
3.419:577
3.419:572
3.419:567
3.419:566
3.419:558
3.419:556
3.419:554
3.420:559
3.423:562
3.423:565
3.423:564
3.424:568
3.424:566
3.424:562
3.424:564
3.424:564
3.443:562
3.444:558
3.444:560
3.444:561
3.444:567
3.444:572
3.445:571
3.445:574
3.445:574
3.448:573
3.448:569
3.448:559
3.448:543
3.448:532
3.448:525
3.448:523
3.448:530
3.448:543
3.452:556
3.452:573
3.452:578
3.452:581
3.453:576
3.453:573
3.453:564
3.453:558
3.453:552
3.453:550
3.456:550
3.456:547
3.472:547
3.472:544
3.472:548
3.473:546
3.473:545
3.473:540
3.473:534
3.473:532
3.477:525
3.477:527
3.477:537
3.478:545
3.478:549
3.478:553
3.478:552
3.478:549
3.479:544
3.479:536
3.481:536
3.481:546
3.482:549
3.482:549
3.482:536
3.482:522
3.483:514
3.483:509
3.483:515
3.485:516
3.485:504
3.485:500
3.501:514
3.501:528
3.501:534
3.501:543
3.501:545
3.506:533
3.506:522
3.506:522
3.506:529
3.506:542
3.506:545
3.506:552
3.506:544
3.508:521
3.509:525
3.509:520
3.510:517
3.510:520
3.510:524
3.510:526
3.510:539
3.511:546
3.511:546
3.511:544
3.514:537
3.514:540
3.514:536
3.514:541
3.514:546
3.515:551
3.530:551
3.530:552
3.530:548
3.531:548
3.534:537
3.534:534
3.534:523
3.534:508
3.535:490
3.535:488
3.535:501
3.535:519
3.535:523
3.538:526
3.538:538
3.538:548
3.539:557
3.539:565
3.539:566
3.539:553
3.539:535
3.540:515
3.540:497
3.542:483
3.542:483
3.542:496
3.542:507
3.543:519
3.543:529
3.543:529
3.558:529
3.563:531
3.564:529
3.564:521
3.564:525
3.564:526
3.564:529
3.564:532
3.564:537
3.564:538
3.567:530
3.567:517
3.567:513
3.567:511
3.568:511
3.568:510
3.568:508
3.568:511
3.568:517
3.569:525
3.571:525
3.571:528
3.571:535
3.571:530
3.572:531
3.572:528
3.572:513
3.572:509
3.572:512
3.575:514
3.592:514
3.592:513
3.592:511
3.592:519
3.593:522
3.593:514
3.593:509
3.593:507
3.593:507
3.596:511
3.596:509
3.596:506
3.596:505
3.596:507
3.596:511
3.598:520
3.598:533
3.598:533
3.598:523
3.600:519
3.600:515
3.600:503
3.600:486
3.600:471
3.601:452
3.601:436
3.601:442
3.601:447
3.603:447
3.603:442
3.619:445
3.619:454
3.620:459
3.620:465
3.620:477
3.620:491
3.624:493
3.624:488
3.624:484
3.624:501
3.625:521
3.625:528
3.625:515
3.625:495
3.625:500
3.626:506
3.628:510
3.628:511
3.629:520
3.630:519
3.630:505
3.630:493
3.630:489
3.631:486
3.631:491
3.632:493
3.632:494
3.632:493
3.632:495
3.632:512
3.648:512
3.648:530
3.648:541
3.648:546
3.649:549
3.653:551
3.653:548
3.653:543
3.653:545
3.654:561
3.654:575
3.654:587
3.654:584
3.654:586
3.655:583
3.657:577
3.658:577
3.658:576
3.658:579
3.658:575
3.658:572
3.658:570
3.659:567
3.659:564
3.661:558
3.661:555
3.661:544
3.661:546
3.661:551
3.662:558
3.677:553
3.677:542
3.681:527
3.682:519
3.682:514
3.682:519
3.682:534
3.682:546
3.683:559
3.683:572
3.683:579
3.683:570
3.685:567
3.685:567
3.685:569
3.686:577
3.686:568
3.686:560
3.686:548
3.686:539
3.686:536
3.690:539
3.690:545
3.690:547
3.690:539
3.690:536
3.690:544
3.690:545
3.690:544
3.690:538
3.705:538
3.710:539
3.710:533
3.710:535
3.710:541
3.711:539
3.711:540
3.711:534
3.711:533
3.711:532
3.712:540
3.714:540
3.714:544
3.714:558
3.714:566
3.715:564
3.715:558
3.715:557
3.715:550
3.715:549
3.718:551
3.718:551
3.718:547
3.718:537
3.719:531
3.719:536
3.719:545
3.719:547
3.719:555
3.719:547
3.739:536
3.739:539
3.739:550
3.739:552
3.739:554
3.739:558
3.739:575
3.740:587
3.742:597
3.742:618
3.743:617
3.743:595
3.743:558
3.743:546
3.743:550
3.744:564
3.744:602
3.746:628
3.746:628
3.748:605
3.748:593
3.748:597
3.748:608
3.749:611
3.749:580
3.749:542
3.749:522
3.751:518
3.751:490
3.751:447
3.767:447
3.767:404
3.767:370
3.768:313
3.768:255
3.769:195
3.769:104
3.772:31
3.772:17
3.772:17
3.772:18
3.772:18
3.772:18
3.773:18
3.773:19
3.773:19
3.773:19
3.773:20
3.773:20
3.776:20
3.776:20
3.776:20
3.776:19
3.776:19
3.776:19
3.777:18
3.777:17
3.777:17
3.777:46
3.777:171
3.796:295
3.796:437
3.796:563
3.800:657
3.800:729
3.800:770
3.800:794
3.801:779
3.801:759
3.801:740
3.801:717
3.801:698
3.802:687
3.804:680
3.804:670
3.804:672
3.805:665
3.805:643
3.805:628
3.805:634
3.805:636
3.806:636
3.806:639
3.808:639
3.808:630
3.808:631
3.809:634
3.809:630
3.809:621
3.809:620
3.824:620
3.824:629
3.824:639
3.829:642
3.829:641
3.829:643
3.829:646
3.830:671
3.830:684
3.830:679
3.830:679
3.831:676
3.833:667
3.833:657
3.833:661
3.833:671
3.834:664
3.834:650
3.834:643
3.834:636
3.834:634
3.834:627
3.837:617
3.837:617
3.837:619
3.837:614
3.837:602
3.838:580
3.838:585
3.838:610
3.856:632
3.858:651
3.858:648
3.858:624
3.858:616
3.858:629
3.858:631
3.859:619
3.859:606
3.862:614
3.863:634
3.863:623
3.863:624
3.863:629
3.864:629
3.864:624
3.864:617
3.864:602
3.865:590
3.865:584
3.865:584
3.865:596
3.865:588
3.866:591
3.866:591
3.866:572
3.866:568
3.866:575
3.869:581
3.869:580
3.886:580
3.886:581
3.886:577
3.887:570
3.887:561
3.887:552
3.887:552
3.887:546
3.890:538
3.890:540
3.890:538
3.890:536
3.890:545
3.891:548
3.891:557
3.891:556
3.891:552
3.891:542
3.894:539
3.894:553
3.894:556
3.894:560
3.894:561
3.895:576
3.895:585
3.895:580
3.895:572
3.898:573
3.898:568
3.898:559
3.914:556
3.914:563
3.914:563
3.915:554
3.915:531
3.919:514
3.919:503
3.919:507
3.919:520
3.919:516
3.919:507
3.919:496
3.920:477
3.920:479
3.923:486
3.923:495
3.923:492
3.923:478
3.924:457
3.924:462
3.924:470
3.924:454
3.924:449
3.924:448
3.927:453
3.928:464
3.928:478
3.928:475
3.928:469
3.928:467
3.943:467
3.943:465
3.943:466
3.943:463
3.948:473
3.948:488
3.948:487
3.948:481
3.949:470
3.949:462
3.949:467
3.949:474
3.949:470
3.952:465
3.952:464
3.952:468
3.952:457
3.952:448
3.952:446
3.953:440
3.953:431
3.953:419
3.953:416
3.956:420
3.956:436
3.956:448
3.956:446
3.957:437
3.957:429
3.957:423
3.972:420
3.976:414
3.976:402
3.976:403
3.977:410
3.977:419
3.977:418
3.977:417
3.977:422
3.978:433
3.980:432
3.980:427
3.980:431
3.980:443
3.981:445
3.981:444
3.981:445
3.981:439
3.981:430
3.982:422
3.985:427
3.985:442
3.985:452
3.985:462
3.986:465
3.986:456
3.986:447
3.986:450
3.986:454
3.988:461
4.005:461
4.005:446
4.005:425
4.005:425
4.006:442
4.006:452
4.006:458
4.006:476
4.007:484
4.009:482
4.009:477
4.009:474
4.009:474
4.009:470
4.009:474
4.009:470
4.010:475
4.010:483
4.010:498
4.013:510
4.013:525
4.013:532
4.013:530
4.013:536
4.013:536
4.013:541
4.013:541
4.013:534
4.017:532
4.017:529
4.033:542
4.033:562
4.034:573
4.034:578
4.034:592
4.034:601
4.038:604
4.038:599
4.038:591
4.038:578
4.039:575
4.039:582
4.039:588
4.039:597
4.039:605
4.040:617
4.042:620
4.042:620
4.042:614
4.042:605
4.042:600
4.043:606
4.043:609
4.043:603
4.043:605
4.045:603
4.045:603
4.047:601
4.047:603
4.047:599
4.062:599
4.063:599
4.063:605
4.063:615
4.063:628
4.066:639
4.066:649
4.066:641
4.066:635
4.066:630
4.068:625
4.068:625
4.068:623
4.068:627
4.068:615
4.071:608
4.071:620
4.071:630
4.071:629
4.072:627
4.072:617
4.072:608
4.072:602
4.072:595
4.075:604
4.075:607
4.075:615
4.075:620
4.076:631
4.076:635
4.091:637
4.091:629
4.096:608
4.096:589
4.096:574
4.096:577
4.096:577
4.098:575
4.098:580
4.098:579
4.098:573
4.098:581
4.099:582
4.099:579
4.099:584
4.100:600
4.100:619
4.100:626
4.100:626
4.100:616
4.101:609
4.103:596
4.104:587
4.104:586
4.104:577
4.104:578
4.104:583
4.105:589
4.105:584
4.105:569
4.119:569
4.124:568
4.124:571
4.124:574
4.124:575
4.125:583
4.125:593
4.125:597
4.125:587
4.125:576
4.126:565
4.128:561
4.128:557
4.128:562
4.129:570
4.129:566
4.129:566
4.130:564
4.130:569
4.130:570
4.132:571
4.132:560
4.132:559
4.132:562
4.133:558
4.133:564
4.133:572
4.133:576
4.133:572
4.134:568
4.152:563
4.153:561
4.153:552
4.153:546
4.153:541
4.153:530
4.154:530
4.157:531
4.157:533
4.157:531
4.157:536
4.158:542
4.158:550
4.158:559
4.158:556
4.158:556
4.159:551
4.161:547
4.161:543
4.161:533
4.161:532
4.162:530
4.162:524
4.162:530
4.163:525
4.163:509
4.163:498
4.164:494
4.164:496
4.164:503
4.181:503
4.181:510
4.181:512
4.182:530
4.182:527
4.182:522
4.182:524
4.185:524
4.185:531
4.186:537
4.186:540
4.186:539
4.186:551
4.186:551
4.186:544
4.187:539
4.189:534
4.189:521
4.189:507
4.189:494
4.190:475
4.190:470
4.190:468
4.190:468
4.190:474
4.191:485
4.192:500
4.193:513
4.193:521
4.193:509
4.209:494
4.209:498
4.210:527
4.213:533
4.213:522
4.214:525
4.214:539
4.214:540
4.214:532
4.214:522
4.215:518
4.215:508
4.215:507
4.218:510
4.218:513
4.218:512
4.218:513
4.219:513
4.219:511
4.219:511
4.219:508
4.219:510
4.222:515
4.222:522
4.222:514
4.222:506
4.223:501
4.223:491
4.223:487
4.223:483
4.238:483
4.238:485
4.243:493
4.243:490
4.243:494
4.243:507
4.243:513
4.243:524
4.243:530
4.243:531
4.243:529
4.243:525
4.246:524
4.246:530
4.246:532
4.246:525
4.246:524
4.246:520
4.246:511
4.248:504
4.248:500
4.248:504
4.250:513
4.251:510
4.251:506
4.251:506
4.251:505
4.251:511
4.252:520
4.252:525
4.270:527
4.271:526
4.271:526
4.271:534
4.271:531
4.271:520
4.272:515
4.272:514
4.272:507
4.275:503
4.275:504
4.275:511
4.275:522
4.276:525
4.276:531
4.276:537
4.276:536
4.276:539
4.278:543
4.278:535
4.280:521
4.280:498
4.280:491
4.280:499
4.280:502
4.280:499
4.281:496
4.281:489
4.283:484
4.283:481
4.299:481
4.299:469
4.300:465
4.300:462
4.300:457
4.300:464
4.300:494
4.300:522
4.304:537
4.304:545
4.304:549
4.304:552
4.304:544
4.305:523
4.305:507
4.305:504
4.306:494
4.308:485
4.308:486
4.309:479
4.309:479
4.309:480
4.309:473
4.309:468
4.309:468
4.309:470
4.309:467
4.311:465
4.313:473
4.313:486
4.328:486
4.329:490
4.329:497
4.329:493
4.330:483
4.332:480
4.332:477
4.332:479
4.333:484
4.333:479
4.333:476
4.333:470
4.333:478
4.334:481
4.337:484
4.337:487
4.337:481
4.337:477
4.337:473
4.337:478
4.338:474
4.338:471
4.338:466
4.338:467
4.341:473
4.341:470
4.341:466
4.341:457
4.342:449
4.342:436
4.356:436
4.356:435
4.356:436
4.356:441
4.362:445
4.362:447
4.362:451
4.362:455
4.362:461
4.362:461
4.362:474
4.363:478
4.363:487
4.365:489
4.365:490
4.365:491
4.365:488
4.366:479
4.366:476
4.366:471
4.366:462
4.366:453
4.366:443
4.369:451
4.369:456
4.370:464
4.370:474
4.370:496
4.370:514
4.370:531
4.385:545
4.390:554
4.390:560
4.390:556
4.390:557
4.390:552
4.390:541
4.391:530
4.391:513
4.391:500
4.394:484
4.394:481
4.395:489
4.396:501
4.396:508
4.396:510
4.396:512
4.397:522
4.397:528
4.397:525
4.398:529
4.398:530
4.398:526
4.398:518
4.399:516
4.399:512
4.399:509
4.399:512
4.400:513
4.401:502
4.419:502
4.419:490
4.419:489
4.419:489
4.419:501
4.419:507
4.419:505
4.419:504
4.420:500
4.423:504
4.423:504
4.423:527
4.423:535
4.424:540
4.424:539
4.424:537
4.424:543
4.424:545
4.425:544
4.427:538
4.427:530
4.428:513
4.428:504
4.428:506
4.428:508
4.429:507
4.429:509
4.429:507
4.430:505
4.430:509
4.447:511
4.447:515
4.447:517
4.447:520
4.448:520
4.448:514
4.451:509
4.451:507
4.451:509
4.451:511
4.452:508
4.452:496
4.452:491
4.452:472
4.452:466
4.453:464
4.455:469
4.455:490
4.455:510
4.455:515
4.455:523
4.456:538
4.456:550
4.456:558
4.456:557
4.459:553
4.459:539
4.460:524
4.460:513
4.460:505
4.476:505
4.476:503
4.476:500
4.476:500
4.476:498
4.480:499
4.480:495
4.480:488
4.480:484
4.481:481
4.481:496
4.481:509
4.481:522
4.481:528
4.481:541
4.484:550
4.484:568
4.484:563
4.484:563
4.485:545
4.485:520
4.485:490
4.485:452
4.485:418
4.488:390
4.488:370
4.488:341
4.489:322
4.489:297
4.489:259
4.504:219
4.504:177
4.509:143
4.509:88
4.509:30
4.509:17
4.509:17
4.509:17
4.509:18
4.510:18
4.510:19
4.510:19
4.510:19
4.510:19
4.513:20
4.513:20
4.513:20
4.513:20
4.513:20
4.513:19
4.513:19
4.514:19
4.514:18
4.514:18
4.514:17
4.514:33
4.516:152
4.516:259
4.516:372
4.516:513
4.532:513
4.537:622
4.538:692
4.538:733
4.538:762
4.538:766
4.539:744
4.539:717
4.539:706
4.539:683
4.539:650
4.541:631
4.541:617
4.541:627
4.541:635
4.542:630
4.542:615
4.542:612
4.542:605
4.542:600
4.545:598
4.546:601
4.546:599
4.546:590
4.546:588
4.546:590
4.546:594
4.546:597
4.548:598
4.548:593
4.566:598
4.566:605
4.566:619
4.566:630
4.566:631
4.567:631
4.567:626
4.570:613
4.570:600
4.570:601
4.570:584
4.571:574
4.571:562
4.571:546
4.571:551
4.571:554
4.572:562
4.574:567
4.574:575
4.574:573
4.574:575
4.575:583
4.575:592
4.575:601
4.575:589
4.575:578
4.578:575
4.578:576
4.579:572
4.579:570
4.594:570
4.595:552
4.595:553
4.595:553
4.595:545
4.595:537
4.595:543
4.599:554
4.599:553
4.599:557
4.599:557
4.599:557
4.599:546
4.599:530
4.599:530
4.600:543
4.603:550
4.603:551
4.603:542
4.603:530
4.604:533
4.604:531
4.604:524
4.604:525
4.604:520
4.605:511
4.606:499
4.607:495
4.607:498
4.607:497
4.622:494
4.623:481
4.623:483
4.628:491
4.628:497
4.629:511
4.629:520
4.629:521
4.629:529
4.629:530
4.630:530
4.630:525
4.630:513
4.631:515
4.632:514
4.632:514
4.632:511
4.632:509
4.632:498
4.632:495
4.632:489
4.632:484
4.636:484
4.636:482
4.636:488
4.636:489
4.637:488
4.637:487
4.637:486
4.637:483
4.651:483
4.651:478
4.656:477
4.656:469
4.656:465
4.656:466
4.657:459
4.657:453
4.657:452
4.657:450
4.657:444
4.658:441
4.660:438
4.660:445
4.660:455
4.660:465
4.661:474
4.661:461
4.661:447
4.661:443
4.661:440
4.661:447
4.664:453
4.664:446
4.664:437
4.665:432
4.665:422
4.665:422
4.665:426
4.665:431
4.684:428
4.684:428
4.684:432
4.685:436
4.685:430
4.685:430
4.685:436
4.685:427
4.686:417
4.689:407
4.689:405
4.689:407
4.690:406
4.690:396
4.690:389
4.690:390
4.690:389
4.691:390
4.693:400
4.693:393
4.693:377
4.693:369
4.693:365
4.693:379
4.694:385
4.694:384
4.694:398
4.695:389
4.697:392
4.697:398
4.713:398
4.713:398
4.713:396
4.713:390
4.713:383
4.714:385
4.714:379
4.714:367
4.718:360
4.718:356
4.718:359
4.718:370
4.719:380
4.719:392
4.719:389
4.719:367
4.719:366
4.722:370
4.722:370
4.722:376
4.722:374
4.723:366
4.723:363
4.723:363
4.723:366
4.723:362
4.723:355
4.726:354
4.726:360
4.726:357
4.741:364
4.741:370
4.742:378
4.742:385
4.742:385
4.745:384
4.745:379
4.747:389
4.747:405
4.747:416
4.747:416
4.747:418
4.747:424
4.747:433
4.750:446
4.750:443
4.750:446
4.750:446
4.751:452
4.751:462
4.751:470
4.751:478
4.752:484
4.752:493
4.754:500
4.754:499
4.755:495
4.755:505
4.755:508
4.756:519
4.770:519
4.770:523
4.770:533
4.771:533
4.775:534
4.775:535
4.775:519
4.775:515
4.776:509
4.776:513
4.776:514
4.776:525
4.776:533
4.778:536
4.778:538
4.778:545
4.778:543
4.780:542
4.780:546
4.780:549
4.780:554
4.780:560
4.780:559
4.783:554
4.783:552
4.783:548
4.783:554
4.784:556
4.784:550
4.784:570
4.799:562
4.803:522
4.804:520
4.804:542
4.804:561
4.804:565
4.804:567
4.804:575
4.805:579
4.805:580
4.808:575
4.808:569
4.808:571
4.808:573
4.808:568
4.808:559
4.809:558
4.809:561
4.809:552
4.809:554
4.811:552
4.811:557
4.811:556
4.812:552
4.812:553
4.812:558
4.812:559
4.812:555
4.812:555
4.816:553
4.832:553
4.832:551
4.832:539
4.832:534
4.832:533
4.833:534
4.833:530
4.833:527
4.833:526
4.836:526
4.836:528
4.836:530
4.836:541
4.836:541
4.836:532
4.838:521
4.838:515
4.838:513
4.838:512
4.840:519
4.840:519
4.840:523
4.840:529
4.841:535
4.841:547
4.841:553
4.841:542
4.841:537
4.844:532
4.844:522
4.861:516
4.861:511
4.861:506
4.862:506
4.862:508
4.862:516
4.865:515
4.865:517
4.865:515
4.865:520
4.866:520
4.866:526
4.866:513
4.866:510
4.867:514
4.867:515
4.868:508
4.868:503
4.868:491
4.869:475
4.869:473
4.869:477
4.869:491
4.869:491
4.870:491
4.873:496
4.873:493
4.873:493
4.873:502
4.874:505
4.889:505
4.889:500
4.889:492
4.889:480
4.889:483
4.894:490
4.894:492
4.894:489
4.895:487
4.895:488
4.896:493
4.896:488
4.896:478
4.896:476
4.896:477
4.898:482
4.898:494
4.898:504
4.898:507
4.898:507
4.898:505
4.898:503
4.899:505
4.899:501
4.901:496
4.901:491
4.901:492
4.902:483
4.902:475
4.902:468
4.918:458
4.918:459
4.922:461
4.922:465
4.922:462
4.923:462
4.923:463
4.923:461
4.923:464
4.923:470
4.923:467
4.926:469
4.926:482
4.926:491
4.926:501
4.926:484
4.926:469
4.929:452
4.929:445
4.929:436
4.930:434
4.930:445
4.930:451
4.930:466
4.930:472
4.930:461
4.931:449
4.931:448
4.931:453
4.931:449
4.946:449
4.951:449
4.951:445
4.951:447
4.951:454
4.952:468
4.952:484
4.952:480
4.952:477
4.952:468
4.953:463
4.955:464
4.955:466
4.955:454
4.955:445
4.955:446
4.956:454
4.956:454
4.956:467
4.956:475
4.959:470
4.959:458
4.959:456
4.959:464
4.959:473
4.959:464
4.959:448
4.959:454
4.959:465
4.960:466
4.979:462
4.979:452
4.979:466
4.979:473
4.980:456
4.980:454
4.980:462
4.984:463
4.984:460
4.984:453
4.984:443
4.985:438
4.985:444
4.985:450
4.985:458
4.985:461
4.986:467
4.988:470
4.988:463
4.988:454
4.989:460
4.989:453
4.989:456
4.989:458
4.989:457
4.990:455
4.992:454
4.992:452
4.992:462
4.992:471
5.008:471
5.008:470
5.008:473
5.008:473
5.009:475
5.009:479
5.012:476
5.012:472
5.012:469
5.013:460
5.013:454
5.013:451
5.013:456
5.014:450
5.014:440
5.014:437
5.016:444
5.016:450
5.016:455
5.016:454
5.016:452
5.018:455
5.018:461
5.018:466
5.018:473
5.018:472
5.020:466
5.020:457
5.021:452
5.021:453
5.036:457
5.036:460
5.036:459
5.041:449
5.041:443
5.041:436
5.041:432
5.042:435
5.042:430
5.042:427
5.042:434
5.042:435
5.043:440
5.045:453
5.046:461
5.046:469
5.046:468
5.046:462
5.047:457
5.047:436
5.047:414
5.047:410
5.049:417
5.049:416
5.049:418
5.050:429
5.050:430
5.050:432
5.050:431
5.050:428
5.065:428
5.065:432
5.069:438
5.069:446
5.070:452
5.070:445
5.070:444
5.070:441
5.070:429
5.071:415
5.071:409
5.071:405
5.074:401
5.074:396
5.074:381
5.074:375
5.075:371
5.075:379
5.075:395
5.075:406
5.075:400
5.078:400
5.078:405
5.079:412
5.079:424
5.079:437
5.079:433
5.079:418
5.080:412
5.080:413
5.098:406
5.098:399
5.098:395
5.099:392
5.099:391
5.099:399
5.099:405
5.099:409
5.099:414
5.102:416
5.102:430
5.102:431
5.102:426
5.103:424
5.103:435
5.103:432
5.103:438
5.103:438
5.107:426
5.107:437
5.107:442
5.107:439
5.107:439
5.108:441
5.108:442
5.108:444
5.108:446
5.108:441
5.110:440
5.110:445
5.126:445
5.127:453
5.127:457
5.127:447
5.128:445
5.128:465
5.128:477
5.129:483
5.131:479
5.131:474
5.131:464
5.131:444
5.131:432
5.131:428
5.131:425
5.131:431
5.131:449
5.135:457
5.135:459
5.135:456
5.135:456
5.135:461
5.136:469
5.136:480
5.136:481
5.136:478
5.136:479
5.139:476
5.139:467
5.139:470
5.155:476
5.156:474
5.156:470
5.156:470
5.156:473
5.159:479
5.159:484
5.160:480
5.160:473
5.160:466
5.160:460
5.161:461
5.161:467
5.161:477
5.164:479
5.164:485
5.164:476
5.164:468
5.165:455
5.165:444
5.165:444
5.165:458
5.165:454
5.165:446
5.168:445
5.168:443
5.168:435
5.168:428
5.168:441
5.168:465
5.184:465
5.184:491
5.184:500
5.184:494
5.188:477
5.188:451
5.188:445
5.189:446
5.189:459
5.189:468
5.189:479
5.189:473
5.189:466
5.192:465
5.192:458
5.192:458
5.192:450
5.193:457
5.193:471
5.193:477
5.194:463
5.194:454
5.196:456
5.196:455
5.196:443
5.196:445
5.196:455
5.198:457
5.198:463
5.198:455
5.213:450
5.217:452
5.217:460
5.217:469
5.217:474
5.217:470
5.217:462
5.218:472
5.218:472
5.218:476
5.221:482
5.221:470
5.221:452
5.221:434
5.221:427
5.221:408
5.223:383
5.223:361
5.223:351
5.223:333
5.225:305
5.225:267
5.226:223
5.226:178
5.226:140
5.226:101
5.227:53
5.227:17
5.227:17
5.227:17
5.246:17
5.246:17
5.247:17
5.247:18
5.247:17
5.247:18
5.247:19
5.247:18
5.247:19
5.248:19
5.248:19
5.248:19
5.249:19
5.249:19
5.249:18
5.250:18
5.250:17
5.250:17
5.250:16
5.250:50
5.250:132
5.251:214
5.251:303
5.254:423
5.254:512
5.254:572
5.254:621
5.255:661
5.255:665
5.255:663
5.274:657
5.274:659
5.274:652
5.274:637
5.274:630
5.275:616
5.278:607
5.279:598
5.279:598
5.279:582
5.279:566
5.279:554
5.279:545
5.280:531
5.280:516
5.280:516
5.282:527
5.282:548
5.282:577
5.282:602
5.283:585
5.283:564
5.283:570
5.283:561
5.283:532
5.287:520
5.287:521
5.287:513
5.287:507
5.287:513
5.302:513
5.303:517
5.303:507
5.303:498
5.303:491
5.307:494
5.308:515
5.308:519
5.308:526
5.308:528
5.308:550
5.308:563
5.308:564
5.309:554
5.309:546
5.310:532
5.311:528
5.311:523
5.311:515
5.311:507
5.312:505
5.312:514
5.312:514
5.312:508
5.315:504
5.315:503
5.315:503
5.315:500
5.316:510
5.316:507
5.331:525
5.332:521
5.336:499
5.336:485
5.336:478
5.336:471
5.337:468
5.337:476
5.337:482
5.337:479
5.337:466
5.340:467
5.340:471
5.340:481
5.340:485
5.341:489
5.341:477
5.341:464
5.341:475
5.341:486
5.341:477
5.344:464
5.345:445
5.345:466
5.345:501
5.345:496
5.345:492
5.345:491
5.345:468
5.346:442
5.359:442
5.364:427
5.365:421
5.365:420
5.365:446
5.365:460
5.365:466
5.365:462
5.365:428
5.365:426
5.369:446
5.369:456
5.369:443
5.369:481
5.369:536
5.370:565
5.370:537
5.370:474
5.370:430
5.370:424
5.373:417
5.373:429
5.373:432
5.373:435
5.374:460
5.374:420
5.374:399
5.374:384
5.374:403
5.375:417
5.393:387
5.393:361
5.393:371
5.394:427
5.394:481
5.394:509
5.394:440
5.397:424
5.397:444
5.398:438
5.398:414
5.398:404
5.398:414
5.398:455
5.399:484
5.399:385
5.399:330
5.401:387
5.401:397
5.401:396
5.401:423
5.402:429
5.402:405
5.402:381
5.402:380
5.402:392
5.405:399
5.405:400
5.405:385
5.405:335
5.421:335
5.421:347
5.421:335
5.421:324
5.422:321
5.422:336
5.426:348
5.426:358
5.426:382
5.426:401
5.426:412
5.426:414
5.427:390
5.428:378
5.428:377
5.428:379
5.430:378
5.430:344
5.430:326
5.430:370
5.431:386
5.431:362
5.431:297
5.431:267
5.431:311
5.434:357
5.434:383
5.434:367
5.434:347
5.435:328
5.450:324
5.450:317
5.450:301
5.455:306
5.455:315
5.455:320
5.455:308
5.456:311
5.456:336
5.456:356
5.456:379
5.456:397
5.457:389
5.458:370
5.458:339
5.458:316
5.458:313
5.459:317
5.459:329
5.459:311
5.459:336
5.459:412
5.463:420
5.463:379
5.463:347
5.463:336
5.464:345
5.464:368
5.464:396
5.464:418
5.479:418
5.479:408
5.483:379
5.483:363
5.483:367
5.483:393
5.484:408
5.484:405
5.484:402
5.484:418
5.484:423
5.484:426
5.488:441
5.488:444
5.488:437
5.488:440
5.488:457
5.489:464
5.489:467
5.489:460
5.489:453
5.491:460
5.491:449
5.492:451
5.492:458
5.492:465
5.492:472
5.492:479
5.492:500
5.493:505
5.511:504
5.511:496
5.512:513
5.512:524
5.512:509
5.512:509
5.512:525
5.512:548
5.513:548
5.515:523
5.515:526
5.516:519
5.516:487
5.516:503
5.516:530
5.516:546
5.516:555
5.516:544
5.519:530
5.519:525
5.520:524
5.520:524
5.520:545
5.520:549
5.521:550
5.521:556
5.521:568
5.521:564
5.524:551
5.524:532
5.540:532
5.540:511
5.541:501
5.541:494
5.541:499
5.541:516
5.541:537
5.541:516
5.545:522
5.545:570
5.545:586
5.545:546
5.546:533
5.546:540
5.546:543
5.546:530
5.546:517
5.548:528
5.548:518
5.548:488
5.548:476
5.549:478
5.549:478
5.549:495
5.549:557
5.549:587
5.549:591
5.552:548
5.552:505
5.552:530
5.569:532
5.569:529
5.569:534
5.569:546
5.569:556
5.573:543
5.573:524
5.573:525
5.574:551
5.574:553
5.574:533
5.574:494
5.574:490
5.575:492
5.577:496
5.578:500
5.578:513
5.578:518
5.578:506
5.578:503
5.578:525
5.578:533
5.579:526
5.579:542
5.581:561
5.581:545
5.581:517
5.581:499
5.582:492
5.582:490
5.598:490
5.598:487
5.598:493
5.598:511
5.601:513
5.602:500
5.602:467
5.602:454
5.602:452
5.602:443
5.602:435
5.603:435
5.603:457
5.606:493
5.606:530
5.606:544
5.606:537
5.606:520
5.607:511
5.607:487
5.608:494
5.608:492
5.608:476
5.610:459
5.610:442
5.611:443
5.611:466
5.611:491
5.611:492
5.611:474
5.631:459
5.631:449
5.631:453
5.631:473
5.632:497
5.632:502
5.632:505
5.632:505
5.632:492
5.633:472
5.635:489
5.635:512
5.635:520
5.635:520
5.636:502
5.636:482
5.636:458
5.636:453
5.636:451
5.637:451
5.638:459
5.638:473
5.639:475
5.639:460
5.639:455
5.639:458
5.639:463
5.640:477
5.640:487
5.643:483
5.659:483
5.659:484
5.659:467
5.659:456
5.660:458
5.660:482
5.660:486
5.661:449
5.661:435
5.663:451
5.663:436
5.663:422
5.663:445
5.664:474
5.664:478
5.664:483
5.664:485
5.664:483
5.664:475
5.666:472
5.666:472
5.668:467
5.668:443
5.668:460
5.668:465
5.668:434
5.669:423
5.669:416
5.671:428
5.671:451
5.688:481
5.688:475
5.688:491
5.688:513
5.689:505
5.689:463
5.692:437
5.692:440
5.692:444
5.692:454
5.692:459
5.693:465
5.693:457
5.693:445
5.693:443
5.696:437
5.696:431
5.696:421
5.696:429
5.697:456
5.697:476
5.697:477
5.697:465
5.697:448
5.697:444
5.700:467
5.700:460
5.700:449
5.700:454
5.701:466
5.716:466
5.716:474
5.716:472
5.716:454
5.716:443
5.721:437
5.721:425
5.721:431
5.721:435
5.722:454
5.722:475
5.722:475
5.722:454
5.722:433
5.723:422
5.725:435
5.725:456
5.725:455
5.725:464
5.725:492
5.726:492
5.726:479
5.726:473
5.726:477
5.729:471
5.729:475
5.729:487
5.729:501
5.729:476
5.729:454
5.744:438
5.745:450
5.749:448
5.749:447
5.749:428
5.750:428
5.750:438
5.750:444
5.750:452
5.750:470
5.751:479
5.753:457
5.753:440
5.753:443
5.753:450
5.753:454
5.753:450
5.753:452
5.755:447
5.755:455
5.755:477
5.758:485
5.758:481
5.758:479
5.758:470
5.758:468
5.759:470
5.759:474
5.759:480
5.759:476
5.773:476
5.778:468
5.778:461
5.779:464
5.779:479
5.779:485
5.780:477
5.780:462
5.780:452
5.780:455
5.782:449
5.782:436
5.782:436
5.782:439
5.783:437
5.783:433
5.783:425
5.783:443
5.783:483
5.783:503
5.786:490
5.786:469
5.786:465
5.786:477
5.786:471
5.786:459
5.788:453
5.788:433
5.788:445
5.788:465
5.806:438
5.806:434
5.806:440
5.807:449
5.807:459
5.807:466
5.808:467
5.810:470
5.811:475
5.811:477
5.811:462
5.811:464
5.811:466
5.813:459
5.813:443
5.813:429
5.813:428
5.815:436
5.815:439
5.815:434
5.815:429
5.816:419
5.816:416
5.816:417
5.816:414
5.816:428
5.819:438
5.819:428
5.819:416
5.819:428
5.835:428
5.835:436
5.836:429
5.836:428
5.836:437
5.836:453
5.839:450
5.839:434
5.839:423
5.839:408
5.840:393
5.840:387
5.840:381
5.840:405
5.840:420
5.841:426
5.844:431
5.844:427
5.845:430
5.845:435
5.845:429
5.845:431
5.846:450
5.846:448
5.846:441
5.848:453
5.848:452
5.848:433
5.848:435
5.848:432
5.863:430
5.863:419
5.864:420
5.868:444
5.868:482
5.868:512
5.869:517
5.869:508
5.869:506
5.869:497
5.869:479
5.869:467
5.869:453
5.872:463
5.872:495
5.872:486
5.872:478
5.872:511
5.873:530
5.873:512
5.873:482
5.873:490
5.876:495
5.876:493
5.876:493
5.878:500
5.878:512
5.878:500
5.878:488
5.878:486
5.892:486
5.892:490
5.897:486
5.897:484
5.897:482
5.898:492
5.898:491
5.898:486
5.898:501
5.898:503
5.899:482
5.899:474
5.901:472
5.901:473
5.901:456
5.901:454
5.901:470
5.902:485
5.902:480
5.902:474
5.902:517
5.905:522
5.905:514
5.905:497
5.905:482
5.906:479
5.906:469
5.906:467
5.906:467
5.906:469
5.925:462
5.925:496
5.925:530
5.926:514
5.926:487
5.926:479
5.926:477
5.926:478
5.927:477
5.929:478
5.929:488
5.929:500
5.929:507
5.930:503
5.930:500
5.930:491
5.930:484
5.930:480
5.934:493
5.934:517
5.934:524
5.934:499
5.935:476
5.935:462
5.935:454
5.935:460
5.935:478
5.936:519
5.937:523
5.938:513
5.954:513
5.954:508
5.954:509
5.954:501
5.954:481
5.955:473
5.955:466
5.955:473
5.958:477
5.958:486
5.958:497
5.958:496
5.958:486
5.958:470
5.958:497
5.959:527
5.959:528
5.962:524
5.962:503
5.962:488
5.962:478
5.963:476
5.963:461
5.963:443
5.963:420
5.963:407
5.964:387
5.966:370
5.966:352
5.966:336
5.982:290
5.982:212
5.983:154
5.983:106
5.983:65
5.987:18
5.987:17
5.987:17
5.987:17
5.987:17
5.987:18
5.987:18
5.988:18
5.988:18
5.988:19
5.988:19
5.988:19
5.991:19
5.991:19
5.991:19
5.991:19
5.991:19
5.991:18
5.991:18
5.991:17
5.992:17
5.992:67
5.992:159
5.995:243
5.995:377
6.011:377
6.011:501
6.011:608
6.011:680
6.015:713
6.015:719
6.015:700
6.015:669
6.016:638
6.016:615
6.016:598
6.016:580
6.016:583
6.019:593
6.019:593
6.019:590
6.020:578
6.020:570
6.020:573
6.020:590
6.020:602
6.020:598
6.020:592
6.023:574
6.023:587
6.023:597
6.024:592
6.024:573
6.024:556
6.024:545
6.044:553
6.045:560
6.045:572
6.045:585
6.045:585
6.045:587
6.046:576
6.046:568
6.046:552
6.046:546
6.048:566
6.048:607
6.048:637
6.048:624
6.049:614
6.049:595
6.049:572
6.049:555
6.049:548
6.052:544
6.052:537
6.052:522
6.052:514
6.053:531
6.053:552
6.053:592
6.053:614
6.053:621
6.053:607
6.056:600
6.073:600
6.073:586
6.073:568
6.073:566
6.073:558
6.074:554
6.074:551
6.074:552
6.074:548
6.077:543
6.078:543
6.078:541
6.078:536
6.079:525
6.079:514
6.079:513
6.079:507
6.079:500
6.079:500
6.081:504
6.081:507
6.081:509
6.081:518
6.082:531
6.082:534
6.082:531
6.083:525
6.083:523
6.085:521
6.085:526
6.101:556
6.101:571
6.101:556
6.102:527
6.102:493
6.102:486
6.106:493
6.106:483
6.106:486
6.106:479
6.107:477
6.107:491
6.107:504
6.107:516
6.108:518
6.109:517
6.110:515
6.110:528
6.110:529
6.110:511
6.111:513
6.111:499
6.111:482
6.111:468
6.111:461
6.113:445
6.113:435
6.114:442
6.114:443
6.114:458
6.129:458
6.129:492
6.130:502
6.130:494
6.130:495
6.134:494
6.134:499
6.134:502
6.134:494
6.135:471
6.135:461
6.135:464
6.135:450
6.135:427
6.136:433
6.138:445
6.138:434
6.138:420
6.139:426
6.139:441
6.139:443
6.139:442
6.139:446
6.139:452
6.142:464
6.142:477
6.142:480
6.143:480
6.143:468
6.143:461
6.158:461
6.158:460
6.163:456
6.163:458
6.163:467
6.163:484
6.163:488
6.163:481
6.164:474
6.164:461
6.164:447
6.167:436
6.167:432
6.168:456
6.168:487
6.168:506
6.168:479
6.168:461
6.169:457
6.169:425
6.169:400
6.171:398
6.171:414
6.171:422
6.171:418
6.172:413
6.172:403
6.172:398
6.172:391
6.172:410
6.186:410
6.192:434
6.192:432
6.192:426
6.193:416
6.193:416
6.193:425
6.193:432
6.194:436
6.194:454
6.195:454
6.195:424
6.195:390
6.195:371
6.196:384
6.196:414
6.196:409
6.196:397
6.196:384
6.196:373
6.200:379
6.200:387
6.200:395
6.200:403
6.200:424
6.200:428
6.201:410
6.201:395
6.201:397
6.204:405
6.220:427
6.220:463
6.220:459
6.220:435
6.220:415
6.221:401
6.221:391
6.224:393
6.224:397
6.224:404
6.224:422
6.225:421
6.225:428
6.225:449
6.225:453
6.225:458
6.226:460
6.228:452
6.228:462
6.228:466
6.229:456
6.229:455
6.229:466
6.229:468
6.229:486
6.230:503
6.232:504
6.232:496
6.232:482
6.232:479
6.249:479
6.249:480
6.249:488
6.249:504
6.249:520
6.250:516
6.253:518
6.253:514
6.253:510
6.253:524
6.254:555
6.254:579
6.254:574
6.254:561
6.254:556
6.255:566
6.257:565
6.257:548
6.257:551
6.257:552
6.258:549
6.258:570
6.258:590
6.258:584
6.259:580
6.261:574
6.261:565
6.261:561
6.261:557
6.261:555
6.276:552
6.278:557
6.278:561
6.282:563
6.282:568
6.282:569
6.282:561
6.283:555
6.283:563
6.283:603
6.283:602
6.283:576
6.284:558
6.286:548
6.286:534
6.286:553
6.286:568
6.286:565
6.287:581
6.287:599
6.287:591
6.287:578
6.289:562
6.290:546
6.290:541
6.290:556
6.290:563
6.290:541
6.291:528
6.291:532
6.306:532
6.306:540
6.310:542
6.310:535
6.310:531
6.310:534
6.311:539
6.311:558
6.311:587
6.311:573
6.311:557
6.311:552
6.314:551
6.314:571
6.314:576
6.314:563
6.315:551
6.315:527
6.315:510
6.315:516
6.316:523
6.318:520
6.318:512
6.318:526
6.318:553
6.318:567
6.318:569
6.319:565
6.319:554
6.319:537
6.338:523
6.338:509
6.338:518
6.339:534
6.339:530
6.339:525
6.339:536
6.339:536
6.339:526
6.343:522
6.344:511
6.344:504
6.344:495
6.344:503
6.344:529
6.345:568
6.345:577
6.345:559
6.347:535
6.348:523
6.348:522
6.348:513
6.348:520
6.348:513
6.348:507
6.348:515
6.349:516
6.349:512
6.350:512
6.351:506
6.367:506
6.368:498
6.368:503
6.368:544
6.368:574
6.368:561
6.368:532
6.368:498
6.371:483
6.371:485
6.371:505
6.371:531
6.372:542
6.372:531
6.372:515
6.372:500
6.372:487
6.376:482
6.376:473
6.378:465
6.378:475
6.378:508
6.378:539
6.378:549
6.379:517
6.379:500
6.379:518
6.379:515
6.379:498
6.379:492
6.396:511
6.396:516
6.396:505
6.396:508
6.400:524
6.400:526
6.400:521
6.400:503
6.401:491
6.401:490
6.401:489
6.401:491
6.401:498
6.402:493
6.404:487
6.404:480
6.404:490
6.404:500
6.405:498
6.405:505
6.405:516
6.405:517
6.405:506
6.408:497
6.408:492
6.408:492
6.409:493
6.409:490
6.411:481
6.411:481
6.424:481
6.424:495
6.424:503
6.425:504
6.428:495
6.429:488
6.429:491
6.429:491
6.429:487
6.429:491
6.430:492
6.430:492
6.430:499
6.433:497
6.433:500
6.433:500
6.433:489
6.434:476
6.434:469
6.434:468
6.434:468
6.434:465
6.435:464
6.436:472
6.436:480
6.436:481
6.438:492
6.438:506
6.438:505
6.438:494
6.458:495
6.458:501
6.458:504
6.458:495
6.459:493
6.459:486
6.459:485
6.460:485
6.460:489
6.460:491
6.461:486
6.461:481
6.462:476
6.462:479
6.462:478
6.462:486
6.462:482
6.463:480
6.463:488
6.466:491
6.466:492
6.466:489
6.466:493
6.467:509
6.467:511
6.467:501
6.467:491
6.467:482
6.467:487
6.469:490
6.486:490
6.486:486
6.486:491
6.486:486
6.486:474
6.486:463
6.486:458
6.486:461
6.488:471
6.490:481
6.490:482
6.490:498
6.490:499
6.491:497
6.491:490
6.491:485
6.491:499
6.491:508
6.491:503
6.494:491
6.494:484
6.494:474
6.494:458
6.495:457
6.495:470
6.495:479
6.495:492
6.495:498
6.498:498
6.498:501
6.515:504
6.515:520
6.515:511
6.515:518
6.516:523
6.516:511
6.519:492
6.519:482
6.519:472
6.519:481
6.520:494
6.520:496
6.520:501
6.520:492
6.520:485
6.523:479
6.523:479
6.523:480
6.523:482
6.524:486
6.524:495
6.524:513
6.524:526
6.524:520
6.525:512
6.527:507
6.528:502
6.528:500
6.528:488
6.528:485
6.542:485
6.544:491
6.544:492
6.544:492
6.544:491
6.548:487
6.548:482
6.548:480
6.548:479
6.549:481
6.549:478
6.549:476
6.549:490
6.550:516
6.552:525
6.552:519
6.552:510
6.552:490
6.553:487
6.553:481
6.553:475
6.553:503
6.553:515
6.554:501
6.556:482
6.556:476
6.556:483
6.556:477
6.557:480
6.557:489
6.572:497
6.572:495
6.576:494
6.576:498
6.576:504
6.578:502
6.578:496
6.578:490
6.578:489
6.578:475
6.578:456
6.581:446
6.581:467
6.581:474
6.581:476
6.582:478
6.582:473
6.582:469
6.582:469
6.582:474
6.583:474
6.585:484
6.585:490
6.585:496
6.585:500
6.586:488
6.586:502
6.586:522
6.586:508
6.586:488
6.601:488
6.605:476
6.605:464
6.605:447
6.606:446
6.606:465
6.606:475
6.606:476
6.606:479
6.606:489
6.609:481
6.609:453
6.610:453
6.610:444
6.610:436
6.610:446
6.611:452
6.611:439
6.611:430
6.611:428
6.613:434
6.613:450
6.613:466
6.613:472
6.614:457
6.614:443
6.614:432
6.614:420
6.614:415
6.617:428
6.633:457
6.633:470
6.633:467
6.634:465
6.634:471
6.634:472
6.634:474
6.638:472
6.638:470
6.638:476
6.638:489
6.638:475
6.639:455
6.639:455
6.639:454
6.639:454
6.639:459
6.642:486
6.642:507
6.642:498
6.642:478
6.642:477
6.643:496
6.643:517
6.643:533
6.643:542
6.646:536
6.646:524
6.646:516
6.646:519
6.662:519
6.662:514
6.662:509
6.662:505
6.663:495
6.663:490
6.667:503
6.667:508
6.667:499
6.667:483
6.667:478
6.668:482
6.668:482
6.668:479
6.668:497
6.668:511
6.671:520
6.671:528
6.671:535
6.671:529
6.672:525
6.672:524
6.672:523
6.672:530
6.672:524
6.675:513
6.675:498
6.675:481
6.675:488
6.675:511
6.690:522
6.690:526
6.690:522
6.695:495
6.695:494
6.695:526
6.695:535
6.696:534
6.696:531
6.696:534
6.696:536
6.696:532
6.697:522
6.699:515
6.699:512
6.699:502
6.699:500
6.699:502
6.699:503
6.699:500
6.699:498
6.699:500
6.703:506
6.703:507
6.703:514
6.703:520
6.704:521
6.704:519
6.704:508
6.704:481
6.718:481
6.718:488
6.724:501
6.724:502
6.724:496
6.724:484
6.725:491
6.725:508
6.725:525
6.725:528
6.725:528
6.726:527
6.728:535
6.728:546
6.728:532
6.728:515
6.729:505
6.729:516
6.729:528
6.729:546
6.729:549
6.732:543
6.732:536
6.732:523
6.732:510
6.733:517
6.733:527
6.733:540
6.733:528
6.733:509
6.752:511
6.752:531
6.752:549
6.752:566
6.752:584
6.754:586
6.754:568
6.754:540
6.756:518
6.756:495
6.756:479
6.756:467
6.756:432
6.758:407
6.758:381
6.758:346
6.758:303
6.758:252
6.760:199
6.760:159
6.760:119
6.760:75
6.760:37
6.761:17
6.761:17
6.761:17
6.761:18
6.761:18
6.761:18
6.764:18
6.781:18
6.781:19
6.781:19
6.781:19
6.782:19
6.782:19
6.782:19
6.782:19
6.782:19
6.782:19
6.785:18
6.785:18
6.785:17
6.785:17
6.786:71
6.786:206
6.786:312
6.786:430
6.786:530
6.787:632
6.789:706
6.789:735
6.789:740
6.790:726
6.790:698
6.790:680
6.790:658
6.790:635
6.791:623
6.791:614
6.809:605
6.809:594
6.810:581
6.810:573
6.814:582
6.814:606
6.814:627
6.814:641
6.815:635
6.815:643
6.815:637
6.815:623
6.815:624
6.816:621
6.818:617
6.818:613
6.818:616
6.818:628
6.818:672
6.819:671
6.819:649
6.819:626
6.819:621
6.822:626
6.822:633
6.822:632
6.822:634
6.823:645
6.823:646
6.823:646
6.838:646
6.838:638
6.838:627
6.843:619
6.844:611
6.844:594
6.844:579
6.844:599
6.845:620
6.845:608
6.845:604
6.845:614
6.845:613
6.847:608
6.847:603
6.847:601
6.848:591
6.848:580
6.848:581
6.848:578
6.848:572
6.849:582
6.849:608
6.851:608
6.851:603
6.851:593
6.851:587
6.851:578
6.852:574
6.852:565
6.871:556
6.871:559
6.871:563
6.871:573
6.872:580
6.872:585
6.872:582
6.872:579
6.872:577
6.873:569
6.875:563
6.877:558
6.877:559
6.877:556
6.877:554
6.877:553
6.877:556
6.877:549
6.878:537
6.879:538
6.879:540
6.879:519
6.879:517
6.879:519
6.879:509
6.879:525
6.880:563
6.880:578
6.880:581
6.883:564
6.899:564
6.899:554
6.900:550
6.900:539
6.900:526
6.900:517
6.900:506
6.901:511
6.901:510
6.904:496
6.904:497
6.904:505
6.904:513
6.905:520
6.905:529
6.905:528
6.905:551
6.905:562
6.908:554
6.908:538
6.908:526
6.909:519
6.909:513
6.909:512
6.909:523
6.910:522
6.910:505
6.910:502
6.912:495
6.912:473
6.928:472
6.928:478
6.929:482
6.929:484
6.929:491
6.929:495
6.933:498
6.933:514
6.933:515
6.933:510
6.934:499
6.934:501
6.934:490
6.934:481
6.934:473
6.937:467
6.937:463
6.937:460
6.938:470
6.938:480
6.938:488
6.938:474
6.938:473
6.939:476
6.939:465
6.941:451
6.941:443
6.941:435
6.941:450
6.942:479
6.956:479
6.956:493
6.956:498
6.956:491
6.956:480
6.961:468
6.962:465
6.962:454
6.962:433
6.962:424
6.962:442
6.963:442
6.963:430
6.963:427
6.966:428
6.966:425
6.966:420
6.966:418
6.967:412
6.967:407
6.967:416
6.967:438
6.967:452
6.967:457
6.969:436
6.969:424
6.970:434
6.970:431
6.970:426
6.970:426
6.985:414
6.985:402
6.990:391
6.990:382
6.990:384
6.990:387
6.990:395
6.990:414
6.990:426
6.990:427
6.990:419
6.994:433
6.994:437
6.994:425
6.994:420
6.995:418
6.995:421
6.995:417
6.995:405
6.995:422
6.996:432
6.998:436
6.998:439
6.998:435
6.999:434
6.999:430
6.999:433
6.999:447
6.999:448
6.999:475
7.014:475
7.019:485
7.019:484
7.019:484
7.019:480
7.019:477
7.019:485
7.019:488
7.020:479
7.020:472
7.023:474
7.023:480
7.023:484
7.023:485
7.024:497
7.024:496
7.024:493
7.024:508
7.024:523
7.024:562
7.026:593
7.027:581
7.027:556
7.028:570
7.028:586
7.028:579
7.028:579
7.028:590
7.028:594
7.031:589
7.047:569
7.047:555
7.047:555
7.048:561
7.048:566
7.048:572
7.048:577
7.051:578
7.051:580
7.051:581
7.051:580
7.052:585
7.052:594
7.052:595
7.052:611
7.053:630
7.053:633
7.055:630
7.055:615
7.055:589
7.055:571
7.055:574
7.056:578
7.056:596
7.056:606
7.056:608
7.059:602
7.060:591
7.060:599
7.060:608
7.075:608
7.076:594
7.076:595
7.076:610
7.076:610
7.077:609
7.080:610
7.080:602
7.080:595
7.080:587
7.081:584
7.081:588
7.081:587
7.081:589
7.081:583
7.082:573
7.084:582
7.084:596
7.084:588
7.084:576
7.085:581
7.085:574
7.085:589
7.085:611
7.085:604
7.088:591
7.088:581
7.088:571
7.089:575
7.089:575
7.104:548
7.104:534
7.104:530
7.109:527
7.110:543
7.110:574
7.110:571
7.110:570
7.111:574
7.111:591
7.111:584
7.111:588
7.113:597
7.113:602
7.113:589
7.113:581
7.114:578
7.114:581
7.114:582
7.114:569
7.114:558
7.115:551
7.117:556
7.117:548
7.118:545
7.118:545
7.118:553
7.118:553
7.118:549
7.118:544
7.132:544
7.132:538
7.138:520
7.138:521
7.138:533
7.138:543
7.139:556
7.139:594
7.139:612
7.139:598
7.139:566
7.139:529
7.141:526
7.141:553
7.142:555
7.142:533
7.142:519
7.142:528
7.143:529
7.143:534
7.143:547
7.146:564
7.146:563
7.146:557
7.146:552
7.146:544
7.146:547
7.146:545
7.146:541
7.146:538
7.166:532
7.166:525
7.166:524
7.166:517
7.167:510
7.167:510
7.167:515
7.167:526
7.170:521
7.170:519
7.170:523
7.170:522
7.171:505
7.171:499
7.171:517
7.171:547
7.171:569
7.172:565
7.174:566
7.174:552
7.174:528
7.174:508
7.175:506
7.175:512
7.175:498
7.177:487
7.177:487
7.177:503
7.178:498
7.178:497
7.194:497
7.194:508
7.194:527
7.194:536
7.194:539
7.196:542
7.196:532
7.196:542
7.198:544
7.198:538
7.199:530
7.199:522
7.199:525
7.199:526
7.199:521
7.199:505
7.199:498
7.203:499
7.203:506
7.203:514
7.203:517
7.204:509
7.204:512
7.204:517
7.204:511
7.204:512
7.205:512
7.206:517
7.207:523
7.207:537
7.223:537
7.223:523
7.223:515
7.223:510
7.227:503
7.228:506
7.228:505
7.228:503
7.228:500
7.228:492
7.228:503
7.228:505
7.228:497
7.228:515
7.232:540
7.232:552
7.232:544
7.232:525
7.233:502
7.233:497
7.233:500
7.233:492
7.233:482
7.236:501
7.236:530
7.236:526
7.236:508
7.237:493
7.237:488
7.237:485
7.252:485
7.252:492
7.252:496
7.256:511
7.256:527
7.256:519
7.256:514
7.256:525
7.256:525
7.258:517
7.258:518
7.258:507
7.258:496
7.260:509
7.260:538
7.260:546
7.261:527
7.261:521
7.261:520
7.262:510
7.262:482
7.262:498
7.262:502
7.264:501
7.264:492
7.264:499
7.264:519
7.264:525
7.265:526
7.265:520
7.285:517
7.285:511
7.285:504
7.285:501
7.285:503
7.286:506
7.286:505
7.286:507
7.286:504
7.286:500
7.289:493
7.289:490
7.289:486
7.289:492
7.290:499
7.290:502
7.290:517
7.290:523
7.290:517
7.292:510
7.293:515
7.293:505
7.293:493
7.293:483
7.293:473
7.294:466
7.294:459
7.294:455
7.294:463
7.297:465
7.314:465
7.314:466
7.314:477
7.314:483
7.314:502
7.315:518
7.315:542
7.315:548
7.315:529
7.317:515
7.318:515
7.318:519
7.318:512
7.318:500
7.318:491
7.318:486
7.319:490
7.319:485
7.322:487
7.322:493
7.322:498
7.322:509
7.323:530
7.323:535
7.323:527
7.323:515
7.323:497
7.323:489
7.326:480
7.327:477
7.341:506
7.342:548
7.342:558
7.342:524
7.342:490
7.343:478
7.345:482
7.346:479
7.346:479
7.346:487
7.346:497
7.346:490
7.346:484
7.346:484
7.346:492
7.350:504
7.350:525
7.350:529
7.350:524
7.351:520
7.351:516
7.351:515
7.351:513
7.351:510
7.352:510
7.354:507
7.354:500
7.354:494
7.354:492
7.355:485
7.371:485
7.371:468
7.371:474
7.371:484
7.371:483
7.375:484
7.376:488
7.376:496
7.376:512
7.376:524
7.376:526
7.376:535
7.376:546
7.376:544
7.379:538
7.379:525
7.379:524
7.379:517
7.380:501
7.380:486
7.380:476
7.380:470
7.381:473
7.381:474
7.383:469
7.383:471
7.383:485
7.383:503
7.384:514
7.384:518
7.399:520
7.399:518
7.403:518
7.403:516
7.403:512
7.403:517
7.404:507
7.404:493
7.404:495
7.404:496
7.404:477
7.408:460
7.408:464
7.408:479
7.408:491
7.409:495
7.409:493
7.410:507
7.410:522
7.410:538
7.410:550
7.411:558
7.412:556
7.412:544
7.412:539
7.412:540
7.412:527
7.412:523
7.413:516
7.413:506
7.428:506
7.432:488
7.432:486
7.432:496
7.433:499
7.433:490
7.433:457
7.433:482
7.433:495
7.433:476
7.436:463
7.436:443
7.436:456
7.436:459
7.436:444
7.436:447
7.438:442
7.438:470
7.438:494
7.438:487
7.440:471
7.440:476
7.440:473
7.440:470
7.441:469
7.441:455
7.441:452
7.441:461
7.442:472
7.444:482
7.460:481
7.460:476
7.461:478
7.461:485
7.461:477
7.461:453
7.461:444
7.465:437
7.465:436
7.465:439
7.465:441
7.466:440
7.466:444
7.466:455
7.466:467
7.466:477
7.467:475
7.469:490
7.469:495
7.469:516
7.469:525
7.469:527
7.469:537
7.469:553
7.469:560
7.470:557
7.473:549
7.473:537
7.473:530
7.473:528
7.489:528
7.490:544
7.490:552
7.490:535
7.490:517
7.490:500
7.493:478
7.493:473
7.493:518
7.493:550
7.494:551
7.494:546
7.494:530
7.494:527
7.494:527
7.495:528
7.498:523
7.498:532
7.498:533
7.498:529
7.498:507
7.499:495
7.499:491
7.499:502
7.499:514
7.502:522
7.502:527
7.502:529
7.502:530
7.503:519
7.518:527
7.518:532
7.518:528
7.522:531
7.522:526
7.522:519
7.522:517
7.523:507
7.523:493
7.523:502
7.523:503
7.523:494
7.526:503
7.527:520
7.527:525
7.527:519
7.527:511
7.527:505
7.528:508
7.528:533
7.528:548
7.528:549
7.530:541
7.530:541
7.530:534
7.530:531
7.531:537
7.531:553
7.531:558
7.531:537
7.546:537
7.546:524
7.551:521
7.551:520
7.551:531
7.551:555
7.552:559
7.552:545
7.552:514
7.552:496
7.552:495
7.553:509
7.555:520
7.555:522
7.555:536
7.555:547
7.556:546
7.556:536
7.556:522
7.556:504
7.556:485
7.558:481
7.559:487
7.559:508
7.559:515
7.559:526
7.560:542
7.560:545
7.560:549
7.560:552
7.579:542
7.579:542
7.579:557
7.579:567
7.580:572
7.580:565
7.580:552
7.580:540
7.584:528
7.584:520
7.584:493
7.584:485
7.585:468
7.585:451
7.585:441
7.585:433
7.585:407
7.585:367
7.588:331
7.588:298
7.588:263
7.589:226
7.589:200
7.589:143
7.589:76
7.589:40
7.590:17
7.590:17
7.592:17
7.592:18
7.608:18
7.608:18
7.608:18
7.609:19
7.609:19
7.609:19
7.609:19
7.609:19
7.609:20
7.609:19
7.611:19
7.612:19
7.612:19
7.612:19
7.612:18
7.613:17
7.613:17
7.613:126
7.613:247
7.613:363
7.613:482
7.616:568
7.616:620
7.616:664
7.616:699
7.616:719
7.616:716
7.616:697
7.616:669
7.618:660
7.636:654
7.637:633
7.637:619
7.637:631
7.641:641
7.641:648
7.641:638
7.642:627
7.642:623
7.643:629
7.643:625
7.643:612
7.643:606
7.643:604
7.645:609
7.645:607
7.645:614
7.645:612
7.646:619
7.646:631
7.646:635
7.646:625
7.646:612
7.649:617
7.649:620
7.649:623
7.649:628
7.649:638
7.650:644
7.650:641
7.665:641
7.665:633
7.665:626
7.670:621
7.670:603
7.670:591
7.670:596
7.671:607
7.671:609
7.671:613
7.671:618
7.671:619
7.671:619
7.674:618
7.674:614
7.675:598
7.675:610
7.675:620
7.675:613
7.675:605
7.675:622
7.676:616
7.678:590
7.678:579
7.678:565
7.678:548
7.678:537
7.679:551
7.679:584
7.679:611
7.698:612
7.698:593
7.698:574
7.698:567
7.698:584
7.699:595
7.699:611
7.699:615
7.699:611
7.699:605
7.702:594
7.702:573
7.702:555
7.702:545
7.702:562
7.703:596
7.703:589
7.703:554
7.703:539
7.706:568
7.706:612
7.706:615
7.706:596
7.706:577
7.708:566
7.708:560
7.708:550
7.708:540
7.708:547
7.710:543
7.726:543
7.726:531
7.726:541
7.726:559
7.728:555
7.728:529
7.728:518
7.728:511
7.728:508
7.731:499
7.731:503
7.731:512
7.731:526
7.732:540
7.732:547
7.732:547
7.732:540
7.732:535
7.735:533
7.735:525
7.735:511
7.735:516
7.736:519
7.736:519
7.736:513
7.736:507
7.736:506
7.736:502
7.739:501
7.739:491
7.756:484
7.756:490
7.756:506
7.757:518
7.757:518
7.757:523
7.759:527
7.759:527
7.759:521
7.759:511
7.760:507
7.760:503
7.760:496
7.760:482
7.760:480
7.764:483
7.764:490
7.764:484
7.764:477
7.765:471
7.765:467
7.765:467
7.765:476
7.765:483
7.766:474
7.767:478
7.768:484
7.768:482
7.768:477
7.768:479
7.784:479
7.784:476
7.784:466
7.784:451
7.785:431
7.788:435
7.788:429
7.788:436
7.788:468
7.788:487
7.788:480
7.789:471
7.789:454
7.789:438
7.792:440
7.793:436
7.793:422
7.793:415
7.793:414
7.793:439
7.794:452
7.794:441
7.794:430
7.794:419
7.797:408
7.797:404
7.797:404
7.797:418
7.797:419
7.798:402
7.812:406
7.812:415
7.816:427
7.816:453
7.816:470
7.818:450
7.818:434
7.818:437
7.818:440
7.818:449
7.818:450
7.821:442
7.821:438
7.821:427
7.821:416
7.822:408
7.822:390
7.822:406
7.822:447
7.822:462
7.823:460
7.825:458
7.825:439
7.825:424
7.825:432
7.826:444
7.826:453
7.826:458
7.826:466
7.826:472
7.841:472
7.846:462
7.846:452
7.846:450
7.846:450
7.846:451
7.847:463
7.847:479
7.847:498
7.847:506
7.850:489
7.850:462
7.850:452
7.850:447
7.851:464
7.851:500
7.851:526
7.851:538
7.851:542
7.852:544
7.854:522
7.854:511
7.854:531
7.854:548
7.855:541
7.855:560
7.855:568
7.855:560
7.855:568
7.858:580
7.874:570
7.874:553
7.874:538
7.875:562
7.875:586
7.875:585
7.875:581
7.878:591
7.878:599
7.878:592
7.878:585
7.878:583
7.879:604
7.879:631
7.879:647
7.879:633
7.883:615
7.883:603
7.883:597
7.883:601
7.884:597
7.884:594
7.884:598
7.884:601
7.884:607
7.884:609
7.886:596
7.886:593
7.886:595
7.886:595
7.903:595
7.903:598
7.903:605
7.903:622
7.904:623
7.904:622
7.907:613
7.908:603
7.908:598
7.908:591
7.909:589
7.909:584
7.909:583
7.909:585
7.909:583
7.909:581
7.911:583
7.911:585
7.911:601
7.912:617
7.912:619
7.912:611
7.912:608
7.912:595
7.912:588
7.915:575
7.915:574
7.915:571
7.915:556
7.916:543
7.932:554
7.932:565
7.932:570
7.936:573
7.936:578
7.936:560
7.936:588
7.937:601
7.937:594
7.937:606
7.937:597
7.937:576
7.940:553
7.940:568
7.940:595
7.940:582
7.941:563
7.941:561
7.941:564
7.941:543
7.941:551
7.941:556
7.944:537
7.944:531
7.944:531
7.944:532
7.945:569
7.945:589
7.945:582
7.945:570
7.959:570
7.959:571
7.965:564
7.965:568
7.965:581
7.965:581
7.966:567
7.966:554
7.966:544
7.966:535
7.966:525
7.969:536
7.969:535
7.969:532
7.969:533
7.970:533
7.970:538
7.970:553
7.970:562
7.970:552
7.971:529
7.973:530
7.973:545
7.973:563
7.973:580
7.974:586
7.974:562
7.974:539
7.974:512
7.974:504
7.993:511
7.993:518
7.993:515
7.993:522
7.993:508
7.993:494
7.993:519
7.994:558
7.997:569
7.998:551
7.998:540
7.998:532
7.998:558
7.998:574
7.999:568
7.999:548
7.999:532
7.999:527
8.001:523
8.001:515
8.001:508
8.001:504
8.002:488
8.002:480
8.002:488
8.002:501
8.002:525
8.005:554
8.005:550
8.005:522
8.021:522
8.021:505
8.021:520
8.022:539
8.022:532
8.022:539
8.022:542
8.025:540
8.026:534
8.026:532
8.026:528
8.026:518
8.026:511
8.026:505
8.026:500
8.026:515
8.028:521
8.030:524
8.030:526
8.030:524
8.030:519
8.031:516
8.031:509
8.031:509
8.031:499
8.031:497
8.032:506
8.034:518
8.034:526
8.034:533
8.050:553
8.050:537
8.050:512
8.050:480
8.055:467
8.055:467
8.055:484
8.055:503
8.056:514
8.056:527
8.056:532
8.056:511
8.056:485
8.057:494
8.058:503
8.058:500
8.059:508
8.059:519
8.059:523
8.059:520
8.059:511
8.059:491
8.060:476
8.063:467
8.063:467
8.063:477
8.063:501
8.063:526
8.063:533
8.063:521
8.078:521
8.078:504
8.078:498
8.083:500
8.083:501
8.083:529
8.083:548
8.084:559
8.084:535
8.084:513
8.084:494
8.084:487
8.085:482
8.088:492
8.088:479
8.088:453
8.088:469
8.089:507
8.089:525
8.089:528
8.089:524
8.089:531
8.091:530
8.091:520
8.091:517
8.091:520
8.091:524
8.093:532
8.093:547
8.093:539
8.112:522
8.112:515
8.112:505
8.112:496
8.112:490
8.112:484
8.112:486
8.112:495
8.112:494
8.112:493
8.116:495
8.116:520
8.116:528
8.116:522
8.117:520
8.117:522
8.117:530
8.117:533
8.117:526
8.120:511
8.120:506
8.120:501
8.120:502
8.121:506
8.121:497
8.121:492
8.121:500
8.121:513
8.122:510
8.124:506
8.140:506
8.140:510
8.140:510
8.140:513
8.140:516
8.141:518
8.142:513
8.142:515
8.142:512
8.145:506
8.145:508
8.145:514
8.145:512
8.146:513
8.146:512
8.146:502
8.146:513
8.146:521
8.149:504
8.149:496
8.149:504
8.150:509
8.150:514
8.150:531
8.150:529
8.150:520
8.151:515
8.151:515
8.152:507
8.153:497
8.169:493
8.169:491
8.169:489
8.169:506
8.170:512
8.170:506
8.173:511
8.173:505
8.173:500
8.173:507
8.174:518
8.174:519
8.174:520
8.174:547
8.175:544
8.178:523
8.178:513
8.178:515
8.178:507
8.178:501
8.179:507
8.179:519
8.179:527
8.179:514
8.179:536
8.181:562
8.181:536
8.182:512
8.182:496
8.182:491
8.197:491
8.198:494
8.198:502
8.198:505
8.198:509
8.202:524
8.202:534
8.202:542
8.202:532
8.203:497
8.203:490
8.203:492
8.203:517
8.203:534
8.206:523
8.206:507
8.206:493
8.206:484
8.206:484
8.206:491
8.206:496
8.208:499
8.208:495
8.208:497
8.210:507
8.210:509
8.210:509
8.210:504
8.211:490
8.211:476
8.226:479
8.231:486
8.231:508
8.231:526
8.231:513
8.232:501
8.232:492
8.232:490
8.232:489
8.232:482
8.232:472
8.235:474
8.235:479
8.235:506
8.236:527
8.236:540
8.236:544
8.236:530
8.236:512
8.237:510
8.237:531
8.238:527
8.238:513
8.238:501
8.238:479
8.238:463
8.238:459
8.238:467
8.238:489
8.238:498
8.254:498
8.259:480
8.259:458
8.259:453
8.259:454
8.259:457
8.259:461
8.259:464
8.260:466
8.260:458
8.263:458
8.263:458
8.263:455
8.263:459
8.264:457
8.264:449
8.264:444
8.264:452
8.264:460
8.265:465
8.266:474
8.266:467
8.266:481
8.268:483
8.268:483
8.268:478
8.268:465
8.268:475
8.268:503
8.271:523
8.288:514
8.288:494
8.288:478
8.288:459
8.288:450
8.288:436
8.288:436
8.292:452
8.293:446
8.293:435
8.293:465
8.293:492
8.293:494
8.293:508
8.294:515
8.294:521
8.296:527
8.296:525
8.296:534
8.296:553
8.296:561
8.296:573
8.296:557
8.298:531
8.298:528
8.298:521
8.300:510
8.300:508
8.300:508
8.301:515
8.316:515
8.316:519
8.316:522
8.316:522
8.316:529
8.316:533
8.321:538
8.321:541
8.321:538
8.321:536
8.322:530
8.322:520
8.322:511
8.322:505
8.322:509
8.323:510
8.325:511
8.325:512
8.325:522
8.326:524
8.326:520
8.326:526
8.326:516
8.326:518
8.326:530
8.329:526
8.329:527
8.329:536
8.329:538
8.329:535
8.345:534
8.345:533
8.346:544
8.349:542
8.349:519
8.349:508
8.349:511
8.350:523
8.350:532
8.350:532
8.350:530
8.350:518
8.354:510
8.354:507
8.354:509
8.354:515
8.355:523
8.355:520
8.355:523
8.355:558
8.355:585
8.356:587
8.358:559
8.359:546
8.359:529
8.359:519
8.359:504
8.359:497
8.360:505
8.360:511
8.374:511
8.374:529
8.378:525
8.378:519
8.378:518
8.379:523
8.379:523
8.379:518
8.379:523
8.379:543
8.380:545
8.382:542
8.382:539
8.382:532
8.382:524
8.383:517
8.383:508
8.383:500
8.383:490
8.383:481
8.383:487
8.386:515
8.386:540
8.386:558
8.386:559
8.386:564
8.386:577
8.388:572
8.388:563
8.388:560
8.406:561
8.407:541
8.407:513
8.407:483
8.407:463
8.407:430
8.408:397
8.408:377
8.411:349
8.411:328
8.411:319
8.411:321
8.412:248
8.412:167
8.412:122
8.412:99
8.412:63
8.412:18
8.413:17
8.415:17
8.415:18
8.415:18
8.415:18
8.415:18
8.416:18
8.416:19
8.416:19
8.416:19
8.416:19
8.416:19
8.435:19
8.435:19
8.435:19
8.435:19
8.435:18
8.435:18
8.436:17
8.436:17
8.436:102
8.439:208
8.439:315
8.439:428
8.439:547
8.440:640
8.440:712
8.440:750
8.440:754
8.441:739
8.441:717
8.443:682
8.443:655
8.443:636
8.443:631
8.444:623
8.444:623
8.444:611
8.444:599
8.444:592
8.448:587
8.448:595
8.463:612
8.463:627
8.464:652
8.464:653
8.468:638
8.468:635
8.469:631
8.469:611
8.469:583
8.469:586
8.469:605
8.469:605
8.470:636
8.470:654
8.472:645
8.472:617
8.473:607
8.473:613
8.473:617
8.473:623
8.473:635
8.474:643
8.474:644
8.476:634
8.476:613
8.476:602
8.476:607
8.477:614
8.477:617
8.477:609
8.491:609
8.491:606
8.492:596
8.497:586
8.497:584
8.497:598
8.498:602
8.498:616
8.498:634
8.498:636
8.498:615
8.499:609
8.499:602
8.501:589
8.501:584
8.501:608
8.501:611
8.502:600
8.502:586
8.502:573
8.502:559
8.502:554
8.505:551
8.505:555
8.505:545
8.505:536
8.506:556
8.506:559
8.506:561
8.506:567
8.525:574
8.526:562
8.526:553
8.526:548
8.526:558
8.527:573
8.527:590
8.527:578
8.527:557
8.527:541
8.529:525
8.529:517
8.529:522
8.529:538
8.529:538
8.530:542
8.530:547
8.530:550
8.530:529
8.534:532
8.534:556
8.534:564
8.534:565
8.534:551
8.534:554
8.535:572
8.535:576
8.535:564
8.535:549
8.536:534
8.554:534
8.554:510
8.554:491
8.554:490
8.554:503
8.555:519
8.555:520
8.555:515
8.555:510
8.558:508
8.559:505
8.559:509
8.559:514
8.559:526
8.559:531
8.559:527
8.560:516
8.560:506
8.562:496
8.562:488
8.562:491
8.562:488
8.563:485
8.563:480
8.563:483
8.563:481
8.563:475
8.564:480
8.566:501
8.566:507
8.582:512
8.582:511
8.583:496
8.583:492
8.583:482
8.587:479
8.587:481
8.588:482
8.588:471
8.588:455
8.588:460
8.588:456
8.588:454
8.589:451
8.589:450
8.591:446
8.592:450
8.592:451
8.592:452
8.592:459
8.593:457
8.593:455
8.593:448
8.593:439
8.593:426
8.595:435
8.595:452
8.595:461
8.595:429
8.596:411
8.611:411
8.611:419
8.611:417
8.611:429
8.612:453
8.615:441
8.615:408
8.615:406
8.616:412
8.616:419
8.616:439
8.616:469
8.616:492
8.617:471
8.619:435
8.619:420
8.619:429
8.619:436
8.619:433
8.619:421
8.620:406
8.620:400
8.620:384
8.620:373
8.623:388
8.623:421
8.624:429
8.624:419
8.624:407
8.626:401
8.639:410
8.644:408
8.644:426
8.644:438
8.644:431
8.645:429
8.645:429
8.645:419
8.645:417
8.645:406
8.645:412
8.648:435
8.648:432
8.648:424
8.649:421
8.649:418
8.649:415
8.649:417
8.649:426
8.650:432
8.652:443
8.652:446
8.652:456
8.652:461
8.653:476
8.653:476
8.653:461
8.653:446
8.653:453
8.654:464
8.668:464
8.672:457
8.673:456
8.673:472
8.673:485
8.673:499
8.673:529
8.673:558
8.674:551
8.674:529
8.676:500
8.676:484
8.676:472
8.678:487
8.678:510
8.678:571
8.678:619
8.678:608
8.679:605
8.679:608
8.681:599
8.681:578
8.681:568
8.681:562
8.682:559
8.682:572
8.682:594
8.682:610
8.682:607
8.685:585
8.701:578
8.701:581
8.701:583
8.701:583
8.702:589
8.702:604
8.702:604
8.706:588
8.706:560
8.706:570
8.706:611
8.707:629
8.707:610
8.707:594
8.707:595
8.707:618
8.710:629
8.710:610
8.710:597
8.710:580
8.710:583
8.710:622
8.710:659
8.711:656
8.711:643
8.711:624
8.714:603
8.714:617
8.714:618
8.714:602
8.730:602
8.730:595
8.730:584
8.730:602
8.731:613
8.731:596
8.734:594
8.734:609
8.734:594
8.734:568
8.735:563
8.735:569
8.735:589
8.736:596
8.736:591
8.736:610
8.738:617
8.738:603
8.738:594
8.739:591
8.739:598
8.739:610
8.739:614
8.740:600
8.740:595
8.742:602
8.742:592
8.742:579
8.742:562
8.743:555
8.758:555
8.758:563
8.758:575
8.763:578
8.763:579
8.763:579
8.764:575
8.764:573
8.764:568
8.764:564
8.764:574
8.764:577
8.767:574
8.767:569
8.767:562
8.767:551
8.767:549
8.768:543
8.768:540
8.768:540
8.768:538
8.768:524
8.771:521
8.771:527
8.771:544
8.771:569
8.772:583
8.772:585
8.772:584
8.772:596
8.787:596
8.787:580
8.791:558
8.792:531
8.792:506
8.792:524
8.792:542
8.793:556
8.793:555
8.793:550
8.793:537
8.796:523
8.796:515
8.796:525
8.796:521
8.796:520
8.796:524
8.796:520
8.797:532
8.797:568
8.797:628
8.800:656
8.800:627
8.800:560
8.800:515
8.800:527
8.801:551
8.801:549
8.801:525
8.801:503
8.820:496
8.820:496
8.821:500
8.821:520
8.821:538
8.821:509
8.821:513
8.822:533
8.824:522
8.824:524
8.824:539
8.824:556
8.826:543
8.826:529
8.826:534
8.826:556
8.826:554
8.827:543
8.828:519
8.828:506
8.828:528
8.828:520
8.829:515
8.829:514
8.829:522
8.829:545
8.830:560
8.832:561
8.832:545
8.832:522
8.848:522
8.848:515
8.848:512
8.850:496
8.850:512
8.850:535
8.850:521
8.853:495
8.853:490
8.853:499
8.853:507
8.854:499
8.854:483
8.854:489
8.854:503
8.854:515
8.855:521
8.858:524
8.859:529
8.859:509
8.859:497
8.859:513
8.859:530
8.860:527
8.860:518
8.860:514
8.861:506
8.861:493
8.861:488
8.862:470
8.876:461
8.876:471
8.878:482
8.878:493
8.882:503
8.882:516
8.882:518
8.882:525
8.883:517
8.883:510
8.883:508
8.883:508
8.883:507
8.884:498
8.886:490
8.886:478
8.886:488
8.886:509
8.886:497
8.887:483
8.887:489
8.887:495
8.887:500
8.890:488
8.890:472
8.890:484
8.890:496
8.891:526
8.891:528
8.891:517
8.906:517
8.906:504
8.906:494
8.910:487
8.910:470
8.910:487
8.910:505
8.911:505
8.911:516
8.911:539
8.911:530
8.911:522
8.912:515
8.915:508
8.915:500
8.915:498
8.915:498
8.916:487
8.916:501
8.916:560
8.916:577
8.916:554
8.918:541
8.918:512
8.918:497
8.918:487
8.918:466
8.918:450
8.919:452
8.919:460
8.939:474
8.939:513
8.939:527
8.939:543
8.939:536
8.939:552
8.939:554
8.939:525
8.939:509
8.939:504
8.943:508
8.943:506
8.943:498
8.943:491
8.943:488
8.944:493
8.944:498
8.944:513
8.944:498
8.947:471
8.948:453
8.948:463
8.948:474
8.948:506
8.948:528
8.949:514
8.949:485
8.949:489
8.949:514
8.951:519
8.967:519
8.967:543
8.968:560
8.968:550
8.968:540
8.968:527
8.968:504
8.968:487
8.968:486
8.971:494
8.971:510
8.972:523
8.972:522
8.972:507
8.972:500
8.972:500
8.973:501
8.973:500
8.976:502
8.976:508
8.976:505
8.976:508
8.977:502
8.977:494
8.977:483
8.977:477
8.977:489
8.977:504
8.980:496
8.980:466
8.996:481
8.996:497
8.996:498
8.997:517
8.997:529
9.001:521
9.001:505
9.001:498
9.001:500
9.002:504
9.002:513
9.002:527
9.002:531
9.002:526
9.003:519
9.005:509
9.005:493
9.005:480
9.005:478
9.006:472
9.006:479
9.006:490
9.006:498
9.006:502
9.008:509
9.008:501
9.008:490
9.008:480
9.008:466
9.008:468
9.024:468
9.025:465
9.025:466
9.025:478
9.025:510
9.029:524
9.029:537
9.029:539
9.029:519
9.029:489
9.029:455
9.030:436
9.030:439
9.030:455
9.033:492
9.033:502
9.033:484
9.033:489
9.034:506
9.034:501
9.034:500
9.034:489
9.034:477
9.035:462
9.036:455
9.036:453
9.036:438
9.036:454
9.038:467
9.038:468
9.053:456
9.058:439
9.059:430
9.059:428
9.059:442
9.059:462
9.060:460
9.060:452
9.060:448
9.060:452
9.060:457
9.062:464
9.062:475
9.062:493
9.062:483
9.063:465
9.063:476
9.063:499
9.063:498
9.063:480
9.066:462
9.066:452
9.066:445
9.066:428
9.067:416
9.067:422
9.067:456
9.067:484
9.067:508
9.068:518
9.086:518
9.086:490
9.086:489
9.086:501
9.086:529
9.088:544
9.088:537
9.088:525
9.088:495
9.088:483
9.091:503
9.092:508
9.092:499
9.092:499
9.092:512
9.092:514
9.092:500
9.093:496
9.093:506
9.093:511
9.094:515
9.095:533
9.095:540
9.095:536
9.095:526
9.095:516
9.095:511
9.095:526
9.095:544
9.098:544
9.115:535
9.115:524
9.115:496
9.115:487
9.115:476
9.115:454
9.116:468
9.119:511
9.119:525
9.119:530
9.120:534
9.120:534
9.120:535
9.120:524
9.120:524
9.120:534
9.124:547
9.125:545
9.125:532
9.125:512
9.125:503
9.125:507
9.126:511
9.126:517
9.126:508
9.126:499
9.127:496
9.128:493
9.128:493
9.128:492
9.143:492
9.143:489
9.143:498
9.143:520
9.144:520
9.144:518
9.148:514
9.148:510
9.148:545
9.148:616
9.149:637
9.149:583
9.149:498
9.149:482
9.149:488
9.152:497
9.152:503
9.152:520
9.152:526
9.152:521
9.153:510
9.153:500
9.153:484
9.153:491
9.154:491
9.156:526
9.156:554
9.156:547
9.156:532
9.156:520
9.172:516
9.172:515
9.172:510
9.176:508
9.176:493
9.176:494
9.176:502
9.176:500
9.176:501
9.176:497
9.178:512
9.178:526
9.181:532
9.181:530
9.181:524
9.181:512
9.182:525
9.182:531
9.182:536
9.182:528
9.182:505
9.183:484
9.185:459
9.185:434
9.185:408
9.186:391
9.186:373
9.186:359
9.186:345
9.187:315
9.200:315
9.200:268
9.205:221
9.205:173
9.205:115
9.205:78
9.206:49
9.206:43
9.206:17
9.206:17
9.206:17
9.206:17
9.208:17
9.209:17
9.209:18
9.209:18
9.209:18
9.209:18
9.209:19
9.210:19
9.210:18
9.210:18
9.210:18
9.210:17
9.210:17
9.213:64
9.213:146
9.213:220
9.213:286
9.214:368
9.233:455
9.233:572
9.233:664
9.234:710
9.234:723
9.234:741
9.234:701
9.234:705
9.238:714
9.238:694
9.238:670
9.238:644
9.238:647
9.239:670
9.239:688
9.239:698
9.239:688
9.239:658
9.242:623
9.242:603
9.242:593
9.242:583
9.242:578
9.243:571
9.243:556
9.243:559
9.243:569
9.246:580
9.246:586
9.246:593
9.262:593
9.262:573
9.263:561
9.263:564
9.263:562
9.263:572
9.263:574
9.267:577
9.267:580
9.267:579
9.267:574
9.268:568
9.268:566
9.268:566
9.268:564
9.268:542
9.269:535
9.271:536
9.271:544
9.271:541
9.271:539
9.272:544
9.272:554
9.272:561
9.272:563
9.272:555
9.274:548
9.275:536
9.275:552
9.275:551
9.290:547
9.290:552
9.292:555
9.292:563
9.295:583
9.295:585
9.295:565
9.295:542
9.295:537
9.295:533
9.297:527
9.297:512
9.297:509
9.297:514
9.299:519
9.299:524
9.299:529
9.299:528
9.299:526
9.299:529
9.299:535
9.299:528
9.299:553
9.303:571
9.303:566
9.303:538
9.303:516
9.304:510
9.304:510
9.304:506
9.319:506
9.320:502
9.320:511
9.323:514
9.325:516
9.325:512
9.325:509
9.326:500
9.326:473
9.326:464
9.326:483
9.326:482
9.327:498
9.328:507
9.328:526
9.328:541
9.328:550
9.328:540
9.328:499
9.328:484
9.328:482
9.328:488
9.332:490
9.332:491
9.332:491
9.332:488
9.333:496
9.333:499
9.333:492
9.333:483
9.353:482
9.353:482
9.353:469
9.353:460
9.354:451
9.354:444
9.354:419
9.354:427
9.354:461
9.357:477
9.358:493
9.358:515
9.358:527
9.358:502
9.358:477
9.358:466
9.358:463
9.358:447
9.358:462
9.361:478
9.361:483
9.361:479
9.361:471
9.362:466
9.362:453
9.362:428
9.362:416
9.362:423
9.363:435
9.364:425
9.381:425
9.381:421
9.382:458
9.382:480
9.382:464
9.382:458
9.382:455
9.382:448
9.383:442
9.385:435
9.385:421
9.386:409
9.386:400
9.386:413
9.386:445
9.386:441
9.387:426
9.387:410
9.389:407
9.389:402
9.390:392
9.390:395
9.390:396
9.390:407
9.390:413
9.390:422
9.390:418
9.391:413
9.393:393
9.393:399
9.409:406
9.409:392
9.410:380
9.410:376
9.410:368
9.414:349
9.414:361
9.414:371
9.414:367
9.414:349
9.415:354
9.415:394
