0.000:456
0.000:470
0.000:469
0.000:478
0.000:512
0.000:546
0.000:543
0.001:511
0.001:470
0.001:436
0.001:396
0.001:380
0.001:364
0.001:357
0.001:347
0.001:336
0.001:339
0.002:368
0.002:391
0.002:410
0.002:447
0.002:454
0.002:442
0.002:435
0.002:460
0.002:501
0.003:515
0.003:463
0.003:418
0.003:415
0.003:415
0.003:414
0.003:392
0.003:366
0.003:373
0.003:371
0.003:379
0.003:393
0.003:407
0.004:413
0.004:419
0.004:461
0.004:492
0.004:537
0.004:543
0.004:547
0.004:549
0.004:540
0.004:512
0.005:478
0.005:444
0.005:413
0.005:410
0.005:425
0.005:470
0.005:480
0.005:456
0.005:425
0.005:428
0.005:462
0.005:508
0.005:538
0.005:505
0.005:475
0.005:478
0.005:536
0.005:553
0.007:522
0.007:512
0.007:493
0.007:474
0.007:458
0.007:461
0.007:468
0.007:446
0.007:422
0.008:400
0.008:376
0.008:384
0.008:400
0.008:428
0.008:477
0.008:501
0.008:533
0.008:554
0.008:566
0.008:572
0.008:540
0.008:511
0.008:493
0.008:493
0.008:472
0.008:448
0.008:436
0.009:434
0.009:452
0.009:420
0.009:389
0.009:388
0.009:414
0.009:448
0.009:469
0.009:487
0.009:517
0.009:544
0.009:564
0.009:618
0.009:623
0.009:597
0.009:554
0.009:512
0.009:476
0.009:454
0.009:441
0.009:452
0.010:470
0.010:431
0.010:404
0.010:445
0.010:464
0.010:495
0.010:527
0.010:553
0.010:579
0.010:612
0.010:629
0.010:668
0.010:693
0.010:693
0.010:693
0.010:641
0.010:580
0.010:578
0.010:569
0.010:535
0.010:522
0.010:494
0.011:445
0.011:424
0.011:456
0.011:497
0.011:526
0.011:542
0.011:557
0.011:582
0.011:614
0.011:663
0.011:695
0.011:672
0.011:624
0.011:624
0.011:600
0.011:600
0.011:582
0.011:553
0.011:531
0.011:529
0.011:513
0.011:487
0.012:488
0.012:510
0.012:544
0.012:576
0.012:600
0.012:599
0.012:622
0.012:641
0.012:695
0.012:716
0.012:703
0.012:666
0.012:629
0.012:582
0.012:570
0.012:553
0.012:558
0.012:545
0.012:525
0.012:494
0.012:489
0.012:515
0.013:520
0.013:527
0.013:550
0.013:589
0.013:624
0.013:623
0.013:654
0.013:660
0.013:659
0.013:632
0.013:594
0.013:557
0.013:549
0.013:540
0.013:544
0.013:532
0.013:509
0.013:515
0.013:542
0.013:559
0.013:570
0.014:567
0.014:546
0.014:572
0.014:597
0.014:572
0.014:598
0.014:592
0.014:584
0.014:584
0.014:586
0.014:573
0.014:530
0.014:455
0.014:415
0.014:435
0.014:471
0.014:457
0.014:452
0.014:466
0.014:485
0.014:511
0.015:548
0.015:582
0.015:572
0.015:555
0.015:552
0.015:552
0.015:541
0.016:512
0.016:467
0.016:447
0.016:433
0.016:429
0.016:406
0.016:390
0.016:373
0.016:347
0.016:360
0.016:407
0.016:457
0.016:470
0.016:489
0.016:487
0.017:496
0.017:515
0.017:529
0.017:562
0.017:558
0.017:539
0.017:500
0.017:481
0.017:450
0.017:421
0.017:406
0.017:413
0.017:405
0.017:369
0.017:365
0.017:385
0.017:411
0.017:420
0.017:447
0.017:500
0.017:515
0.017:495
0.017:472
0.017:490
0.017:508
0.019:508
0.019:472
0.019:414
0.019:394
0.019:408
0.019:432
0.019:452
0.019:475
0.019:465
0.019:435
0.019:407
0.019:400
0.019:421
0.019:434
0.019:438
0.020:429
0.020:431
0.020:469
0.020:490
0.020:512
0.020:489
0.020:467
0.020:469
0.020:482
0.020:464
0.020:432
0.020:398
0.020:416
0.020:436
0.020:423
0.020:406
0.020:400
0.020:410
0.020:406
0.021:443
0.021:494
0.021:476
0.021:456
0.021:470
0.022:515
0.022:537
0.022:527
0.022:488
0.022:459
0.022:430
0.022:417
0.022:408
0.022:417
0.022:409
0.022:396
0.022:423
0.022:440
0.022:463
0.022:458
0.022:463
0.022:452
0.022:457
0.022:479
0.022:510
0.022:544
0.022:544
0.022:542
0.022:523
0.022:502
0.022:477
0.022:451
0.023:463
0.023:470
0.023:489
0.023:469
0.023:449
0.023:457
0.023:476
0.023:501
0.023:495
0.023:494
0.023:501
0.023:512
0.023:527
0.023:557
0.023:558
0.023:522
0.023:501
0.023:486
0.023:469
0.023:458
0.023:458
0.025:423
0.025:435
0.025:416
0.025:405
0.025:426
0.025:446
0.025:472
0.025:473
0.025:493
0.025:496
0.025:499
0.025:504
0.025:537
0.025:562
0.025:561
0.025:534
0.025:504
0.025:482
0.025:457
0.025:443
0.025:443
0.026:450
0.026:429
0.026:420
0.026:444
0.026:463
0.026:476
0.026:486
0.026:501
0.026:525
0.026:552
0.026:567
0.026:582
0.026:582
0.026:574
0.026:545
0.026:509
0.026:473
0.026:443
0.026:416
0.026:418
0.026:428
0.027:470
0.027:465
0.027:426
0.027:423
0.027:443
0.027:472
0.027:487
0.027:518
0.027:537
0.027:539
0.027:547
0.027:601
0.027:620
0.027:594
0.027:556
0.027:519
0.027:498
0.027:485
0.027:471
0.027:455
0.027:466
0.027:450
0.027:436
0.027:444
0.027:470
0.027:500
0.027:528
0.027:541
0.027:551
0.027:566
0.028:565
0.028:586
0.028:572
0.028:526
0.028:497
0.028:487
0.028:483
0.028:453
0.028:447
0.028:456
0.028:454
0.028:423
0.028:415
0.028:438
0.028:489
0.028:506
0.028:494
0.028:502
0.028:526
0.028:524
0.028:521
0.029:521
0.029:572
0.029:585
0.029:567
0.029:536
0.029:517
0.029:490
0.029:471
0.029:462
0.029:449
0.029:461
0.029:456
0.029:438
0.029:441
0.029:463
0.029:486
0.029:515
0.029:534
0.029:534
0.029:534
0.030:551
0.030:601
0.030:607
0.030:588
0.030:558
0.030:530
0.030:473
0.030:448
0.030:448
0.031:458
0.031:462
0.031:444
0.031:437
0.031:440
0.031:461
0.031:487
0.031:515
0.031:516
0.031:520
0.031:521
0.031:524
0.031:569
0.031:583
0.031:567
0.031:550
0.031:529
0.031:498
0.031:481
0.031:475
0.032:481
0.032:481
0.032:464
0.032:455
0.032:474
0.032:494
0.032:521
0.032:549
0.032:542
0.032:565
0.032:586
0.032:586
0.032:606
0.032:629
0.032:633
0.032:620
0.032:578
0.032:538
0.032:494
0.032:471
0.032:469
0.033:474
0.033:465
0.033:446
0.033:446
0.033:476
0.033:496
0.033:508
0.033:524
0.033:539
0.033:551
0.033:560
0.033:570
0.033:604
0.033:586
0.033:567
0.033:549
0.033:522
0.033:498
0.033:484
0.033:483
0.034:503
0.034:497
0.034:477
0.034:488
0.034:508
0.034:524
0.034:526
0.034:547
0.034:553
0.034:539
0.034:532
0.034:540
0.034:567
0.034:567
0.034:551
0.034:540
0.034:530
0.034:500
0.034:483
0.034:470
0.034:481
0.034:475
0.035:440
0.035:435
0.035:449
0.035:447
0.035:454
0.035:477
0.035:518
0.035:557
0.035:557
0.035:549
0.035:553
0.035:575
0.035:570
0.035:552
0.035:518
0.035:486
0.035:446
0.035:427
0.035:425
0.035:434
0.035:435
0.035:424
0.035:420
0.035:422
0.035:452
0.035:464
0.035:485
0.035:496
0.035:511
0.035:525
0.035:559
0.035:584
0.035:580
0.037:552
0.037:510
0.037:491
0.037:476
0.037:461
0.037:446
0.037:441
0.037:413
0.037:372
0.037:377
0.037:399
0.037:423
0.038:435
0.038:468
0.038:480
0.038:492
0.038:509
0.038:550
0.039:588
0.039:587
0.039:566
0.039:540
0.039:514
0.039:499
0.039:507
0.039:515
0.039:529
0.039:501
0.039:470
0.039:458
0.040:458
0.040:477
0.040:480
0.040:489
0.040:493
0.040:493
0.040:508
0.040:527
0.040:559
0.040:593
0.040:585
0.040:549
0.041:519
0.041:499
0.041:473
0.041:473
0.041:480
0.041:492
0.041:470
0.041:434
0.041:434
0.041:447
0.041:457
0.041:457
0.042:478
0.042:489
0.042:487
0.042:480
0.042:505
0.042:518
0.042:517
0.042:507
0.042:481
0.042:462
0.042:435
0.042:435
0.042:451
0.042:486
0.042:488
0.042:479
0.042:501
0.042:549
0.042:619
0.042:665
0.042:709
0.042:746
0.043:787
0.043:831
0.043:908
0.043:975
0.043:990
0.043:989
0.043:990
0.043:990
0.043:990
0.043:990
0.043:989
0.043:988
0.043:989
0.043:989
0.043:989
0.043:989
0.043:989
0.043:989
0.043:989
0.043:989
0.043:976
0.044:943
0.044:894
0.044:872
0.044:837
0.044:763
0.044:685
0.044:607
0.044:518
0.044:443
0.044:387
0.044:358
0.044:358
0.044:341
0.044:330
0.044:345
0.044:386
0.044:440
0.044:467
0.044:481
0.044:486
0.044:513
0.044:533
0.045:588
0.045:608
0.045:581
0.045:553
0.045:525
0.045:497
0.045:480
0.045:466
0.045:457
0.045:462
0.045:429
0.045:404
0.045:417
0.045:429
0.045:452
0.045:474
0.045:488
0.045:490
0.045:488
0.045:486
0.045:520
0.045:536
0.046:515
0.046:482
0.046:458
0.046:427
0.046:410
0.047:392
0.047:379
0.047:387
0.047:369
0.047:352
0.047:349
0.047:365
0.047:396
0.047:426
0.047:426
0.047:451
0.047:465
0.047:470
0.047:476
0.047:523
0.047:534
0.047:519
0.048:504
0.048:499
0.048:488
0.048:483
0.048:473
0.048:478
0.048:485
0.048:453
0.048:426
0.048:419
0.048:421
0.048:416
0.048:395
0.048:388
0.048:433
0.048:481
0.049:501
0.049:551
0.049:563
0.049:551
0.049:537
0.049:520
0.049:490
0.049:466
0.049:445
0.049:443
0.049:451
0.049:433
0.049:423
0.049:429
0.049:439
0.050:443
0.050:450
0.050:456
0.050:478
0.050:503
0.050:520
0.050:558
0.050:560
0.050:543
0.050:519
0.050:497
0.050:479
0.050:472
0.050:465
0.050:478
0.051:470
0.051:421
0.051:406
0.051:423
0.051:451
0.051:468
0.051:468
0.051:491
0.051:498
0.051:517
0.051:537
0.051:542
0.051:572
0.051:561
0.052:526
0.052:510
0.052:509
0.052:486
0.052:473
0.052:457
0.052:468
0.052:467
0.052:439
0.052:425
0.052:417
0.052:443
0.052:453
0.052:490
0.053:500
0.053:506
0.053:518
0.053:530
0.053:573
0.053:609
0.053:570
0.053:515
0.053:510
0.053:480
0.053:449
0.053:450
0.053:495
0.053:482
0.054:436
0.054:421
0.054:432
0.055:483
0.055:505
0.055:525
0.055:529
0.055:533
0.055:529
0.055:522
0.055:542
0.055:545
0.055:546
0.055:534
0.055:540
0.055:524
0.055:515
0.055:518
0.055:544
0.055:551
0.055:523
0.056:506
0.056:504
0.056:515
0.056:515
0.056:517
0.056:522
0.056:520
0.056:528
0.056:536
0.056:560
0.057:597
0.057:596
0.057:572
0.057:547
0.057:519
0.057:489
0.057:480
0.057:484
0.057:512
0.057:504
0.057:463
0.057:459
0.057:469
0.057:490
0.058:493
0.058:511
0.058:505
0.058:505
0.058:513
0.058:532
0.058:551
0.058:553
0.058:536
0.058:518
0.058:502
0.058:475
0.058:475
0.058:492
0.058:530
0.058:536
0.058:515
0.058:515
0.058:520
0.058:529
0.058:524
0.058:542
0.059:553
0.059:565
0.059:564
0.059:586
0.059:612
0.059:599
0.059:563
0.059:537
0.059:525
0.059:471
0.059:443
0.059:439
0.059:456
0.059:432
0.059:403
0.059:399
0.059:406
0.059:406
0.059:422
0.059:423
0.059:434
0.059:436
0.060:453
0.060:474
0.060:507
0.060:537
0.060:545
0.060:526
0.060:483
0.060:465
0.060:442
0.060:429
0.060:423
0.060:451
0.060:437
0.060:403
0.060:401
0.060:413
0.060:428
0.060:432
0.060:447
0.060:452
0.060:462
0.061:470
0.061:508
0.061:533
0.061:527
0.061:507
0.061:475
0.061:443
0.061:408
0.061:380
0.061:366
0.061:377
0.061:361
0.061:338
0.061:348
0.061:375
0.061:403
0.061:416
0.062:430
0.062:440
0.062:453
0.062:453
0.062:480
0.062:501
0.062:493
0.062:478
0.062:447
0.062:425
0.062:405
0.062:389
0.062:367
0.062:371
0.062:346
0.062:321
0.062:331
0.062:331
0.062:361
0.062:396
0.062:427
0.062:460
0.063:458
0.063:462
0.063:452
0.063:467
0.063:475
0.063:457
0.063:443
0.063:421
0.063:400
0.063:384
0.063:384
0.063:381
0.063:390
0.063:371
0.063:353
0.063:361
0.063:382
0.063:410
0.063:432
0.063:443
0.063:455
0.064:466
0.064:473
0.064:509
0.064:519
0.064:499
0.064:476
0.064:444
0.064:420
0.064:405
0.064:409
0.064:422
0.064:439
0.064:422
0.064:407
0.064:412
0.064:422
0.064:437
0.064:460
0.064:475
0.064:477
0.064:483
0.064:495
0.065:538
0.065:549
0.065:521
0.065:491
0.065:466
0.065:434
0.065:416
0.065:413
0.065:437
0.065:439
0.065:398
0.065:370
0.065:370
0.065:379
0.065:394
0.065:416
0.065:438
0.065:447
0.065:453
0.065:466
0.065:480
0.066:532
0.066:549
0.066:531
0.066:512
0.066:490
0.066:452
0.066:431
0.066:420
0.066:417
0.066:407
0.066:380
0.067:378
0.067:395
0.067:428
0.067:454
0.067:478
0.067:491
0.067:503
0.067:513
0.067:527
0.067:563
0.067:563
0.067:536
0.067:499
0.067:489
0.067:471
0.067:460
0.067:451
0.067:450
0.068:439
0.068:404
0.068:397
0.068:412
0.068:432
0.068:451
0.068:482
0.068:491
0.068:500
0.068:505
0.068:515
0.068:550
0.068:549
0.068:526
0.068:492
0.068:472
0.068:450
0.068:435
0.068:434
0.068:444
0.068:428
0.069:407
0.069:407
0.069:415
0.069:441
0.069:472
0.069:492
0.069:514
0.069:510
0.069:520
0.069:532
0.069:541
0.069:564
0.069:552
0.069:528
0.069:495
0.069:473
0.069:453
0.069:446
0.069:442
0.069:451
0.069:442
0.069:422
0.070:416
0.070:426
0.070:448
0.070:457
0.070:487
0.070:508
0.070:522
0.070:540
0.070:559
0.070:580
0.070:568
0.070:541
0.071:514
0.071:494
0.071:462
0.071:447
0.071:442
0.071:450
0.071:434
0.072:408
0.072:413
0.072:430
0.072:458
0.072:476
0.072:506
0.072:510
0.072:512
0.072:517
0.073:547
0.073:579
0.073:565
0.073:541
0.073:506
0.073:480
0.073:452
0.073:447
0.073:446
0.073:458
0.073:437
0.074:437
0.074:400
0.074:396
0.074:418
0.074:445
0.074:458
0.074:484
0.074:491
0.074:494
0.074:504
0.074:535
0.074:564
0.074:557
0.074:527
0.074:488
0.074:465
0.074:449
0.074:440
0.074:429
0.074:441
0.075:424
0.075:408
0.075:421
0.075:441
0.075:465
0.075:472
0.075:498
0.075:506
0.075:517
0.075:524
0.075:547
0.075:578
0.075:579
0.075:568
0.075:526
0.075:478
0.075:443
0.075:434
0.075:429
0.075:441
0.075:421
0.075:386
0.075:397
0.075:426
0.075:457
0.075:476
0.075:491
0.075:493
0.075:498
0.075:511
0.075:559
0.075:588
0.075:578
0.076:545
0.076:512
0.076:490
0.076:471
0.076:462
0.076:462
0.076:475
0.076:475
0.076:461
0.076:437
0.076:436
0.076:454
0.076:479
0.076:490
0.076:510
0.076:512
0.076:515
0.076:520
0.076:553
0.076:572
0.077:556
0.077:526
0.077:492
0.077:466
0.077:448
0.077:443
0.077:445
0.077:462
0.077:443
0.077:430
0.077:439
0.077:452
0.077:481
0.078:493
0.078:505
0.078:516
0.078:532
0.078:540
0.078:570
0.078:587
0.078:576
0.078:560
0.078:536
0.078:521
0.078:505
0.078:489
0.078:491
0.078:521
0.078:499
0.078:477
0.078:472
0.078:458
0.078:467
0.078:487
0.078:516
0.079:535
0.079:548
0.079:538
0.079:562
0.079:574
0.079:557
0.079:536
0.079:509
0.079:486
0.079:477
0.079:472
0.079:474
0.079:474
0.079:487
0.079:463
0.079:448
0.079:468
0.079:500
0.079:530
0.079:546
0.079:574
0.080:583
0.080:584
0.080:586
0.080:627
0.080:643
0.080:626
0.080:606
0.080:582
0.080:550
0.080:531
0.080:516
0.080:510
0.080:516
0.080:487
0.080:467
0.080:479
0.080:503
0.080:524
0.080:539
0.080:546
0.080:552
0.080:565
0.081:576
0.081:622
0.081:646
0.081:625
0.081:583
0.081:549
0.081:512
0.081:486
0.081:471
0.081:488
0.081:520
0.081:477
0.081:437
0.081:442
0.081:463
0.081:486
0.081:515
0.081:538
0.081:558
0.081:567
0.081:560
0.082:592
0.082:599
0.082:586
0.082:562
0.082:537
0.082:502
0.082:490
0.082:485
0.082:485
0.082:482
0.082:482
0.082:455
0.082:456
0.082:488
0.082:495
0.082:473
0.082:484
0.082:498
0.082:511
0.082:524
0.082:533
0.083:582
0.083:594
0.083:566
0.083:529
0.083:498
0.083:468
0.083:469
0.083:467
0.083:474
0.083:470
0.083:434
0.083:415
0.083:425
0.083:448
0.083:465
0.083:500
0.083:511
0.083:514
0.083:524
0.083:536
0.083:578
0.083:585
0.084:565
0.084:531
0.084:503
0.084:458
0.084:439
0.084:441
0.084:465
0.084:454
0.084:413
0.084:398
0.084:417
0.084:449
0.084:462
0.084:489
0.084:501
0.084:521
0.084:541
0.084:541
0.084:571
0.084:576
0.084:554
0.084:513
0.085:494
0.085:471
0.085:467
0.085:467
0.085:465
0.085:480
0.085:474
0.085:423
0.085:413
0.085:431
0.085:454
0.085:462
0.085:493
0.085:498
0.085:511
0.085:522
0.085:531
0.085:557
0.085:557
0.085:538
0.085:503
0.085:487
0.086:463
0.086:453
0.086:444
0.086:461
0.086:467
0.086:437
0.086:430
0.086:428
0.086:439
0.086:436
0.086:459
0.087:464
0.087:464
0.087:465
0.087:487
0.087:526
0.087:531
0.087:530
0.087:517
0.087:510
0.087:488
0.088:482
0.088:485
0.088:515
0.088:526
0.088:525
0.088:546
0.089:590
0.089:642
0.089:676
0.089:727
0.089:769
0.090:810
0.090:846
0.090:900
0.090:965
0.090:988
0.090:984
0.090:976
0.090:990
0.090:990
0.090:990
0.090:990
0.090:989
0.091:988
0.091:989
0.091:989
0.091:990
0.091:990
0.091:978
0.091:925
0.091:889
0.091:860
0.091:825
0.091:779
0.091:758
0.091:755
0.091:709
0.091:618
0.091:508
0.091:436
0.091:389
0.092:362
0.092:341
0.092:363
0.092:371
0.092:361
0.092:377
0.092:412
0.092:440
0.092:448
0.092:467
0.092:460
0.092:461
0.092:472
0.092:508
0.092:551
0.092:541
0.092:507
0.092:476
0.092:461
0.092:442
0.092:423
0.093:413
0.093:433
0.093:419
0.093:391
0.093:387
0.093:404
0.093:435
0.093:439
0.093:451
0.093:447
0.093:449
0.093:446
0.093:475
0.093:502
0.093:492
0.093:471
0.093:447
0.093:424
0.094:424
0.094:405
0.094:402
0.094:403
0.094:418
0.094:401
0.094:376
0.094:378
0.094:388
0.094:399
0.094:403
0.094:419
0.094:429
0.094:450
0.094:456
0.094:487
0.094:513
0.094:501
0.094:475
0.094:450
0.094:428
0.094:406
0.095:400
0.095:402
0.095:420
0.095:406
0.095:390
0.095:401
0.095:411
0.095:427
0.095:433
0.095:450
0.095:456
0.095:464
0.095:465
0.095:504
0.095:534
0.095:531
0.095:521
0.095:497
0.095:468
0.095:442
0.095:431
0.095:431
0.095:451
0.095:434
0.095:403
0.095:416
0.095:436
0.095:442
0.095:446
0.095:453
0.095:459
0.096:479
0.096:494
0.096:534
0.096:560
0.096:553
0.096:518
0.096:487
0.096:487
0.096:465
0.096:455
0.096:452
0.096:459
0.096:472
0.096:459
0.096:429
0.096:428
0.096:447
0.096:466
0.096:476
0.096:490
0.096:504
0.097:516
0.097:520
0.097:561
0.097:583
0.097:562
0.097:536
0.097:513
0.097:474
0.097:450
0.097:439
0.097:439
0.097:458
0.097:443
0.097:428
0.097:436
0.097:447
0.097:462
0.098:483
0.098:499
0.098:509
0.098:518
0.098:521
0.098:569
0.098:582
0.098:565
0.098:543
0.098:529
0.098:499
0.098:474
0.098:466
0.098:475
0.098:480
0.098:449
0.098:428
0.098:439
0.098:466
0.098:483
0.098:503
0.099:512
0.099:524
0.099:539
0.099:550
0.099:595
0.099:608
0.099:597
0.099:571
0.099:571
0.099:546
0.099:505
0.099:497
0.099:490
0.099:507
0.099:513
0.099:487
0.099:496
0.099:508
0.099:525
0.099:498
0.099:494
0.099:496
0.100:520
0.100:543
0.100:555
0.100:610
0.100:612
0.100:553
0.100:515
0.100:509
0.100:500
0.100:502
0.100:502
0.100:508
0.100:512
0.100:492
0.100:487
0.100:498
0.100:519
0.100:524
0.100:541
0.100:538
0.100:548
0.101:564
0.101:576
0.101:611
0.101:611
0.101:583
0.101:551
0.101:544
0.101:521
0.101:514
0.101:508
0.101:523
0.101:514
0.101:477
0.101:461
0.101:465
0.101:485
0.101:492
0.101:520
0.101:528
0.101:541
0.101:558
0.102:580
0.102:618
0.102:619
0.102:599
0.102:599
0.102:576
0.102:553
0.102:512
0.102:496
0.102:489
0.102:504
0.102:502
0.103:474
0.103:465
0.103:465
0.103:488
0.103:491
0.103:509
0.103:510
0.104:512
0.104:517
0.104:538
0.104:576
0.104:570
0.104:541
0.104:513
0.104:498
0.104:469
0.104:453
0.105:444
0.105:454
0.105:443
0.105:415
0.105:409
0.105:415
0.105:428
0.105:422
0.105:453
0.105:464
0.105:479
0.106:490
0.106:489
0.106:512
0.106:512
0.106:492
0.106:471
0.106:440
0.106:408
0.106:410
0.106:411
0.106:420
0.106:405
0.106:380
0.106:378
0.106:388
0.108:412
0.108:420
0.108:447
0.108:457
0.108:463
0.108:471
0.108:502
0.108:525
0.108:514
0.108:514
0.108:489
0.108:455
0.108:426
0.108:394
0.108:383
0.108:381
0.109:397
0.109:386
0.109:356
0.109:355
0.109:367
0.109:395
0.109:407
0.109:427
0.109:455
0.109:463
0.109:464
0.109:491
0.109:511
0.109:501
0.110:475
0.110:454
0.110:438
0.110:417
0.110:414
0.110:410
0.110:422
0.110:404
0.110:377
0.110:381
0.110:404
0.110:435
0.110:432
0.110:451
0.110:458
0.111:466
0.111:473
0.111:502
0.111:525
0.111:522
0.111:490
0.111:447
0.111:430
0.111:409
0.111:403
0.111:408
0.111:428
0.111:415
0.111:394
0.112:402
0.112:430
0.112:443
0.112:441
0.112:459
0.112:475
0.112:470
0.112:471
0.112:517
0.112:559
0.112:559
0.112:546
0.112:516
0.112:483
0.112:458
0.113:443
0.113:437
0.113:432
0.113:449
0.113:429
0.113:395
0.113:392
0.113:407
0.113:431
0.113:443
0.113:460
0.113:460
0.113:466
0.113:475
0.113:520
0.114:539
0.114:528
0.114:515
0.114:491
0.114:468
0.114:447
0.114:439
0.114:445
0.114:453
0.114:425
0.114:400
0.114:411
0.114:423
0.114:444
0.114:463
0.115:488
0.115:500
0.115:511
0.115:519
0.115:540
0.115:561
0.115:555
0.115:551
0.115:532
0.115:499
0.115:479
0.115:468
0.115:470
0.115:479
0.115:447
0.115:410
0.115:416
0.115:432
0.115:458
0.115:479
0.115:494
0.115:510
0.115:504
0.115:491
0.115:528
0.115:528
0.116:546
0.116:536
0.116:516
0.116:502
0.116:483
0.116:473
0.116:460
0.116:475
0.116:484
0.116:448
0.116:428
0.116:440
0.116:452
0.116:464
0.116:484
0.116:499
0.116:507
0.116:520
0.116:535
0.116:578
0.116:581
0.117:553
0.117:527
0.117:508
0.117:479
0.117:464
0.117:459
0.118:463
0.118:473
0.118:457
0.118:440
0.118:444
0.118:457
0.118:478
0.118:504
0.118:521
0.118:536
0.118:527
0.118:513
0.119:550
0.119:558
0.119:539
0.119:518
0.119:511
0.119:501
0.119:524
0.119:514
0.119:501
0.119:485
0.119:415
0.119:384
0.119:408
0.119:446
0.119:456
0.120:482
0.120:493
0.121:507
0.121:520
0.121:534
0.121:534
0.121:579
0.121:581
0.121:562
0.121:559
0.121:550
0.121:495
0.121:442
0.122:412
0.122:434
0.122:467
0.122:463
0.122:436
0.122:444
0.122:486
0.122:459
0.122:449
0.122:466
0.122:495
0.122:496
0.122:504
0.122:548
0.123:559
0.123:543
0.123:518
0.123:499
0.123:470
0.123:465
0.123:466
0.123:487
0.123:492
0.123:464
0.123:450
0.124:448
0.124:461
0.124:458
0.124:475
0.124:480
0.124:484
0.124:495
0.124:515
0.124:559
0.124:569
0.124:544
0.124:513
0.124:500
0.124:469
0.124:469
0.124:466
0.124:468
0.124:467
0.124:448
0.124:440
0.124:441
0.124:467
0.125:483
0.125:501
0.125:493
0.125:504
0.125:521
0.125:521
0.125:524
0.125:544
0.125:556
0.125:553
0.125:521
0.125:487
0.125:460
0.125:461
0.125:463
0.125:484
0.125:474
0.125:439
0.125:422
0.125:432
0.125:456
0.126:456
0.126:477
0.126:488
0.126:502
0.126:519
0.126:549
0.126:579
0.126:575
0.126:557
0.126:536
0.126:528
0.127:505
0.127:491
0.127:474
0.127:491
0.127:488
0.127:463
0.127:452
0.127:458
0.127:477
0.127:474
0.127:493
0.127:496
0.127:491
0.127:496
0.127:528
0.127:564
0.127:561
0.127:548
0.127:520
0.127:476
0.127:449
0.127:453
0.127:459
0.127:480
0.127:468
0.127:440
0.127:437
0.128:451
0.128:472
0.128:476
0.128:508
0.128:518
0.128:525
0.128:525
0.128:528
0.128:549
0.128:577
0.128:577
0.128:551
0.128:518
0.128:499
0.128:482
0.128:480
0.128:483
0.128:500
0.128:497
0.128:469
0.128:455
0.128:472
0.129:491
0.129:492
0.129:518
0.129:533
0.129:541
0.129:549
0.129:577
0.129:599
0.129:597
0.129:560
0.129:528
0.129:514
0.129:503
0.129:499
0.129:502
0.129:529
0.129:511
0.129:472
0.129:487
0.129:503
0.129:491
0.130:481
0.130:502
0.130:469
0.130:467
0.130:488
0.130:538
0.130:567
0.130:565
0.130:547
0.130:510
0.130:483
0.130:470
0.130:462
0.130:454
0.130:464
0.130:444
0.130:417
0.130:425
0.130:452
0.130:481
0.130:483
0.130:504
0.131:519
0.131:519
0.131:530
0.131:527
0.131:550
0.131:567
0.131:557
0.131:537
0.131:501
0.131:473
0.131:453
0.131:440
0.131:438
0.131:458
0.131:447
0.131:417
0.131:414
0.131:430
0.131:467
0.131:501
0.131:529
0.131:532
0.132:532
0.132:527
0.132:566
0.132:580
0.132:552
0.132:528
0.132:514
0.132:476
0.132:458
0.132:466
0.132:484
0.132:506
0.132:475
0.132:440
0.132:444
0.132:452
0.132:468
0.132:485
0.132:499
0.132:513
0.132:533
0.133:550
0.133:595
0.133:611
0.133:582
0.133:544
0.133:509
0.133:480
0.133:472
0.133:462
0.133:461
0.133:465
0.133:450
0.133:443
0.133:461
0.133:477
0.133:479
0.133:487
0.133:487
0.133:487
0.133:483
0.133:483
0.133:477
0.134:514
0.134:510
0.134:489
0.134:471
0.134:455
0.134:436
0.134:438
0.134:431
0.134:427
0.134:435
0.134:415
0.134:404
0.134:419
0.134:435
0.134:442
0.134:453
0.134:449
0.134:451
0.134:471
0.134:482
0.134:522
0.134:535
0.135:519
0.135:493
0.135:474
0.135:441
0.135:423
0.135:415
0.135:431
0.135:449
0.135:424
0.135:408
0.135:411
0.135:429
0.135:443
0.135:474
0.135:481
0.135:490
0.135:507
0.135:518
0.135:563
0.135:570
0.135:531
0.136:489
0.136:467
0.136:444
0.136:432
0.136:410
0.136:416
0.136:430
0.136:418
0.136:421
0.136:447
0.136:480
0.137:482
0.137:512
0.137:512
0.137:524
0.137:546
0.137:589
0.137:627
0.137:701
0.137:756
0.138:763
0.138:764
0.138:796
0.139:789
0.139:782
0.139:784
0.139:808
0.139:827
0.139:820
0.139:829
0.139:853
0.139:894
0.139:922
0.140:966
0.140:983
0.140:990
0.140:990
0.140:990
0.140:990
0.140:943
0.140:852
0.141:769
0.141:728
0.141:670
0.141:627
0.141:594
0.141:585
0.141:559
0.141:491
0.141:442
0.141:428
0.141:453
0.141:440
0.141:432
0.142:431
0.142:457
0.142:484
0.142:503
0.142:538
0.142:527
0.142:500
0.142:468
0.142:442
0.142:405
0.142:404
0.142:403
0.142:427
0.142:430
0.142:422
0.143:450
0.143:458
0.143:438
0.143:411
0.143:411
0.143:442
0.143:467
0.143:485
0.143:502
0.143:530
0.143:567
0.143:574
0.143:543
0.143:494
0.143:461
0.144:437
0.144:436
0.144:432
0.144:442
0.144:427
0.144:398
0.144:394
0.144:402
0.144:424
0.144:425
0.144:445
0.144:443
0.144:448
0.144:447
0.145:472
0.145:505
0.145:500
0.145:483
0.145:452
0.145:421
0.145:397
0.145:394
0.145:399
0.145:426
0.145:417
0.145:383
0.145:380
0.145:396
0.145:426
0.145:430
0.145:446
0.145:452
0.145:460
0.145:468
0.145:503
0.145:540
0.145:542
0.145:522
0.146:491
0.146:471
0.146:453
0.146:443
0.146:438
0.146:460
0.146:425
0.146:380
0.146:380
0.146:411
0.146:449
0.146:449
0.146:458
0.146:479
0.146:484
0.147:492
0.147:502
0.147:537
0.147:565
0.147:560
0.147:545
0.147:530
0.147:520
0.147:488
0.147:466
0.147:460
0.147:478
0.147:468
0.147:435
0.147:429
0.147:429
0.147:430
0.147:449
0.147:479
0.147:490
0.147:469
0.147:449
0.147:494
0.149:527
0.149:510
0.149:488
0.149:458
0.149:436
0.149:428
0.149:428
0.149:429
0.149:445
0.149:432
0.149:409
0.149:415
0.149:421
0.149:452
0.149:475
0.149:511
0.149:520
0.149:518
0.149:516
0.149:543
0.149:564
0.150:553
0.150:537
0.150:495
0.150:460
0.150:450
0.150:450
0.150:462
0.150:486
0.150:464
0.150:433
0.150:437
0.150:458
0.150:458
0.150:485
0.150:489
0.150:503
0.150:514
0.150:524
0.150:528
0.151:575
0.151:602
0.151:587
0.151:561
0.151:528
0.151:496
0.151:472
0.151:466
0.151:473
0.151:491
0.151:470
0.151:452
0.151:458
0.151:473
0.151:493
0.151:509
0.151:519
0.151:524
0.151:538
0.151:547
0.151:586
0.152:610
0.152:608
0.152:596
0.152:575
0.152:553
0.152:522
0.152:513
0.152:496
0.152:498
0.152:487
0.152:
0.152:468
0.152:523
0.152:570
0.152:605
0.152:659
0.152:716
0.152:802
0.152:836
0.153:855
0.153:885
0.153:905
0.153:905
0.153:926
0.153:966
0.153:7
0.153:479
0.153:429
0.153:406
0.153:386
0.153:364
0.153:375
0.153:376
0.153:344
0.153:353
0.153:387
0.153:422
0.153:468
0.153:523
0.153:570
0.154:605
0.154:659
0.154:716
0.154:802
0.154:836
0.155:855
0.155:885
0.155:905
0.155:905
0.155:926
0.155:966
0.155:966
0.155:990
0.155:989
0.155:989
0.155:988
0.155:987
0.155:986
0.155:985
0.155:984
0.156:984
0.156:983
0.156:983
0.156:983
0.156:982
0.156:982
0.156:983
0.156:984
0.156:986
0.156:987
0.156:989
0.156:950
0.156:846
0.156:745
0.156:591
0.156:444
0.156:333
0.157:256
0.157:228
0.157:251
0.157:270
0.157:281
0.157:283
0.157:328
0.157:429
0.157:480
0.157:510
0.157:488
0.157:458
0.157:387
0.157:353
0.157:334
0.157:297
0.158:238
0.158:198
0.158:217
0.158:267
0.158:345
0.158:396
0.158:422
0.158:413
0.158:399
0.158:402
0.158:425
0.158:455
0.158:422
0.158:378
0.158:325
0.158:247
0.158:190
0.158:188
0.158:188
0.158:217
0.158:217
0.159:214
0.159:192
0.159:211
0.159:279
0.159:335
0.159:348
0.159:377
0.159:399
0.159:439
0.159:513
0.159:602
0.159:679
0.159:659
0.159:591
0.159:502
0.159:405
0.159:322
0.159:294
0.159:276
0.159:284
0.159:282
0.159:283
0.160:295
0.160:299
0.160:275
0.160:251
0.160:246
0.160:252
0.160:283
0.160:312
0.160:351
0.160:402
0.160:416
0.160:405
0.160:374
0.160:362
0.160:348
0.160:334
0.160:321
0.160:323
0.160:287
0.160:260
0.160:272
0.161:300
0.161:343
0.161:383
0.161:422
0.161:449
0.161:446
0.161:450
0.161:505
0.161:549
0.161:545
0.161:522
0.161:488
0.161:459
0.161:417
0.176:417
0.176:400
0.176:399
0.176:405
0.181:352
0.181:321
0.181:342
0.181:382
0.181:421
0.181:441
0.181:455
0.181:450
0.181:453
0.185:480
0.185:552
0.185:601
0.185:598
0.185:561
0.185:514
0.186:481
0.186:450
0.186:421
0.186:421
0.188:416
0.188:352
0.189:301
0.189:303
0.189:315
0.189:352
0.189:422
0.210:488
0.210:517
0.210:532
0.210:539
0.210:586
0.210:601
0.210:579
0.210:555
0.210:514
0.210:468
0.214:442
0.214:437
0.214:444
0.214:466
0.214:434
0.214:388
0.214:392
0.214:424
0.214:474
0.217:506
0.217:520
0.217:519
0.218:501
0.218:509
0.218:598
0.218:642
0.218:623
0.218:565
0.218:512
0.222:474
0.238:474
0.238:452
0.238:446
0.238:456
0.238:461
0.239:417
0.239:382
0.239:385
0.239:407
0.243:445
0.243:480
0.243:506
0.243:522
0.243:538
0.243:558
0.243:616
0.243:635
0.243:618
0.243:584
0.246:554
0.246:523
0.246:501
0.246:487
0.246:487
0.246:490
0.246:452
0.247:434
0.247:440
0.251:446
0.251:462
0.267:505
0.267:542
0.267:561
0.267:578
0.267:589
0.267:639
0.270:653
0.270:631
0.270:597
0.271:566
0.271:509
0.271:474
0.271:462
0.271:471
0.271:476
0.275:433
0.275:429
0.275:443
0.275:452
0.275:452
0.275:480
0.275:518
0.275:552
0.275:582
0.275:612
0.279:663
0.279:660
0.279:627
0.279:584
0.279:537
0.296:537
0.296:494
0.296:473
0.296:475
0.296:480
0.300:462
0.300:416
0.300:396
0.300:428
0.300:443
0.300:467
0.300:502
0.300:526
0.300:540
0.304:551
0.304:572
0.305:621
0.305:614
0.305:586
0.305:548
0.305:510
0.305:462
0.305:424
0.305:412
0.308:418
0.308:397
0.308:357
0.308:353
0.308:374
0.308:412
0.324:437
0.324:458
0.328:468
0.328:478
0.328:486
0.328:511
0.329:558
0.329:553
0.329:524
0.329:477
0.329:422
0.333:368
0.333:344
0.333:329
0.333:340
0.333:338
0.333:309
0.334:327
0.334:350
0.334:364
0.334:372
0.338:388
0.338:410
0.338:457
0.339:467
0.339:468
0.339:504
0.339:508
0.339:490
0.340:460
0.353:460
0.357:412
0.357:358
0.358:343
0.358:361
0.358:383
0.358:367
0.358:343
0.358:354
0.358:377
0.361:401
0.361:416
0.361:430
0.361:433
0.361:441
0.361:450
0.361:483
0.362:530
0.362:527
0.362:499
0.365:456
0.365:417
0.365:382
0.365:369
0.366:369
0.366:381
0.366:348
0.366:318
0.366:320
0.369:345
0.385:380
0.385:411
0.385:436
0.385:449
0.385:454
0.385:461
0.385:500
0.390:537
0.390:524
0.390:490
0.391:449
0.391:418
0.391:386
0.391:373
0.391:374
0.391:378
0.391:337
0.394:301
0.394:316
0.394:348
0.394:389
0.394:415
0.394:438
0.394:446
0.394:454
0.394:467
0.398:515
0.398:549
0.398:540
0.398:511
0.414:511
0.414:475
0.414:441
0.414:412
0.414:401
0.414:402
0.418:408
0.418:366
0.418:336
0.419:350
0.419:375
0.419:407
0.419:438
0.419:454
0.419:461
0.419:464
0.423:473
0.423:531
0.423:576
0.423:569
0.423:537
0.423:510
0.423:472
0.423:438
0.423:414
0.427:400
0.427:410
0.427:376
0.427:355
0.427:379
0.442:415
0.442:453
0.442:480
0.447:501
0.447:509
0.447:510
0.447:525
0.447:583
0.447:611
0.447:598
0.447:558
0.447:510
0.447:477
0.450:453
0.450:446
0.450:440
0.451:450
0.451:424
0.451:401
0.451:407
0.451:430
0.451:459
0.455:475
0.456:481
0.456:469
0.456:467
0.456:476
0.456:531
0.456:562
0.456:549
0.472:549
0.472:527
0.476:482
0.476:453
0.476:431
0.476:419
0.476:412
0.476:413
0.476:382
0.476:369
0.476:387
0.476:403
0.480:421
0.480:431
0.480:437
0.480:434
0.480:450
0.480:466
0.480:525
0.480:559
0.480:549
0.484:516
0.484:477
0.484:449
0.484:440
0.484:431
0.484:429
0.484:430
0.484:398
0.484:377
0.504:392
0.504:411
0.504:432
0.504:438
0.504:435
0.504:426
0.505:440
0.505:469
0.505:541
0.508:569
0.508:554
0.508:527
0.508:499
0.508:467
0.509:450
0.509:439
0.509:434
0.509:425
0.513:388
0.513:371
0.513:381
0.513:409
0.513:435
0.513:455
0.513:467
0.513:477
0.513:495
0.514:524
0.517:578
0.517:588
0.533:588
0.533:569
0.533:539
0.533:513
0.533:486
0.533:474
0.533:468
0.533:471
0.536:455
0.536:429
0.536:431
0.536:438
0.538:452
0.538:471
0.538:493
0.538:509
0.538:518
0.541:538
0.541:573
0.541:626
0.541:625
0.541:603
0.541:572
0.541:541
0.541:513
0.541:499
0.541:490
0.544:491
0.544:482
0.544:458
0.561:448
0.561:457
0.561:475
0.561:489
0.566:503
0.566:513
0.566:530
0.566:547
0.566:583
0.566:630
0.566:633
0.566:609
0.566:572
0.566:545
0.570:520
0.571:515
0.571:506
0.571:516
0.571:497
0.571:465
0.571:457
0.571:467
0.572:490
0.574:501
0.574:519
0.574:525
0.574:531
0.574:549
0.574:572
0.574:593
0.590:593
0.590:587
0.590:574
0.595:560
0.595:549
0.595:539
0.595:526
0.595:512
0.595:519
0.595:498
0.595:467
0.595:465
0.595:467
0.599:476
0.599:480
0.599:501
0.599:514
0.599:526
0.599:542
0.599:581
0.599:613
0.599:602
0.599:578
0.602:551
0.602:521
0.602:490
0.602:476
0.602:470
0.602:477
0.603:450
0.622:413
0.623:396
0.623:403
0.623:425
0.623:441
0.623:470
0.623:489
0.623:501
0.623:510
0.623:544
0.628:570
0.628:564
0.628:542
0.628:515
0.628:481
0.628:459
0.628:457
0.628:458
0.628:468
0.632:438
0.632:403
0.632:389
0.632:398
0.632:424
0.632:439
0.632:459
0.632:469
0.632:479
0.632:496
0.635:540
0.652:540
0.652:572
0.652:567
0.652:545
0.652:515
0.652:485
0.652:457
0.652:447
0.652:439
0.655:444
0.656:418
0.656:389
0.656:382
0.656:398
0.656:421
0.656:427
0.657:439
0.657:447
0.660:462
0.660:485
0.660:529
0.660:552
0.660:544
0.660:519
0.660:494
0.660:474
0.660:449
0.660:435
0.664:433
0.664:436
0.680:412
0.680:391
0.680:390
0.680:402
0.680:420
0.680:431
0.685:448
0.685:462
0.685:479
0.685:488
0.685:536
0.685:561
0.685:550
0.685:523
0.685:498
0.689:478
0.689:452
0.689:431
0.690:420
0.690:420
0.690:397
0.690:377
0.690:385
0.690:403
0.690:433
0.693:454
0.693:474
0.693:482
0.693:488
0.693:507
0.708:507
0.709:560
0.709:586
0.709:578
0.709:566
0.713:543
0.713:521
0.713:510
0.713:506
0.713:503
0.713:510
0.713:485
0.713:464
0.713:466
0.717:469
0.717:489
0.717:500
0.717:519
0.717:527
0.717:542
0.717:557
0.717:614
0.717:631
0.717:612
0.721:583
0.721:559
0.721:540
0.721:529
0.722:520
0.722:520
0.737:516
0.737:486
0.741:461
0.741:471
0.741:493
0.741:513
0.742:520
0.742:517
0.742:507
0.742:525
0.742:559
0.746:613
0.746:631
0.746:607
0.746:570
0.746:542
0.746:515
0.747:493
0.747:471
0.747:467
0.747:468
0.749:443
0.749:431
0.749:437
0.750:450
0.750:452
0.750:451
0.750:452
0.750:458
0.750:475
0.765:475
0.770:498
0.771:546
0.771:555
0.771:537
0.771:515
0.771:493
0.772:461
0.772:445
0.772:437
0.775:446
0.775:447
0.775:423
0.775:413
0.775:421
0.775:436
0.775:449
0.775:465
0.775:465
0.775:468
0.779:481
0.779:508
0.779:556
0.779:567
0.779:551
0.779:517
0.779:496
0.779:469
0.779:455
0.783:441
0.799:443
0.799:440
0.799:412
0.799:390
0.799:401
0.799:424
0.800:433
0.803:445
0.804:450
0.804:449
0.804:459
0.804:486
0.804:533
0.804:544
0.805:525
0.805:496
0.805:476
0.807:446
0.807:436
0.807:437
0.807:447
0.807:423
0.807:395
0.807:387
0.807:395
0.807:408
0.812:414
0.812:439
0.812:446
0.812:454
0.828:454
0.828:475
0.828:518
0.828:553
0.828:557
0.828:535
0.832:497
0.832:469
0.832:436
0.832:424
0.832:421
0.832:436
0.832:419
0.832:393
0.832:390
0.832:407
0.835:438
0.835:449
0.836:463
0.837:471
0.837:478
0.837:492
0.837:526
0.838:559
0.838:537
0.840:495
0.840:461
0.840:441
0.840:427
0.840:418
0.856:406
0.856:412
0.856:396
0.861:385
0.861:402
0.861:432
0.861:471
0.861:490
0.861:517
0.861:548
0.861:577
0.861:607
0.861:669
0.864:724
0.864:752
0.865:764
0.865:768
0.865:786
0.865:802
0.865:837
0.865:885
0.865:946
0.869:976
0.869:990
0.869:989
0.869:989
0.869:988
0.869:988
0.869:987
0.869:986
0.885:986
0.885:986
0.889:985
0.889:985
0.889:984
0.889:985
0.889:985
0.890:987
0.890:988
0.890:989
0.890:966
0.890:876
0.893:799
0.893:696
0.893:587
0.893:498
0.893:409
0.893:335
0.893:279
0.893:251
0.893:230
0.898:245
0.898:281
0.898:351
0.898:391
0.898:392
0.898:378
0.898:364
0.898:348
0.898:335
0.918:328
0.918:327
0.918:336
0.918:309
0.918:303
0.918:322
0.918:350
0.918:378
0.922:389
0.922:410
0.922:421
0.922:434
0.922:452
0.922:499
0.922:513
0.923:495
0.923:475
0.923:449
0.926:425
0.926:404
0.926:391
0.926:395
0.926:401
0.926:377
0.926:355
0.926:348
0.926:338
0.926:356
0.929:377
0.929:399
0.946:399
0.946:422
0.946:450
0.946:469
0.946:512
0.946:523
0.946:508
0.946:477
0.950:441
0.950:413
0.950:391
0.950:393
0.950:405
0.950:408
0.950:369
0.950:347
0.950:356
0.955:379
0.955:402
0.955:414
0.955:426
0.955:436
0.955:449
0.955:463
0.955:512
0.955:528
0.955:512
0.959:485
0.959:449
0.959:416
0.975:404
0.975:405
0.975:408
0.975:403
0.979:385
0.979:376
0.980:384
0.980:403
0.980:422
0.980:442
0.980:457
0.980:460
0.980:472
0.980:497
0.984:551
0.984:563
0.984:540
0.984:514
0.984:492
0.984:468
0.984:456
0.984:445
0.984:449
0.987:448
0.987:426
0.987:423
0.987:435
0.987:449
0.987:460
0.987:469
1.003:469
1.003:472
1.003:478
1.008:491
1.008:515
1.008:559
1.008:564
1.008:550
1.008:531
1.008:513
1.008:481
1.008:467
1.008:457
1.012:462
1.012:452
1.012:427
1.012:421
1.012:428
1.012:446
1.012:457
1.012:472
1.012:467
1.012:457
1.015:457
1.015:477
1.015:514
1.015:514
1.015:501
1.015:479
1.016:461
1.036:439
1.037:427
1.037:422
1.037:434
1.037:416
1.037:387
1.037:383
1.037:390
1.037:413
1.037:425
1.040:447
1.041:456
1.041:466
1.041:484
1.041:521
1.041:565
1.041:562
1.041:541
1.041:511
1.045:490
1.045:468
1.045:465
1.045:467
1.045:480
1.045:450
1.045:421
1.045:416
1.045:427
1.045:445
1.049:455
1.065:455
1.065:478
1.065:486
1.065:501
1.065:517
1.065:557
1.065:591
1.065:579
1.065:557
1.070:541
1.071:527
1.071:506
1.071:493
1.071:478
1.071:480
1.071:466
1.071:450
1.071:450
1.074:467
1.074:487
1.074:501
1.074:521
1.074:529
1.074:535
1.074:546
1.074:590
1.074:626
1.074:626
1.078:599
1.078:569
1.094:550
1.094:532
1.094:532
1.094:534
1.094:542
1.094:517
1.098:484
1.098:479
1.098:493
1.098:513
1.098:522
1.098:545
1.098:561
1.099:576
1.099:589
1.103:628
1.103:654
1.104:643
1.104:621
1.104:598
1.104:579
1.104:556
1.104:544
1.105:539
1.105:544
1.106:509
1.106:488
1.106:485
1.106:502
1.106:528
1.122:528
1.122:531
1.122:543
1.122:540
1.122:549
1.127:562
1.127:612
1.127:632
1.127:611
1.127:579
1.127:545
1.127:521
1.127:501
1.127:489
1.131:481
1.131:487
1.131:461
1.131:432
1.131:429
1.131:437
1.131:454
1.131:462
1.131:480
1.131:489
1.135:501
1.135:515
1.135:558
1.135:575
1.135:556
1.135:525
1.151:496
1.151:466
1.155:442
1.155:432
1.155:425
1.155:426
1.155:393
1.155:368
1.155:375
1.156:386
1.156:398
1.160:406
1.160:418
1.160:420
1.160:436
1.160:457
1.160:503
1.160:517
1.160:497
1.160:474
1.160:448
1.163:418
1.163:402
1.163:392
1.163:385
1.163:382
1.163:347
1.163:333
1.163:348
1.164:365
1.179:365
1.184:383
1.184:395
1.184:403
1.184:404
1.184:412
1.184:433
1.184:481
1.184:491
1.184:472
1.187:449
1.189:432
1.189:408
1.189:397
1.189:386
1.189:387
1.189:384
1.189:342
1.189:325
1.189:333
1.193:347
1.193:361
1.193:378
1.193:390
1.193:395
1.193:415
1.193:441
1.193:486
1.193:501
1.196:482
1.213:457
1.213:432
1.213:410
1.213:392
1.213:377
1.213:385
1.213:377
1.217:334
1.217:330
1.217:350
1.217:376
1.218:397
1.218:418
1.218:424
1.218:429
1.218:441
1.219:467
1.220:516
1.221:522
1.221:501
1.221:466
1.221:440
1.221:416
1.221:401
1.222:391
1.222:401
1.225:395
1.225:368
1.225:355
1.225:361
1.241:361
1.241:378
1.241:394
1.241:416
1.241:433
1.241:436
1.245:444
1.245:466
1.245:517
1.246:525
1.246:504
1.246:476
1.246:451
1.246:420
1.246:408
1.246:406
1.249:415
1.249:400
1.249:378
1.249:378
1.249:390
1.249:409
1.249:415
1.249:428
1.249:434
1.254:445
1.254:458
1.254:491
1.254:529
1.254:532
1.269:513
1.269:481
1.270:457
1.274:435
1.274:431
1.274:434
1.274:448
1.274:427
1.274:388
1.274:378
1.274:381
1.274:395
1.278:408
1.278:436
1.278:455
1.278:471
1.278:490
1.278:525
1.278:556
1.278:552
1.278:522
1.278:485
1.283:464
1.283:443
1.283:433
1.283:419
1.283:433
1.283:415
1.283:384
1.283:383
1.299:383
1.299:405
1.303:430
1.303:441
1.303:456
1.304:461
1.304:476
1.304:491
1.304:530
1.304:559
1.304:553
1.304:533
1.306:500
1.306:476
1.306:452
1.306:442
1.307:438
1.307:451
1.307:427
1.307:406
1.307:406
1.311:417
1.311:436
1.311:445
1.311:460
1.311:470
1.311:485
1.311:503
1.311:548
1.311:570
1.331:553
1.331:523
1.331:494
1.331:473
1.331:450
1.331:440
1.331:434
1.331:446
1.336:429
1.336:404
1.336:394
1.336:409
1.336:433
1.337:446
1.337:466
1.337:474
1.337:481
1.337:492
1.340:539
1.340:563
1.340:556
1.340:530
1.340:498
1.340:471
1.340:450
1.340:439
1.340:434
1.344:440
1.344:414
1.344:397
1.360:397
1.360:401
1.360:410
1.360:430
1.360:438
1.360:453
1.360:472
1.360:489
1.364:499
1.364:545
1.364:560
1.364:545
1.364:521
1.364:495
1.364:472
1.364:450
1.364:442
1.369:441
1.369:446
1.369:421
1.369:403
1.370:406
1.370:417
1.370:437
1.371:449
1.371:461
1.371:464
1.372:473
1.373:489
1.373:532
1.389:542
1.389:523
1.389:504
1.389:491
1.393:468
1.393:450
1.393:441
1.393:436
1.393:435
1.393:397
1.393:379
1.393:391
1.393:412
1.393:432
1.397:445
1.397:458
1.397:465
1.397:481
1.397:499
1.397:546
1.397:560
1.397:541
1.397:512
1.401:478
1.401:453
1.401:441
1.401:433
1.401:437
1.401:436
1.401:405
1.417:405
1.417:390
1.417:401
1.422:416
1.422:428
1.422:441
1.422:448
1.422:450
1.422:463
1.422:486
1.422:535
1.422:548
1.422:530
1.425:503
1.425:472
1.425:441
1.426:432
1.426:428
1.426:437
1.426:429
1.426:397
1.426:387
1.426:398
1.429:418
1.429:437
1.429:456
1.429:459
1.429:464
1.429:481
1.429:500
1.451:541
1.451:546
1.451:530
1.451:498
1.451:474
1.451:450
1.451:441
1.451:429
1.451:425
1.451:414
1.455:385
1.455:380
1.455:396
1.455:416
1.455:433
1.455:447
1.455:450
1.455:459
1.455:483
1.459:514
1.459:556
1.459:562
1.459:545
1.459:507
1.459:474
1.459:450
1.459:452
1.459:451
1.459:452
1.463:436
1.479:436
1.479:403
1.479:391
1.479:403
1.479:432
1.479:447
1.479:462
1.479:467
1.479:472
1.483:481
1.483:513
1.483:553
1.483:559
1.483:542
1.483:513
1.483:491
1.483:466
1.483:457
1.487:453
1.487:465
1.487:443
1.488:408
1.488:392
1.488:404
1.488:432
1.488:449
1.488:471
1.488:476
1.491:486
1.491:499
1.507:536
1.507:577
1.507:573
1.507:554
1.507:527
1.507:504
1.511:485
1.511:476
1.512:472
1.512:488
1.512:470
1.512:444
1.512:445
1.512:456
1.512:482
1.516:496
1.516:513
1.516:519
1.516:529
1.516:547
1.516:596
1.516:633
1.516:629
1.516:601
1.516:570
1.519:542
1.519:516
1.519:501
1.519:497
1.519:507
1.536:507
1.536:485
1.536:452
1.536:448
1.537:462
1.540:483
1.540:494
1.540:512
1.540:522
1.541:532
1.541:547
1.541:595
1.541:626
1.541:619
1.545:586
1.545:552
1.545:532
1.545:507
1.545:484
1.545:477
1.545:490
1.545:466
1.545:442
1.545:434
1.549:447
1.549:465
1.549:473
1.549:483
1.549:494
1.549:507
1.564:515
1.564:560
1.569:590
1.569:581
1.569:548
1.570:517
1.570:487
1.570:467
1.570:460
1.570:454
1.570:457
1.573:427
1.573:397
1.573:391
1.573:409
1.573:439
1.573:458
1.573:481
1.573:488
1.573:502
1.573:513
1.577:555
1.577:578
1.577:568
1.577:543
1.577:510
1.577:481
1.577:461
1.577:453
1.577:449
1.593:449
1.597:452
1.597:423
1.598:397
1.598:400
1.598:414
1.598:439
1.598:451
1.598:468
1.598:475
1.602:488
1.602:507
1.602:556
1.602:581
1.603:564
1.603:538
1.603:507
1.603:476
1.603:454
1.603:442
1.606:439
1.606:440
1.606:415
1.606:394
1.606:397
1.606:414
1.606:432
1.606:443
1.606:459
1.610:460
1.625:474
1.626:496
1.626:544
1.626:563
1.626:552
1.626:527
1.626:496
1.631:469
1.631:454
1.631:443
1.631:441
1.631:438
1.631:411
1.631:397
1.631:404
1.631:416
1.635:431
1.635:444
1.635:450
1.635:464
1.635:483
1.635:505
1.635:552
1.635:562
1.635:546
1.635:523
1.639:501
1.639:470
1.639:451
1.639:442
1.654:442
1.655:444
1.655:434
1.655:403
1.655:385
1.655:389
1.659:402
1.659:409
1.659:422
1.659:431
1.659:441
1.659:459
1.659:489
1.659:555
1.659:581
1.659:574
1.662:563
1.662:553
1.663:539
1.663:541
1.663:557
1.663:587
1.663:610
1.663:616
1.663:645
1.667:696
1.667:757
1.667:816
1.667:878
1.667:936
1.683:988
1.683:989
1.683:989
1.687:987
1.688:987
1.688:986
1.688:986
1.688:986
1.688:986
1.688:986
1.688:986
1.688:986
1.692:986
1.692:987
1.692:988
1.692:988
1.692:989
1.692:989
1.692:963
1.692:876
1.692:803
1.693:739
1.696:685
1.696:610
1.696:501
1.696:404
1.697:326
1.697:277
1.697:250
1.697:256
1.711:256
1.711:273
1.716:302
1.716:300
1.716:286
1.716:287
1.716:306
1.716:335
1.717:357
1.717:384
1.717:402
1.717:415
1.720:433
1.720:468
1.720:496
1.720:486
1.720:457
1.720:424
1.720:398
1.721:372
1.721:367
1.725:369
1.725:386
1.725:366
1.725:331
1.725:310
1.725:322
1.725:350
1.725:357
1.725:366
1.745:375
1.745:393
1.745:413
1.745:453
1.745:486
1.745:478
1.745:452
1.745:420
1.750:395
1.750:377
1.750:366
1.750:355
1.750:366
1.750:347
1.750:321
1.750:321
1.750:337
1.750:364
1.753:373
1.753:391
1.753:399
1.753:410
1.753:424
1.753:466
1.753:498
1.753:494
1.753:473
1.757:442
1.757:417
1.757:395
1.773:395
1.773:385
1.773:382
1.773:397
1.773:374
1.773:350
1.773:348
1.777:363
1.777:385
1.777:399
1.777:414
1.777:423
1.777:437
1.777:455
1.777:501
1.778:524
1.778:517
1.782:493
1.782:464
1.782:441
1.782:425
1.782:419
1.782:418
1.782:430
1.782:403
1.782:378
1.782:376
1.785:392
1.785:412
1.786:425
1.802:440
1.802:444
1.802:456
1.802:465
1.807:500
1.807:517
1.808:510
1.808:488
1.808:468
1.808:447
1.808:432
1.808:422
1.808:423
1.808:427
1.811:403
1.811:388
1.811:393
1.811:401
1.811:415
1.811:426
1.811:444
1.811:459
1.811:471
1.815:482
1.815:536
1.815:557
1.815:547
1.815:523
1.815:494
1.815:464
1.831:464
1.831:445
1.831:435
1.835:436
1.835:449
1.836:431
1.836:409
1.836:405
1.836:417
1.836:445
1.836:462
1.836:468
1.837:469
1.840:486
1.840:504
1.840:552
1.840:570
1.840:561
1.840:536
1.840:508
1.840:482
1.840:467
1.844:457
1.844:453
1.844:448
1.844:414
1.844:400
1.844:413
1.844:434
1.844:455
1.864:470
1.864:485
1.864:491
1.864:509
1.864:533
1.864:585
1.864:596
1.864:575
1.864:551
1.864:524
1.868:491
1.868:476
1.868:469
1.868:479
1.868:473
1.868:437
1.868:421
1.868:433
1.868:453
1.872:469
1.872:486
1.872:500
1.872:513
1.872:531
1.872:554
1.872:600
1.872:610
1.872:594
1.872:567
1.876:542
1.892:542
1.892:517
1.892:509
1.892:501
1.892:507
1.892:500
1.892:468
1.892:457
1.892:468
1.897:491
1.897:506
1.897:526
1.897:531
1.897:535
1.897:543
1.897:578
1.897:637
1.897:650
1.901:627
1.901:594
1.901:568
1.901:539
1.901:528
1.901:522
1.901:528
1.901:516
1.901:487
1.901:475
1.905:481
1.905:498
1.920:508
1.920:525
1.921:534
1.921:540
1.921:550
1.921:578
1.925:621
1.925:626
1.925:607
1.925:575
1.925:548
1.925:518
1.925:500
1.925:494
1.925:504
1.929:486
1.929:459
1.929:448
1.929:459
1.929:481
1.929:491
1.929:509
1.929:513
1.929:518
1.929:530
1.932:561
1.932:596
1.933:592
1.933:567
1.933:537
1.950:537
1.950:513
1.950:479
1.950:459
1.950:452
1.954:462
1.954:441
1.954:414
1.954:404
1.954:409
1.954:427
1.954:436
1.954:452
1.954:453
1.958:459
1.958:472
1.958:508
1.958:539
1.958:533
1.958:511
1.958:486
1.958:458
1.958:432
1.958:422
1.962:416
1.962:423
1.962:395
1.962:363
1.962:359
1.962:370
1.978:387
1.978:401
1.982:415
1.982:419
1.982:432
1.982:448
1.982:489
1.983:518
1.983:511
1.983:482
1.983:453
1.986:428
1.986:406
1.986:398
1.987:393
1.987:399
1.987:374
1.987:345
1.987:341
1.988:354
1.988:376
1.990:387
1.990:404
1.990:415
1.990:427
1.990:438
1.990:484
1.991:518
1.991:510
1.991:484
2.006:484
2.011:457
2.011:435
2.011:416
2.011:397
2.011:381
2.011:386
2.011:365
2.011:344
2.011:351
2.016:366
2.016:388
2.016:398
2.016:413
2.016:419
2.016:431
2.016:447
2.016:496
2.016:528
2.016:518
2.019:490
2.019:459
2.019:428
2.019:402
2.019:385
2.020:380
2.020:391
2.020:366
2.020:351
2.023:361
2.040:374
2.040:394
2.040:402
2.040:418
2.040:423
2.040:436
2.040:455
2.044:502
2.044:527
2.044:514
2.044:486
2.044:461
2.044:436
2.044:412
2.044:401
2.044:406
2.048:415
2.048:384
2.048:363
2.048:372
2.048:390
2.048:415
2.048:428
2.048:432
2.048:435
2.048:453
2.052:472
2.052:519
2.053:537
2.053:523
2.069:523
2.069:499
2.069:475
2.069:445
2.069:426
2.069:421
2.073:422
2.073:420
2.073:391
2.073:379
2.073:392
2.073:408
2.073:423
2.074:434
2.074:442
2.074:446
2.076:465
2.076:491
2.076:544
2.076:561
2.076:543
2.076:513
2.076:490
2.076:464
2.076:449
2.081:442
2.081:442
2.081:437
2.081:407
2.081:392
2.097:398
2.097:416
2.097:434
2.102:453
2.102:464
2.103:471
2.103:488
2.103:509
2.103:558
2.103:565
2.103:542
2.104:509
2.106:487
2.106:459
2.106:449
2.106:445
2.106:458
2.106:453
2.106:423
2.106:407
2.106:416
2.106:438
2.110:450
2.110:463
2.110:471
2.110:479
2.110:492
2.110:510
2.110:548
2.110:555
2.125:555
2.125:544
2.130:520
2.130:495
2.130:466
2.130:450
2.130:447
2.130:454
2.130:442
2.130:416
2.130:407
2.130:415
2.134:434
2.134:445
2.134:462
2.134:471
2.134:483
2.135:499
2.135:524
2.135:565
2.135:567
2.138:549
2.138:520
2.138:495
2.138:470
2.138:457
2.139:446
2.139:447
2.139:429
2.139:403
2.159:399
2.159:410
2.159:433
2.159:446
2.159:465
2.159:471
2.159:486
2.159:503
2.163:535
2.163:577
2.163:581
2.163:557
2.163:524
2.163:494
2.163:466
2.163:455
2.163:449
2.163:463
2.167:442
2.167:413
2.167:409
2.167:420
2.168:441
2.168:446
2.168:466
2.168:471
2.168:478
2.171:493
2.171:533
2.172:565
2.187:565
2.188:565
2.188:542
2.188:510
2.188:486
2.188:463
2.188:453
2.191:446
2.191:453
2.191:426
2.191:400
2.191:398
2.191:415
2.191:441
2.191:448
2.191:465
2.191:472
2.196:482
2.196:494
2.196:533
2.196:569
2.196:565
2.196:540
2.196:507
2.196:489
2.196:469
2.196:453
2.199:446
2.199:456
2.199:428
2.215:401
2.215:398
2.215:415
2.215:438
2.219:452
2.220:471
2.220:481
2.220:491
2.220:505
2.220:546
2.220:577
2.220:573
2.220:536
2.222:498
2.224:469
2.224:445
2.224:433
2.224:427
2.224:439
2.224:420
2.224:403
2.224:406
2.224:419
2.228:439
2.228:449
2.228:461
2.228:465
2.228:477
2.228:497
2.228:542
2.244:542
2.244:569
2.244:560
2.249:539
2.249:513
2.249:485
2.249:457
2.249:439
2.249:428
2.249:439
2.249:422
2.249:404
2.249:408
2.253:420
2.253:440
2.253:449
2.253:463
2.254:471
2.254:485
2.254:498
2.254:546
2.254:566
2.257:552
2.257:529
2.257:501
2.257:475
2.257:453
2.258:441
2.258:437
2.258:445
2.278:418
2.278:401
2.278:401
2.278:413
2.278:434
2.278:450
2.278:463
2.278:468
2.278:485
2.279:505
2.282:555
2.282:567
2.282:556
2.282:532
2.282:505
2.282:474
2.282:454
2.282:443
2.282:444
2.285:450
2.286:424
2.286:403
2.286:407
2.287:422
2.287:442
2.287:458
2.287:474
2.287:479
2.287:493
2.290:515
2.305:515
2.305:567
2.305:579
2.307:560
2.307:532
2.307:503
2.307:474
2.307:463
2.307:459
2.310:461
2.310:455
2.310:426
2.310:411
2.310:423
2.310:443
2.310:458
2.310:465
2.310:473
2.315:477
2.315:492
2.315:512
2.315:559
2.315:573
2.315:560
2.315:544
2.315:521
2.315:486
2.315:474
2.317:467
2.317:472
2.335:467
2.335:439
2.335:434
2.335:445
2.335:465
2.335:486
2.339:510
2.339:524
2.339:533
2.339:551
2.339:579
2.340:629
2.340:640
2.340:614
2.340:572
2.343:543
2.343:516
2.343:506
2.343:492
2.343:493
2.343:485
2.343:462
2.343:450
2.343:453
2.343:475
2.347:491
2.347:509
2.347:519
2.347:525
2.347:541
2.362:541
2.362:572
2.363:619
2.363:624
2.363:602
2.367:572
2.367:546
2.367:515
2.367:501
2.367:495
2.367:500
2.367:479
2.368:456
2.368:440
2.372:443
2.372:464
2.372:477
2.372:495
2.372:498
2.372:503
2.372:514
2.372:543
2.373:576
2.373:573
2.376:551
2.376:526
2.376:505
2.376:477
2.376:460
2.376:453
2.392:460
2.396:438
2.396:409
2.396:402
2.396:412
2.396:432
2.396:445
2.396:463
2.396:472
2.396:488
2.396:506
2.401:543
2.401:578
2.401:571
2.401:547
2.401:514
2.401:490
2.401:464
2.401:454
2.401:448
2.401:459
2.404:433
2.405:404
2.405:398
2.405:411
2.405:437
2.405:454
2.405:469
2.405:481
2.405:490
2.420:490
2.425:493
2.425:528
2.425:564
2.425:567
2.425:547
2.425:516
2.425:487
2.425:460
2.425:451
2.429:443
2.429:451
2.429:428
2.429:399
2.429:396
2.429:409
2.429:431
2.429:442
2.429:458
2.429:469
2.432:477
2.432:485
2.432:526
2.433:561
2.433:555
2.433:534
2.433:505
2.433:481
2.433:461
2.436:449
2.453:443
2.454:453
2.454:429
2.454:402
2.454:403
2.454:417
2.454:440
2.457:452
2.457:463
2.457:468
2.457:481
2.457:493
2.457:544
2.457:570
2.457:560
2.457:535
2.462:501
2.462:473
2.462:456
2.462:447
2.462:443
2.462:450
2.462:421
2.462:395
2.462:393
2.462:401
2.466:419
2.466:422
2.466:428
2.466:434
2.482:434
2.482:454
2.482:467
2.482:512
2.482:536
2.482:533
2.486:523
2.486:509
2.486:505
2.486:505
2.487:509
2.487:523
2.487:546
2.488:544
2.488:547
2.488:582
2.490:636
2.490:708
2.490:765
2.490:826
2.490:876
2.490:937
2.490:990
2.490:989
2.490:988
2.495:988
2.495:987
2.495:987
2.495:987
2.495:987
2.510:986
2.510:986
2.510:986
2.515:986
2.515:986
2.515:985
2.515:986
2.515:986
2.515:987
2.515:988
2.515:989
2.515:990
2.518:913
2.518:877
2.518:806
2.519:686
2.519:542
2.519:411
2.519:313
2.519:258
2.519:229
2.519:242
2.523:264
2.523:260
2.523:266
2.523:285
2.523:310
2.523:337
2.523:361
2.523:375
2.539:375
2.539:386
2.544:408
2.544:438
2.544:493
2.544:502
2.544:480
2.544:446
2.544:413
2.544:386
2.544:371
2.548:363
2.548:367
2.548:361
2.548:330
2.548:315
2.548:324
2.548:345
2.548:359
2.548:375
2.548:380
2.553:381
2.553:396
2.553:420
2.553:467
2.553:474
2.553:458
2.553:433
2.553:411
2.553:382
2.572:365
2.572:356
2.572:361
2.572:355
2.572:326
2.572:315
2.572:324
2.572:343
2.576:359
2.576:376
2.576:387
2.576:397
2.576:409
2.576:434
2.576:480
2.576:486
2.576:467
2.576:442
2.581:419
2.581:394
2.581:379
2.581:372
2.581:379
2.581:372
2.581:347
2.581:341
2.581:351
2.585:372
2.586:383
2.586:401
2.601:401
2.601:411
2.601:424
2.601:442
2.601:473
2.601:514
2.601:514
2.604:490
2.604:454
2.605:435
2.605:415
2.605:408
2.605:404
2.605:412
2.605:395
2.605:370
2.605:367
2.609:375
2.609:389
2.609:399
2.609:422
2.609:438
2.609:452
2.609:467
2.609:500
2.609:536
2.613:538
2.613:517
2.613:488
2.613:466
2.629:439
2.629:427
2.629:422
2.629:433
2.634:416
2.634:394
2.634:388
2.634:395
2.634:414
2.634:423
2.634:446
2.634:456
2.634:470
2.634:487
2.637:528
2.638:563
2.638:556
2.638:535
2.638:506
2.638:482
2.638:458
2.638:449
2.638:445
2.642:455
2.642:431
2.642:406
2.642:401
2.642:414
2.642:438
2.642:448
2.657:448
2.657:464
2.657:474
2.663:487
2.663:501
2.663:549
2.663:580
2.663:571
2.663:545
2.663:514
2.663:486
2.663:467
2.663:459
2.666:462
2.666:472
2.666:447
2.666:426
2.666:425
2.666:436
2.666:459
2.666:467
2.666:485
2.670:497
2.670:510
2.670:524
2.670:567
2.670:598
2.670:593
2.671:568
2.671:537
2.691:510
2.691:488
2.691:481
2.691:481
2.691:491
2.691:465
2.691:439
2.692:436
2.692:452
2.692:479
2.695:489
2.695:505
2.695:512
2.695:530
2.695:548
2.695:599
2.695:619
2.695:613
2.695:593
2.699:564
2.699:539
2.699:515
2.699:503
2.699:500
2.699:513
2.699:482
2.699:457
2.699:465
2.699:484
2.702:506
2.719:506
2.719:522
2.720:535
2.720:542
2.720:555
2.720:570
2.720:618
2.720:637
2.720:625
2.723:602
2.723:575
2.723:545
2.724:525
2.724:518
2.724:521
2.724:526
2.724:497
2.724:476
2.728:477
2.728:495
2.728:518
2.728:527
2.728:538
2.728:541
2.728:550
2.728:569
2.728:622
2.728:636
2.732:618
2.732:590
2.748:564
2.748:536
2.748:522
2.748:506
2.748:502
2.751:498
2.751:467
2.751:449
2.753:454
2.753:472
2.753:493
2.753:505
2.753:512
2.753:515
2.754:530
2.757:549
2.757:598
2.757:607
2.757:583
2.757:551
2.757:524
2.757:492
2.757:472
2.757:460
2.757:461
2.760:454
2.760:424
2.760:409
2.761:413
2.761:422
2.776:422
2.776:432
2.776:444
2.776:448
2.776:456
2.781:475
2.781:502
2.781:546
2.781:547
2.781:519
2.781:484
2.781:459
2.781:429
2.781:416
2.785:407
2.785:410
2.786:400
2.786:371
2.786:356
2.786:366
2.786:385
2.786:398
2.786:412
2.787:417
2.788:423
2.788:442
2.788:468
2.788:508
2.789:512
2.789:486
2.805:455
2.810:429
2.810:397
2.810:385
2.810:377
2.810:385
2.810:371
2.810:345
2.810:341
2.810:349
2.810:365
2.814:376
2.814:395
2.814:402
2.814:411
2.814:431
2.814:457
2.814:504
2.814:509
2.814:486
2.818:451
2.818:425
2.818:398
2.818:387
2.819:383
2.819:396
2.819:376
2.819:350
2.819:345
2.819:357
2.833:357
2.838:374
2.838:381
2.838:403
2.838:409
2.838:420
2.839:437
2.839:471
2.839:513
2.839:512
2.843:488
2.843:455
2.843:434
2.843:409
2.843:400
2.843:393
2.843:403
2.843:384
2.843:358
2.843:353
2.846:365
2.846:388
2.846:397
2.846:414
2.846:423
2.846:438
2.846:457
2.846:496
2.846:529
2.851:524
2.867:500
2.867:470
2.867:447
2.867:423
2.867:413
2.867:408
2.867:417
2.871:399
2.871:373
2.871:370
2.871:374
2.871:394
2.872:409
2.872:428
2.872:441
2.872:458
2.875:476
2.875:515
2.875:541
2.875:536
2.875:512
2.875:482
2.875:458
2.875:436
2.876:422
2.876:417
2.879:423
2.879:401
2.879:378
2.879:378
2.895:378
2.895:392
2.895:416
2.895:431
2.895:449
2.895:456
2.900:466
2.900:480
2.900:527
2.900:555
2.900:547
2.900:521
2.900:489
2.900:466
2.900:449
2.900:437
2.904:431
2.904:435
2.904:410
2.904:388
2.904:393
2.904:411
2.904:430
2.904:441
2.904:453
2.908:457
2.908:471
2.908:496
2.908:546
2.908:567
2.924:554
2.924:527
2.924:501
2.929:475
2.929:455
2.929:444
2.929:444
2.929:450
2.929:427
2.929:403
2.929:397
2.929:415
2.933:438
2.933:448
2.933:467
2.933:474
2.933:485
2.933:501
2.933:551
2.933:573
2.933:558
2.933:533
2.937:507
2.937:478
2.937:461
2.937:452
2.937:449
2.937:448
2.937:421
2.938:408
2.953:408
2.953:411
2.957:427
2.957:443
2.957:457
2.958:468
2.958:478
2.958:493
2.958:509
2.958:555
2.958:569
2.961:556
2.961:531
2.961:501
2.961:474
2.961:458
2.961:450
2.961:451
2.961:453
2.961:423
2.961:403
2.966:411
2.966:427
2.966:447
2.966:460
2.966:470
2.966:472
2.966:484
2.966:504
2.966:554
2.986:570
2.986:553
2.987:527
2.987:499
2.987:466
2.987:447
2.987:440
2.987:443
2.990:441
2.990:414
2.990:401
2.990:408
2.990:428
2.990:448
2.990:466
2.990:471
2.990:478
2.990:494
2.994:520
2.994:564
2.994:567
2.994:549
2.994:520
2.994:494
2.994:466
2.994:455
2.994:448
2.997:450
2.997:440
2.997:409
3.014:409
3.015:400
3.015:413
3.015:437
3.015:446
3.015:462
3.015:471
3.018:477
3.018:494
3.018:521
3.018:566
3.018:572
3.018:553
3.018:520
3.018:494
3.019:466
3.019:452
3.023:442
3.023:449
3.023:434
3.023:405
3.023:396
3.023:407
3.023:428
3.023:439
3.023:460
3.027:469
3.027:478
3.027:495
3.027:523
3.042:567
3.043:566
3.043:543
3.043:515
3.047:493
3.047:463
3.047:453
3.047:446
3.047:452
3.047:439
3.047:412
3.047:405
3.047:406
3.047:424
3.051:442
3.051:467
3.051:478
3.051:485
3.051:499
3.051:535
3.051:572
3.052:567
3.052:547
3.055:514
3.055:491
3.055:469
3.055:457
3.055:447
3.056:455
3.056:438
3.071:438
3.071:414
3.072:406
3.075:412
3.075:433
3.075:446
3.075:466
3.076:473
3.076:482
3.076:498
3.076:537
3.076:573
3.077:574
3.079:552
3.079:520
3.079:493
3.079:467
3.080:454
3.080:449
3.080:460
3.080:441
3.080:414
3.083:406
3.083:416
3.084:435
3.084:449
3.084:466
3.085:475
3.085:486
3.085:494
3.105:535
3.105:567
3.105:565
3.105:539
3.105:510
3.105:484
3.105:458
3.105:451
3.105:448
3.105:463
3.108:441
3.108:418
3.108:410
3.108:419
3.108:442
3.108:453
3.108:466
3.109:475
3.109:486
3.113:500
3.113:543
3.113:571
3.113:563
3.113:536
3.113:509
3.113:485
3.113:475
3.113:470
3.114:462
3.117:463
3.133:463
3.133:435
3.133:411
3.133:412
3.133:428
3.133:450
3.134:460
3.134:479
3.134:487
3.137:496
3.137:513
3.137:561
3.137:584
3.137:571
3.137:548
3.137:523
3.137:499
3.137:479
3.142:466
3.142:461
3.142:464
3.142:437
3.142:413
3.142:417
3.142:435
3.142:463
3.142:477
3.142:489
3.146:492
3.146:503
3.162:515
3.162:564
3.162:581
3.162:572
3.162:550
3.166:524
3.166:502
3.166:484
3.166:474
3.166:470
3.166:475
3.166:450
3.166:432
3.166:444
3.167:464
3.170:490
3.170:507
3.170:521
3.170:526
3.170:542
3.170:561
3.170:614
3.171:634
3.171:621
3.171:595
3.174:565
3.174:536
3.174:520
3.174:509
3.174:501
3.190:501
3.190:499
3.190:468
3.191:451
3.191:461
3.195:477
3.195:494
3.195:510
3.195:519
3.195:528
3.195:546
3.195:559
3.195:608
3.195:622
3.199:605
3.199:576
3.199:550
3.199:520
3.199:501
3.199:491
3.199:492
3.199:490
3.199:464
3.200:443
3.202:447
3.202:460
3.203:476
3.203:490
3.203:499
3.203:501
3.219:512
3.223:529
3.223:572
3.223:579
3.223:554
3.223:518
3.223:491
3.223:463
3.223:454
3.223:447
3.223:447
3.227:447
3.227:416
3.227:405
3.227:412
3.227:430
3.227:444
3.228:461
3.228:470
3.228:472
3.232:491
3.232:518
3.232:565
3.232:571
3.232:554
3.232:524
3.232:497
3.232:468
3.232:453
3.232:447
3.248:447
3.252:451
3.252:436
3.252:405
3.252:398
3.252:411
3.252:431
3.252:440
3.252:458
3.252:467
3.256:474
3.256:489
3.257:522
3.257:561
3.257:563
3.257:545
3.257:518
3.257:488
3.257:453
3.257:440
3.260:433
3.260:445
3.260:429
3.260:405
3.260:397
3.260:402
3.260:426
3.260:437
3.260:456
3.264:461
3.280:466
3.280:478
3.280:513
3.280:559
3.280:566
3.281:540
3.281:501
3.284:478
3.284:453
3.284:438
3.285:428
3.285:446
3.285:430
3.285:407
3.285:403
3.285:412
3.289:431
3.289:440
3.289:459
3.289:468
3.289:477
3.289:492
3.289:529
3.289:565
3.289:563
3.289:539
3.293:508
3.293:482
3.293:460
3.293:450
3.309:450
3.309:445
3.309:454
3.309:432
3.309:406
3.309:403
3.314:417
3.314:442
3.314:449
3.314:457
3.314:456
3.314:464
3.314:474
3.314:505
3.314:532
3.318:520
3.318:491
3.318:459
3.318:440
3.318:423
3.318:425
3.318:430
3.318:459
3.318:455
3.318:449
3.322:467
3.322:496
3.322:539
3.322:575
3.322:620
3.337:661
3.338:706
3.338:767
3.342:859
3.342:930
3.342:967
3.342:990
3.342:990
3.342:989
3.342:989
3.342:989
3.342:988
3.346:988
3.346:987
3.346:987
3.346:986
3.346:986
3.346:985
3.346:985
3.346:985
3.346:984
3.346:985
3.350:986
3.350:986
3.350:986
3.350:988
3.350:989
3.351:931
3.351:814
3.351:702
3.366:702
3.366:585
3.371:454
3.371:355
3.371:262
3.371:199
3.371:187
3.371:211
3.371:252
3.371:288
3.371:327
3.375:345
3.375:367
3.375:390
3.375:440
3.375:464
3.375:457
3.375:438
3.375:419
3.375:403
3.375:386
3.379:369
3.379:363
3.379:365
3.379:335
3.379:310
3.379:320
3.379:337
3.379:358
3.379:374
3.399:387
3.399:388
3.399:398
3.399:413
3.400:462
3.400:484
3.400:468
3.400:437
3.404:407
3.404:379
3.404:360
3.404:354
3.404:355
3.404:357
3.404:328
3.404:309
3.404:315
3.404:330
3.407:352
3.407:364
3.407:378
3.407:389
3.407:406
3.407:426
3.407:476
3.408:491
3.408:473
3.412:445
3.412:417
3.412:392
3.428:392
3.428:383
3.428:373
3.428:370
3.428:364
3.428:333
3.428:322
3.432:337
3.432:361
3.432:384
3.432:396
3.432:404
3.432:416
3.432:434
3.432:448
3.432:494
3.432:509
3.436:491
3.436:463
3.436:445
3.437:418
3.437:403
3.437:396
3.437:400
3.437:395
3.437:364
3.440:351
3.440:364
3.440:389
3.440:406
3.457:421
3.457:430
3.457:441
3.457:459
3.461:487
3.461:533
3.461:542
3.461:519
3.461:487
3.461:461
3.461:431
3.461:420
3.461:415
3.461:426
3.464:422
3.464:401
3.465:388
3.465:391
3.465:408
3.465:422
3.465:441
3.465:452
3.465:461
3.469:481
3.469:511
3.469:556
3.469:557
3.469:535
3.469:509
3.469:487
3.484:487
3.484:457
3.485:444
3.489:437
3.489:445
3.489:430
3.489:403
3.489:399
3.489:413
3.489:439
3.489:450
3.489:467
3.490:474
3.494:487
3.494:503
3.494:540
3.494:585
3.494:584
3.494:559
3.494:528
3.494:503
3.494:474
3.498:464
3.498:458
3.498:469
3.498:451
3.498:424
3.498:420
3.498:432
3.498:456
3.517:468
3.517:489
3.517:498
3.518:509
3.518:521
3.518:560
3.518:598
3.518:598
3.518:573
3.522:543
3.522:517
3.522:493
3.522:486
3.522:486
3.522:494
3.522:467
3.522:440
3.522:435
3.522:450
3.526:472
3.526:485
3.526:510
3.526:519
3.526:529
3.526:543
3.526:588
3.526:621
3.526:616
3.526:594
3.529:564
3.546:564
3.546:536
3.546:514
3.546:506
3.546:505
3.546:516
3.546:491
3.546:465
3.546:462
3.550:478
3.551:499
3.551:511
3.551:530
3.551:535
3.551:549
3.551:565
3.551:609
3.551:638
3.555:633
3.555:615
3.555:585
3.555:554
3.555:532
3.555:524
3.555:519
3.555:524
3.555:500
3.555:478
3.559:483
3.559:496
3.575:519
3.575:527
3.575:543
3.575:549
3.576:555
3.580:571
3.580:618
3.580:643
3.580:636
3.580:615
3.580:583
3.580:556
3.580:531
3.580:513
3.580:507
3.584:513
3.584:486
3.584:461
3.584:461
3.584:476
3.584:499
3.585:507
3.585:518
3.585:525
3.587:539
3.587:550
3.587:596
3.587:615
3.587:602
3.587:572
3.604:572
3.604:537
3.604:505
3.604:486
3.604:478
3.607:474
3.607:476
3.607:444
3.607:410
3.609:411
3.609:427
3.609:446
3.609:454
3.609:465
3.612:472
3.612:484
3.612:498
3.612:541
3.612:554
3.612:537
3.612:510
3.612:480
3.612:447
3.612:426
3.615:418
3.616:414
3.616:413
3.616:385
3.616:363
3.616:364
3.632:379
3.637:397
3.637:410
3.637:420
3.637:424
3.637:438
3.637:457
3.637:503
3.637:517
3.637:499
3.637:468
3.641:441
3.641:409
3.641:385
3.641:378
3.641:383
3.641:377
3.641:347
3.641:330
3.641:336
3.645:347
3.645:361
3.645:384
3.645:400
3.645:408
3.645:424
3.645:446
3.646:490
3.646:496
3.646:479
3.666:479
3.666:451
3.666:423
3.666:393
3.666:380
3.666:376
3.666:379
3.666:375
3.666:348
3.666:337
3.669:345
3.669:366
3.669:383
3.669:397
3.669:406
3.669:414
3.670:431
3.670:456
3.670:502
3.670:506
3.673:482
3.673:456
3.673:432
3.673:406
3.673:391
3.673:385
3.673:393
3.673:384
3.674:361
3.678:353
3.694:360
3.694:376
3.694:389
3.694:405
3.694:417
3.694:429
3.694:446
3.698:474
3.698:514
3.698:518
3.698:500
3.698:467
3.698:436
3.698:404
3.698:399
3.698:400
3.702:414
3.702:402
3.703:378
3.703:364
3.703:370
3.703:393
3.703:406
3.703:427
3.703:431
3.703:442
3.706:460
3.706:495
3.706:539
3.706:541
3.723:541
3.723:520
3.723:488
3.723:459
3.723:433
3.723:420
3.727:413
3.727:428
3.727:414
3.727:386
3.727:374
3.727:388
3.727:412
3.727:424
3.727:440
3.731:447
3.731:455
3.731:470
3.731:512
3.731:552
3.731:552
3.731:528
3.731:500
3.731:476
3.731:452
3.735:439
3.735:435
3.735:445
3.735:423
3.735:393
3.750:384
3.751:396
3.751:418
3.755:430
3.755:448
3.755:459
3.755:473
3.755:488
3.755:529
3.755:559
3.755:555
3.755:534
3.760:506
3.760:480
3.760:457
3.760:446
3.760:441
3.760:450
3.760:427
3.760:402
3.760:395
3.760:408
3.764:434
3.764:451
3.764:471
3.764:473
3.764:480
3.764:498
3.764:542
3.764:571
3.780:571
3.780:561
3.784:536
3.785:504
3.785:478
3.785:458
3.785:449
3.785:447
3.785:458
3.785:432
3.785:400
3.788:400
3.789:418
3.789:445
3.789:452
3.789:465
3.789:472
3.789:482
3.789:497
3.789:547
3.789:580
3.792:571
3.792:541
3.792:506
3.792:477
3.792:456
3.792:444
3.792:441
3.792:448
3.792:422
3.812:402
3.812:405
3.812:417
3.812:443
3.813:457
3.813:468
3.813:476
3.813:490
3.817:508
3.817:556
3.818:578
3.818:561
3.818:533
3.818:505
3.818:476
3.818:455
3.818:442
3.818:437
3.820:447
3.820:425
3.820:404
3.821:409
3.821:420
3.821:441
3.821:447
3.821:462
3.821:474
3.825:490
3.825:511
3.825:554
3.841:554
3.841:569
3.841:558
3.841:533
3.841:507
3.841:474
3.841:457
3.846:446
3.846:448
3.846:453
3.846:422
3.846:399
3.846:403
3.846:418
3.846:438
3.846:453
3.846:467
3.850:475
3.850:489
3.851:507
3.851:554
3.851:568
3.851:553
3.851:529
3.851:504
3.851:473
3.854:454
3.854:444
3.854:445
3.854:443
3.870:411
3.870:392
3.870:402
3.870:421
3.875:439
3.875:457
3.875:467
3.875:475
3.875:497
3.875:520
3.875:563
3.875:569
3.875:550
3.875:526
3.878:504
3.878:469
3.878:454
3.878:448
3.878:450
3.878:448
3.878:420
3.878:406
3.878:410
3.883:426
3.883:442
3.883:461
3.883:471
3.883:479
3.883:493
3.883:520
3.898:520
3.898:569
3.898:570
3.902:553
3.903:527
3.903:502
3.903:475
3.903:462
3.903:453
3.903:458
3.903:445
3.903:414
3.903:403
3.907:411
3.907:428
3.907:443
3.907:464
3.907:473
3.907:481
3.907:498
3.907:528
3.907:571
3.911:573
3.911:554
3.911:523
3.911:498
3.911:471
3.911:456
3.911:448
3.912:459
3.932:446
3.932:417
3.932:406
3.932:415
3.932:435
3.932:450
3.932:473
3.932:477
3.932:486
3.935:497
3.935:526
3.935:570
3.935:576
3.935:557
3.936:519
3.936:492
3.936:468
3.936:461
3.936:454
3.940:463
3.940:442
3.940:414
3.940:408
3.940:416
3.940:439
3.940:450
3.940:469
3.940:478
3.940:488
3.943:503
3.960:503
3.960:535
3.960:572
3.960:572
3.960:553
3.960:528
3.960:497
3.960:470
3.960:458
3.964:448
3.964:457
3.964:441
3.964:413
3.964:403
3.964:420
3.964:445
3.965:454
3.965:471
3.968:481
3.968:493
3.968:507
3.968:546
3.968:579
3.968:576
3.968:553
3.969:523
3.969:493
3.969:471
3.972:459
3.972:453
3.989:466
3.989:443
3.989:416
3.989:411
3.989:418
3.993:441
3.993:457
3.993:476
3.993:486
3.993:498
3.993:514
3.993:555
3.993:584
3.993:579
3.994:550
3.997:520
3.997:497
3.997:472
3.997:460
3.997:458
3.998:466
3.998:440
3.998:415
3.998:416
4.001:435
4.001:457
4.001:469
4.001:483
4.001:492
4.001:499
4.016:499
4.018:513
4.018:559
4.018:589
4.022:581
4.022:557
4.022:524
4.022:498
4.022:479
4.022:467
4.022:461
4.022:472
4.022:448
4.023:422
4.026:422
4.026:435
4.026:456
4.026:469
4.026:484
4.026:491
4.026:502
4.026:520
4.026:573
4.026:596
4.029:588
4.029:562
4.029:539
4.030:518
4.030:498
4.030:491
4.045:495
4.050:504
4.051:478
4.051:459
4.051:466
4.052:479
4.052:499
4.052:511
4.052:519
4.052:527
4.052:543
4.055:558
4.055:604
4.055:619
4.055:602
4.055:573
4.055:550
4.055:524
4.055:505
4.055:494
4.059:494
4.059:496
4.059:467
4.059:446
4.059:449
4.059:467
4.060:488
4.060:502
4.060:509
4.060:518
4.079:518
4.079:535
4.079:556
4.079:604
4.079:614
4.079:597
4.080:570
4.080:543
4.080:511
4.080:486
4.083:471
4.084:463
4.084:460
4.084:433
4.084:415
4.084:416
4.084:424
4.084:438
4.085:453
4.088:463
4.089:470
4.089:488
4.089:508
4.089:555
4.089:564
4.089:544
4.090:511
4.090:483
4.090:465
4.091:456
4.107:444
4.107:445
4.107:438
4.107:408
4.107:394
4.107:403
4.107:421
4.112:438
4.112:455
4.112:466
4.112:471
4.112:487
4.112:511
4.112:557
4.112:565
4.112:545
4.116:518
4.117:494
4.117:466
4.117:446
4.117:433
4.117:441
4.117:435
4.117:408
4.117:394
4.117:399
4.120:414
4.120:429
4.120:445
4.120:454
4.136:454
4.136:463
4.136:482
4.136:512
4.137:558
4.137:562
4.141:542
4.141:516
4.141:490
4.141:459
4.141:445
4.141:437
4.141:445
4.141:429
4.141:400
4.145:394
4.145:397
4.145:417
4.145:430
4.145:452
4.145:457
4.145:467
4.145:484
4.145:521
4.145:562
4.149:562
4.149:538
4.149:507
4.149:483
4.149:455
4.164:447
4.164:439
4.165:449
4.169:432
4.169:403
4.169:399
4.169:404
4.169:419
4.169:432
4.169:455
4.169:464
4.169:479
4.173:494
4.173:523
4.173:563
4.173:559
4.174:533
4.174:505
4.174:486
4.174:461
4.174:446
4.174:437
4.177:442
4.177:417
4.177:385
4.177:377
4.177:381
4.177:402
4.177:407
4.177:422
4.193:422
4.193:431
4.197:439
4.197:458
4.198:509
4.198:557
4.198:570
4.198:561
4.198:550
4.198:544
4.198:539
4.202:549
4.202:573
4.202:610
4.202:611
4.202:618
4.202:661
4.202:722
4.203:793
4.203:850
4.203:919
4.205:976
4.205:989
4.205:989
4.207:987
4.207:987
4.207:986
4.207:985
4.207:985
4.207:985
4.226:985
4.226:985
4.226:985
4.226:985
4.226:985
4.226:986
4.226:987
4.226:987
4.231:988
4.231:989
4.231:990
4.231:902
4.231:825
4.231:746
4.231:685
4.231:579
4.231:463
4.231:369
4.234:297
4.235:251
4.235:243
4.235:255
4.235:269
4.235:298
4.235:287
4.235:269
4.235:280
4.239:303
4.239:332
4.239:351
4.255:351
4.255:374
4.255:388
4.255:412
4.255:432
4.255:478
4.255:493
4.259:481
4.259:457
4.259:423
4.259:392
4.259:378
4.259:371
4.259:369
4.259:378
4.259:349
4.259:323
4.264:321
4.264:331
4.264:357
4.264:364
4.264:375
4.264:381
4.264:394
4.264:407
4.264:458
4.267:477
4.267:465
4.267:440
4.267:413
4.283:387
4.283:368
4.283:360
4.284:361
4.288:366
4.288:336
4.288:316
4.288:321
4.288:343
4.288:364
4.288:378
4.288:392
4.288:395
4.288:407
4.292:430
4.292:483
4.292:501
4.292:485
4.292:453
4.292:426
4.292:400
4.292:386
4.292:383
4.296:390
4.296:392
4.296:365
4.296:348
4.296:354
4.296:369
4.296:391
4.312:391
4.312:406
4.312:415
4.317:425
4.317:441
4.317:460
4.317:510
4.318:520
4.318:505
4.318:483
4.318:464
4.318:436
4.318:422
4.321:411
4.321:412
4.321:406
4.321:378
4.321:363
4.321:373
4.321:394
4.321:412
4.321:430
4.325:438
4.325:446
4.325:463
4.325:489
4.325:536
4.325:547
4.325:532
4.325:502
4.345:478
4.345:453
4.345:445
4.345:437
4.345:439
4.345:427
4.345:395
4.345:382
4.345:396
4.350:421
4.350:438
4.350:454
4.351:466
4.351:477
4.351:494
4.351:518
4.351:565
4.351:571
4.351:551
4.354:524
4.354:502
4.354:475
4.354:460
4.354:450
4.354:457
4.354:442
4.354:417
4.354:408
4.357:420
4.357:443
4.374:443
4.374:457
4.374:477
4.374:482
4.374:490
4.374:512
4.374:544
4.374:584
4.374:588
4.378:565
4.378:539
4.378:518
4.378:491
4.378:474
4.378:469
4.378:477
4.378:460
4.378:441
4.382:435
4.382:443
4.382:465
4.382:478
4.383:497
4.383:505
4.383:512
4.383:527
4.384:567
4.384:602
4.385:602
4.385:582
4.402:554
4.402:530
4.402:504
4.402:494
4.402:491
4.406:503
4.406:481
4.406:453
4.406:451
4.407:464
4.407:483
4.407:496
4.407:519
4.407:526
4.407:539
4.411:557
4.411:597
4.411:627
4.411:621
4.411:595
4.411:569
4.411:547
4.411:525
4.412:511
4.415:507
4.415:519
4.415:497
4.415:472
4.415:467
4.415:482
4.431:482
4.431:506
4.431:522
4.431:539
4.436:542
4.436:555
4.436:569
4.436:613
4.436:640
4.436:632
4.436:614
4.436:587
4.436:555
4.436:530
4.439:515
4.439:512
4.440:521
4.440:495
4.440:472
4.440:472
4.440:485
4.440:508
4.440:518
4.444:536
4.444:541
4.444:549
4.444:562
4.444:609
4.444:634
4.444:622
4.460:589
4.464:554
4.464:528
4.464:504
4.464:496
4.464:493
4.464:499
4.464:468
4.464:442
4.465:447
4.465:461
4.468:484
4.469:495
4.469:506
4.469:511
4.469:521
4.469:532
4.469:574
4.469:592
4.469:574
4.472:546
4.472:516
4.472:486
4.472:463
4.472:451
4.472:442
4.472:443
4.472:411
4.472:384
4.472:391
4.493:391
4.493:404
4.493:422
4.493:431
4.493:444
4.493:453
4.493:463
4.493:475
4.493:518
4.493:537
4.497:519
4.497:485
4.497:458
4.497:428
4.497:410
4.497:400
4.497:395
4.498:396
4.498:366
4.501:343
4.501:349
4.501:365
4.501:384
4.501:399
4.501:411
4.501:415
4.501:425
4.501:441
4.502:488
4.505:499
4.521:479
4.521:447
4.521:422
4.521:401
4.521:384
4.521:376
4.522:374
4.525:374
4.525:343
4.525:327
4.526:335
4.526:351
4.526:371
4.526:385
4.526:396
4.526:404
4.529:419
4.529:433
4.529:483
4.529:496
4.529:479
4.529:453
4.530:428
4.530:398
4.530:381
4.530:377
4.533:380
4.533:375
4.533:348
4.533:331
4.549:331
4.550:338
4.550:361
4.550:381
4.550:395
4.550:403
4.554:412
4.554:429
4.554:453
4.554:499
4.554:504
4.554:487
4.554:458
4.554:431
4.555:403
4.557:397
4.558:389
4.558:399
4.558:393
4.558:359
4.558:347
4.558:358
4.558:379
4.558:397
4.558:416
4.562:428
4.562:433
4.562:445
4.562:475
4.562:520
4.578:526
4.578:507
4.578:476
4.582:453
4.582:426
4.582:411
4.583:400
4.583:409
4.583:400
4.583:373
4.583:367
4.583:372
4.587:397
4.587:415
4.587:435
4.587:443
4.587:448
4.587:466
4.587:499
4.587:541
4.587:539
4.587:516
4.590:490
4.590:465
4.590:436
4.591:426
4.591:420
4.591:430
4.591:415
4.591:389
4.607:389
4.607:383
4.611:396
4.611:419
4.611:432
4.611:450
4.611:458
4.611:462
4.611:478
4.611:515
4.611:550
4.616:549
4.616:528
4.616:500
4.616:479
4.616:453
4.616:440
4.616:435
4.617:447
4.617:426
4.617:399
4.620:393
4.620:406
4.620:429
4.620:440
4.620:461
4.620:468
4.620:478
4.620:495
4.620:537
4.640:569
4.640:562
4.640:540
4.640:508
4.640:484
4.640:462
4.641:451
4.641:444
4.644:451
4.644:436
4.644:409
4.644:407
4.644:416
4.644:436
4.644:445
4.644:465
4.644:474
4.644:485
4.648:500
4.648:540
4.648:574
4.648:569
4.648:545
4.648:514
4.648:487
4.648:466
4.648:457
4.652:452
4.652:459
4.652:432
4.669:432
4.669:404
4.669:405
4.669:421
4.669:442
4.669:451
4.669:467
4.673:469
4.673:481
4.673:499
4.673:551
4.673:579
4.673:567
4.673:538
4.673:510
4.673:488
4.673:468
4.676:459
4.676:453
4.676:459
4.676:428
4.676:405
4.676:410
4.676:420
4.676:441
4.677:456
4.681:478
4.681:487
4.681:492
4.681:505
4.697:551
4.697:573
4.697:562
4.697:543
4.702:510
4.702:482
4.702:461
4.702:454
4.702:448
4.702:459
4.702:437
4.702:412
4.702:410
4.706:427
4.706:446
4.706:452
4.706:463
4.706:477
4.706:492
4.706:505
4.706:555
4.706:575
4.706:564
4.710:542
4.710:515
4.710:482
4.710:461
4.710:452
4.710:449
4.710:451
4.725:451
4.725:420
4.725:400
4.730:404
4.730:424
4.730:443
4.730:455
4.730:469
4.730:469
4.731:480
4.731:504
4.731:561
4.731:580
4.734:562
4.734:532
4.734:503
4.734:472
4.734:452
4.734:445
4.734:453
4.734:461
4.734:430
4.738:406
4.738:407
4.738:421
4.738:442
4.738:455
4.738:471
4.738:482
4.738:501
4.759:519
4.759:565
4.759:575
4.759:556
4.759:527
4.759:500
4.759:472
4.759:457
4.759:450
4.763:456
4.763:452
4.763:423
4.763:411
4.763:417
4.763:430
4.763:441
4.763:456
4.763:471
4.763:479
4.767:495
4.768:521
4.768:569
4.768:576
4.768:557
4.768:532
4.768:507
4.768:474
4.768:459
4.771:449
4.771:450
4.787:450
4.787:440
4.787:412
4.787:401
4.787:408
4.787:429
4.787:445
4.787:462
4.787:476
4.791:479
4.791:496
4.791:521
4.791:568
4.791:574
4.791:556
4.791:526
4.791:499
4.791:468
4.796:453
4.796:445
4.796:461
4.796:451
4.796:420
4.796:409
4.796:420
4.796:437
4.796:450
4.796:468
4.799:476
4.799:484
4.816:502
4.817:532
4.817:577
4.817:578
4.817:555
4.820:525
4.820:500
4.820:470
4.820:460
4.820:453
4.820:458
4.820:442
4.820:413
4.820:405
4.820:417
4.825:442
4.825:454
4.825:472
4.825:479
4.825:491
4.825:505
4.825:537
4.825:575
4.826:575
4.828:550
4.828:515
4.828:490
4.828:462
4.828:452
4.828:448
4.844:448
4.844:462
4.844:447
4.844:419
4.849:413
4.849:420
4.850:435
4.850:446
4.850:470
4.850:482
4.850:489
4.850:502
4.850:541
4.850:577
4.853:573
4.853:551
4.853:524
4.853:499
4.853:471
4.853:459
4.853:456
4.853:465
4.853:440
4.856:409
4.857:408
4.857:422
4.857:445
4.858:458
4.858:474
4.858:478
4.872:489
4.878:504
4.878:551
4.878:585
4.878:575
4.878:544
4.878:510
4.878:486
4.878:467
4.878:455
4.878:457
4.882:468
4.882:444
4.882:416
4.882:417
4.882:429
4.882:451
4.882:460
4.882:481
4.882:491
4.886:503
4.886:518
4.886:556
4.886:577
4.886:571
4.886:548
4.886:519
4.886:496
4.886:480
4.886:477
4.906:477
4.906:471
4.906:476
4.906:444
4.906:417
4.906:415
4.906:423
4.906:445
4.906:461
4.907:482
4.911:495
4.911:510
4.911:526
4.911:574
4.911:597
4.911:589
4.911:571
4.911:547
4.911:525
4.915:508
4.915:501
4.915:494
4.915:506
4.915:479
4.915:458
4.915:464
4.916:475
4.916:495
4.917:501
4.917:514
4.934:520
4.934:534
4.934:557
4.934:608
4.934:626
4.934:610
4.935:582
4.939:550
4.939:523
4.939:504
4.939:493
4.939:488
4.939:496
4.939:462
4.939:441
4.939:450
4.943:467
4.943:493
4.943:505
4.943:515
4.943:518
4.943:529
4.943:546
4.943:598
4.943:614
4.943:598
4.947:568
4.947:537
4.947:506
4.947:482
4.963:482
4.963:465
4.963:459
4.963:454
4.963:419
4.963:396
4.967:401
4.967:418
4.967:437
4.967:455
4.967:468
4.967:473
4.967:483
4.967:500
4.967:550
4.972:560
4.972:545
4.972:517
4.972:491
4.972:462
4.972:445
4.972:439
4.972:444
4.972:445
4.972:418
4.976:403
4.976:406
4.976:423
4.976:444
4.976:461
4.992:472
4.992:477
4.996:488
4.996:506
4.996:554
4.996:565
4.996:546
4.996:517
4.997:493
4.997:464
4.997:448
4.997:441
5.000:447
5.000:434
5.000:407
5.000:396
5.000:399
5.000:415
5.000:433
5.000:446
5.000:458
5.000:469
5.004:483
5.004:510
5.004:557
5.004:566
5.004:550
5.004:525
5.004:499
5.004:471
5.020:471
5.020:454
5.025:433
5.025:434
5.025:423
5.025:398
5.025:391
5.025:398
5.025:418
5.025:431
5.025:452
5.029:460
5.029:469
5.029:483
5.029:512
5.029:556
5.029:563
5.029:544
5.029:512
5.029:485
5.029:456
5.034:443
5.034:438
5.034:444
5.034:426
5.034:402
5.034:398
5.034:410
5.034:433
5.034:448
5.054:464
5.054:468
5.054:482
5.054:497
5.054:531
5.054:570
5.054:566
5.054:540
5.058:508
5.058:481
5.058:451
5.058:438
5.058:429
5.058:434
5.058:403
5.058:366
5.058:353
5.062:368
5.062:397
5.062:412
5.062:439
5.062:462
5.062:485
5.062:518
5.062:577
5.062:637
5.062:654
5.066:654
5.066:648
5.066:643
5.082:643
5.082:647
5.082:670
5.083:707
5.083:770
5.083:794
5.083:810
5.086:854
5.086:919
5.086:990
5.086:990
5.086:988
5.086:988
5.086:987
5.086:986
5.086:985
5.086:984
5.090:983
5.090:984
5.090:984
5.090:984
5.090:985
5.090:985
5.090:986
5.090:987
5.090:988
5.095:990
5.095:923
5.095:835
5.095:769
5.111:688
5.111:597
5.111:476
5.111:379
5.115:326
5.115:330
5.115:341
5.115:346
5.116:343
5.116:336
5.116:331
5.116:323
5.116:322
5.119:326
5.119:341
5.119:322
5.119:304
5.119:307
5.119:333
5.119:365
5.119:379
5.119:394
5.119:396
5.123:406
5.123:423
5.123:470
5.123:498
5.123:484
5.123:460
5.123:430
5.139:430
5.139:405
5.139:384
5.144:368
5.144:359
5.144:363
5.144:333
5.144:314
5.144:321
5.144:336
5.144:356
5.144:363
5.144:377
5.147:381
5.147:394
5.147:416
5.147:468
5.147:484
5.147:470
5.147:444
5.147:413
5.147:388
5.152:372
5.152:366
5.152:363
5.152:367
5.152:340
5.152:320
5.152:325
5.152:343
5.173:373
5.173:385
5.173:399
5.173:407
5.173:419
5.173:433
5.173:481
5.173:500
5.173:493
5.176:470
5.176:440
5.176:416
5.176:404
5.176:392
5.176:392
5.176:397
5.176:369
5.176:352
5.176:357
5.181:378
5.181:395
5.181:410
5.181:423
5.181:428
5.181:442
5.181:464
5.181:517
5.181:529
5.184:513
5.184:486
5.200:486
5.200:460
5.200:433
5.200:421
5.200:416
5.200:423
5.200:420
5.201:388
5.205:369
5.205:378
5.205:398
5.205:418
5.205:433
5.205:444
5.205:452
5.205:474
5.205:498
5.205:542
5.209:553
5.209:533
5.209:507
5.209:485
5.209:458
5.209:442
5.209:434
5.209:439
5.209:435
5.209:408
5.213:393
5.213:404
5.229:426
5.229:435
5.229:454
5.229:461
5.229:471
5.234:491
5.234:521
5.234:568
5.234:573
5.234:556
5.234:527
5.234:502
5.234:473
5.234:460
5.234:450
5.238:452
5.238:444
5.238:419
5.238:415
5.239:427
5.239:442
5.239:451
5.239:475
5.239:485
5.242:494
5.242:511
5.242:542
5.242:585
5.242:590
5.242:571
5.258:571
5.258:543
5.258:521
5.258:494
5.263:479
5.263:470
5.263:479
5.263:466
5.263:439
5.263:432
5.263:439
5.263:459
5.263:470
5.263:490
5.266:505
5.266:516
5.266:529
5.266:561
5.266:598
5.266:601
5.267:585
5.267:560
5.267:538
5.271:513
5.271:499
5.271:490
5.271:497
5.271:482
5.271:459
5.271:454
5.287:464
5.291:484
5.291:496
5.291:519
5.291:528
5.291:537
5.291:552
5.291:588
5.291:625
5.291:626
5.291:604
5.295:573
5.295:544
5.295:522
5.295:513
5.295:501
5.295:507
5.295:491
5.295:463
5.295:460
5.299:477
5.299:506
5.300:518
5.300:537
5.300:541
5.300:555
5.300:570
5.300:610
5.300:636
5.300:626
5.320:626
5.320:605
5.320:576
5.320:552
5.320:526
5.320:518
5.320:516
5.320:526
5.320:496
5.320:464
5.324:459
5.324:474
5.324:498
5.324:507
5.324:521
5.324:529
5.324:541
5.324:555
5.325:600
5.328:627
5.328:618
5.328:586
5.329:554
5.329:529
5.329:500
5.329:490
5.329:486
5.329:491
5.329:458
5.332:432
5.348:429
5.348:442
5.348:460
5.349:471
5.349:486
5.349:493
5.349:504
5.352:512
5.352:556
5.352:581
5.352:566
5.353:534
5.353:502
5.353:473
5.353:453
5.353:441
5.357:433
5.357:434
5.357:403
5.357:378
5.357:380
5.358:393
5.358:413
5.358:420
5.358:437
5.358:439
5.360:448
5.361:465
5.361:508
5.361:526
5.377:526
5.377:512
5.377:481
5.377:445
5.377:421
5.377:403
5.381:392
5.381:384
5.381:388
5.381:364
5.381:342
5.381:347
5.382:360
5.382:382
5.382:394
5.385:407
5.386:412
5.386:417
5.386:434
5.386:485
5.386:504
5.386:490
5.386:462
5.386:432
5.386:407
5.389:387
5.389:378
5.389:373
5.389:372
5.389:343
5.405:326
5.405:333
5.410:347
5.410:371
5.410:384
5.410:395
5.410:406
5.410:420
5.410:438
5.410:487
5.410:503
5.410:487
5.414:459
5.414:433
5.414:407
5.414:389
5.414:384
5.414:391
5.414:387
5.415:354
5.415:335
5.415:339
5.418:356
5.418:377
5.418:394
5.418:407
5.418:415
5.419:433
5.419:456
5.419:507
5.434:507
5.434:520
5.438:502
5.438:472
5.438:447
5.438:421
5.438:406
5.438:393
5.438:398
5.438:394
5.438:367
5.443:357
5.443:366
5.443:386
5.443:398
5.443:416
5.443:426
5.443:438
5.443:453
5.443:474
5.443:521
5.446:534
5.446:519
5.446:487
5.446:461
5.446:435
5.446:420
5.446:412
5.446:415
5.446:404
5.467:376
5.467:366
5.467:383
5.467:401
5.467:418
5.467:437
5.467:447
5.467:454
5.471:471
5.471:503
5.471:544
5.471:548
5.471:530
5.471:499
5.471:478
5.471:452
5.471:436
5.476:425
5.476:430
5.476:417
5.476:392
5.476:383
5.476:396
5.476:417
5.476:430
5.476:453
5.476:468
5.479:477
5.479:480
5.479:507
5.495:507
5.495:547
5.495:557
5.495:535
5.495:507
5.495:482
5.495:457
5.500:446
5.500:438
5.500:449
5.500:433
5.500:408
5.500:402
5.500:410
5.500:430
5.500:441
5.500:457
5.504:465
5.504:476
5.504:491
5.504:528
5.504:566
5.504:570
5.504:547
5.504:514
5.504:486
5.508:462
5.508:451
5.508:447
5.508:456
5.524:437
5.524:410
5.524:406
5.524:412
5.528:434
5.528:447
5.528:466
5.528:472
5.528:482
5.528:496
5.529:536
5.529:572
5.529:569
5.532:547
5.532:516
5.532:490
5.532:466
5.533:455
5.533:451
5.533:462
5.533:438
5.533:409
5.533:406
5.537:424
5.537:440
5.537:448
5.537:465
5.537:471
5.537:486
5.537:503
5.552:503
5.552:546
5.552:577
5.557:569
5.557:540
5.557:510
5.557:485
5.557:462
5.557:449
5.557:442
5.557:452
5.557:432
5.561:405
5.561:403
5.561:415
5.561:441
5.561:452
5.561:475
5.561:482
5.561:493
5.561:508
5.561:554
5.565:578
5.565:570
5.565:541
5.566:505
5.566:482
5.566:464
5.566:452
5.566:446
5.586:458
5.586:432
5.586:403
5.586:404
5.586:421
5.586:444
5.586:455
5.586:469
5.586:474
5.590:490
5.590:504
5.590:549
5.590:573
5.590:562
5.590:535
5.590:505
5.590:478
5.590:458
5.590:448
5.594:446
5.594:453
5.594:424
5.594:396
5.594:396
5.594:418
5.594:447
5.594:455
5.594:466
5.598:470
5.598:485
5.614:485
5.614:501
5.614:553
5.615:573
5.615:559
5.615:530
5.615:501
5.615:472
5.619:457
5.619:446
5.619:442
5.619:444
5.619:418
5.619:401
5.619:403
5.619:422
5.619:441
5.619:455
5.623:471
5.623:480
5.623:493
5.623:509
5.623:559
5.623:574
5.623:556
5.624:527
5.624:496
5.627:467
5.627:453
5.627:448
5.643:446
5.643:443
5.643:417
5.644:403
5.644:414
5.648:427
5.648:442
5.648:459
5.649:471
5.650:474
5.650:488
5.650:511
5.650:559
5.651:566
5.651:549
5.652:520
5.652:495
5.652:471
5.652:453
5.652:444
5.652:447
5.652:443
5.653:415
5.653:399
5.656:407
5.656:428
5.656:447
5.656:461
5.656:472
5.656:479
5.671:479
5.671:494
5.671:517
5.672:570
5.676:581
5.676:558
5.676:529
5.676:504
5.676:473
5.676:462
5.676:454
5.677:454
5.677:438
5.677:409
5.680:397
5.680:404
5.680:428
5.680:446
5.680:467
5.680:477
5.680:484
5.680:503
5.680:532
5.684:573
5.684:573
5.684:555
5.684:526
5.684:503
5.684:472
5.684:456
5.700:446
5.705:451
5.705:442
5.705:413
5.705:401
5.705:414
5.705:433
5.705:447
5.705:469
5.705:477
5.705:487
5.708:505
5.708:536
5.708:571
5.708:575
5.708:554
5.708:524
5.708:499
5.708:472
5.708:460
5.713:455
5.713:462
5.713:446
5.713:416
5.713:408
5.713:417
5.713:443
5.713:448
5.713:463
5.713:472
5.733:472
5.733:483
5.733:497
5.733:534
5.733:577
5.733:578
5.733:555
5.733:523
5.733:500
5.733:474
5.738:460
5.738:449
5.738:460
5.738:442
5.738:412
5.738:405
5.738:418
5.738:444
5.738:456
5.742:471
5.742:476
5.742:486
5.742:503
5.742:545
5.742:587
5.742:590
5.742:566
5.742:534
5.742:508
5.746:479
5.762:462
5.762:459
5.762:466
5.762:442
5.762:417
5.762:419
5.762:434
5.765:455
5.765:464
5.765:483
5.765:491
5.765:495
5.766:519
5.766:563
5.766:596
5.766:592
5.770:561
5.770:529
5.770:501
5.770:474
5.770:462
5.770:459
5.770:466
5.770:444
5.770:421
5.770:421
5.773:440
5.773:464
5.773:479
5.773:500
5.790:500
5.790:511
5.790:525
5.790:546
5.790:597
5.791:625
5.794:618
5.795:593
5.795:563
5.795:537
5.795:515
5.795:503
5.795:496
5.795:505
5.795:477
5.799:454
5.799:452
5.799:464
5.799:484
5.799:497
5.799:515
5.800:522
5.800:538
5.800:556
5.800:604
5.803:626
5.803:615
5.803:587
5.803:555
5.803:529
5.819:512
5.819:501
5.823:496
5.823:497
5.823:466
5.823:443
5.823:443
5.823:457
5.823:475
5.823:488
5.823:501
5.824:503
5.828:520
5.828:533
5.828:573
5.828:593
5.828:574
5.828:539
5.829:497
5.829:469
5.829:453
5.829:442
5.832:442
5.832:449
5.832:419
5.832:398
5.833:407
5.833:419
5.833:437
5.833:451
5.848:451
5.848:462
5.852:466
5.852:479
5.852:503
5.852:555
5.852:574
5.852:556
5.852:526
5.852:499
5.852:468
5.856:453
5.856:446
5.856:448
5.856:449
5.856:418
5.856:397
5.857:404
5.857:421
5.857:441
5.857:455
5.859:467
5.859:473
5.860:488
5.860:509
5.860:557
5.860:567
5.860:550
5.860:518
5.860:491
5.880:464
5.880:454
5.881:445
5.881:441
5.881:439
5.881:413
5.881:398
5.881:404
5.885:422
5.885:439
5.885:453
5.885:460
5.885:467
5.885:485
5.885:512
5.885:558
5.885:565
5.889:544
5.889:511
5.889:487
5.889:458
5.889:443
5.889:437
5.889:444
5.889:437
5.890:409
5.890:392
5.893:403
5.893:421
5.893:438
5.909:438
5.909:454
5.909:464
5.909:469
5.909:486
5.909:517
5.910:563
5.914:569
5.914:544
5.914:512
5.914:488
5.914:460
5.914:447
5.915:440
5.915:447
5.916:434
5.916:406
5.917:400
5.917:411
5.917:430
5.917:443
5.917:459
5.918:463
5.918:467
5.918:482
5.918:514
5.922:555
5.922:549
5.922:523
5.922:484
5.938:461
5.938:441
5.938:431
5.938:436
5.942:462
5.942:462
5.942:450
5.942:464
5.942:487
5.942:525
5.942:558
5.943:608
5.943:644
5.946:686
5.946:739
5.946:816
5.946:895
5.946:933
5.946:954
5.946:972
5.947:990
5.947:990
5.947:989
5.950:989
5.950:989
5.950:988
5.950:988
5.950:987
5.950:987
5.950:986
5.966:986
5.966:986
5.967:986
5.971:985
5.971:986
5.971:986
5.971:987
5.971:987
5.971:988
5.971:990
5.971:906
5.971:790
5.975:682
5.975:585
5.975:470
5.975:363
5.975:258
5.975:184
5.975:159
5.975:175
5.975:212
5.975:241
5.979:280
5.979:306
5.979:334
5.979:364
5.979:411
5.979:442
5.979:439
5.979:414
6.000:393
6.000:382
6.000:370
6.000:370
6.000:371
6.000:388
6.000:367
6.000:342
6.001:338
6.004:353
6.004:375
6.004:385
6.004:403
6.004:412
6.004:429
6.004:447
6.005:489
6.005:509
6.005:496
6.007:456
6.007:423
6.007:400
6.008:381
6.008:375
6.008:374
6.008:383
6.008:360
6.008:340
6.012:336
6.012:351
6.027:351
6.027:372
6.027:386
6.029:404
6.029:418
6.029:431
6.029:446
6.029:492
6.032:515
6.033:503
6.033:468
6.033:442
6.033:415
6.033:400
6.033:392
6.033:387
6.033:391
6.034:363
6.036:346
6.036:352
6.036:373
6.036:396
6.036:406
6.036:421
6.037:432
6.037:443
6.037:468
6.040:520
6.040:539
6.040:525
6.057:486
6.057:457
6.057:440
6.057:425
6.058:416
6.061:418
6.061:424
6.061:396
6.061:372
6.061:379
6.061:397
6.062:420
6.062:432
6.062:445
6.062:452
6.065:470
6.065:490
6.065:545
6.065:564
6.065:545
6.065:504
6.067:472
6.067:451
6.067:442
6.069:437
6.069:439
6.069:439
6.069:407
6.069:393
6.069:403
6.085:403
6.085:421
6.085:445
6.085:460
6.090:469
6.090:475
6.090:492
6.090:520
6.090:570
6.090:578
6.090:556
6.090:520
6.090:496
6.090:471
6.094:455
6.094:446
6.094:449
6.094:448
6.094:423
6.095:412
6.095:424
6.095:444
6.095:462
6.097:474
6.097:483
6.098:491
6.099:508
6.099:535
6.099:584
6.099:593
6.113:569
6.117:538
6.117:518
6.119:499
6.119:487
6.119:475
6.119:481
6.119:477
6.119:447
6.120:440
6.120:450
6.122:462
6.123:482
6.123:501
6.123:506
6.123:509
6.123:527
6.123:557
6.123:602
6.123:609
6.126:589
6.126:556
6.126:534
6.126:508
6.126:495
6.126:492
6.127:500
6.127:492
6.127:464
6.127:456
6.147:456
6.147:466
6.147:490
6.147:502
6.147:518
6.147:526
6.148:538
6.148:552
6.148:585
6.148:630
6.150:631
6.150:611
6.150:575
6.150:551
6.150:527
6.150:516
6.150:510
6.152:519
6.152:505
6.155:476
6.155:466
6.155:477
6.155:503
6.155:519
6.155:539
6.155:546
6.155:554
6.155:570
6.155:611
6.159:646
6.175:648
6.175:623
6.175:590
6.175:570
6.175:547
6.176:536
6.180:532
6.180:541
6.180:515
6.180:485
6.180:477
6.180:489
6.180:507
6.180:519
6.180:544
6.180:554
6.184:569
6.184:582
6.184:617
6.184:653
6.184:649
6.184:619
6.184:586
6.184:559
6.184:532
6.184:524
6.187:516
6.188:523
6.188:497
6.188:471
6.203:471
6.203:469
6.203:481
6.203:504
6.203:509
6.203:518
6.208:522
6.208:534
6.208:552
6.208:591
6.208:616
6.208:606
6.208:576
6.208:541
6.208:514
6.212:487
6.212:481
6.212:472
6.212:476
6.212:449
6.212:422
6.212:418
6.212:427
6.212:441
6.212:449
6.215:463
6.215:468
6.215:474
6.215:483
6.215:522
6.232:546
6.232:536
6.237:502
6.237:470
6.237:443
6.237:423
6.237:411
6.237:401
6.238:412
6.238:392
6.238:366
6.238:364
6.241:372
6.241:384
6.241:396
6.241:411
6.241:414
6.241:422
6.241:441
6.241:491
6.242:515
6.245:502
6.245:470
6.245:438
6.245:409
6.245:390
6.245:383
6.245:375
6.245:380
6.246:354
6.261:354
6.261:333
6.265:335
6.265:349
6.265:368
6.265:377
6.265:393
6.265:399
6.265:414
6.265:431
6.265:477
6.270:495
6.270:485
6.270:456
6.270:425
6.270:394
6.270:372
6.270:362
6.270:361
6.270:370
6.270:346
6.273:325
6.273:334
6.273:352
6.273:371
6.273:379
6.274:391
6.274:399
6.274:415
6.274:435
6.294:487
6.294:504
6.294:489
6.294:458
6.294:428
6.294:400
6.294:385
6.294:382
6.299:388
6.299:388
6.299:354
6.299:339
6.299:345
6.299:362
6.299:382
6.299:404
6.299:417
6.303:423
6.303:435
6.303:457
6.303:507
6.303:517
6.303:500
6.303:471
6.303:447
6.303:418
6.303:405
6.306:401
6.306:403
6.306:398
6.323:398
6.323:369
6.323:352
6.323:365
6.323:385
6.323:404
6.323:420
6.327:432
6.327:437
6.327:456
6.327:482
6.327:533
6.327:545
6.327:527
6.327:492
6.327:463
6.331:433
6.331:420
6.332:411
6.332:418
6.332:415
6.332:385
6.332:372
6.332:384
6.332:401
6.332:417
6.335:435
6.335:444
6.335:448
6.335:464
6.351:497
6.351:547
6.351:554
6.351:532
6.356:501
6.356:481
6.356:451
6.356:433
6.356:419
6.356:433
6.356:427
6.356:396
6.356:379
6.360:389
6.360:413
6.360:430
6.360:451
6.360:467
6.360:476
6.360:485
6.360:516
6.360:559
6.360:562
6.364:543
6.364:508
6.364:479
6.364:454
6.364:447
6.364:442
6.364:449
6.380:449
6.380:436
6.380:410
6.384:404
6.384:414
6.384:428
6.384:435
6.384:447
6.384:459
6.384:474
6.385:493
6.385:527
6.388:565
6.388:569
6.388:549
6.388:516
6.388:491
6.388:466
6.388:449
6.388:440
6.389:452
6.389:436
6.393:410
6.393:405
6.393:411
6.393:431
6.393:446
6.393:466
6.394:474
6.394:486
6.412:503
6.412:541
6.412:569
6.413:566
6.413:539
6.413:510
6.413:486
6.413:467
6.413:455
6.417:446
6.417:454
6.417:432
6.417:407
6.417:403
6.417:417
6.417:438
6.417:447
6.417:467
6.417:480
6.421:491
6.421:504
6.421:545
6.421:573
6.421:564
6.421:536
6.421:507
6.421:481
6.421:457
6.425:452
6.425:448
6.442:448
6.442:462
6.442:437
6.442:408
6.442:402
6.442:417
6.442:439
6.442:448
6.446:468
6.446:475
6.446:485
6.446:498
6.446:545
6.446:572
6.446:559
6.446:531
6.446:499
6.446:472
6.450:455
6.450:457
6.450:451
6.450:455
6.450:427
6.450:402
6.450:401
6.450:416
6.450:439
6.454:452
6.454:464
6.454:475
6.470:485
6.470:501
6.470:551
6.470:574
6.470:561
6.475:532
6.475:500
6.475:476
6.475:460
6.475:450
6.475:448
6.475:455
6.475:427
6.475:400
6.475:397
6.478:416
6.478:439
6.478:450
6.478:466
6.478:478
6.478:492
6.478:506
6.478:556
6.478:576
6.482:559
6.482:528
6.482:497
6.482:476
6.482:460
6.482:453
6.498:453
6.498:447
6.498:453
6.498:426
6.503:404
6.503:405
6.503:421
6.503:441
6.503:453
6.503:467
6.503:477
6.503:493
6.503:511
6.503:560
6.507:576
6.507:559
6.507:532
6.507:505
6.507:474
6.507:460
6.507:449
6.507:448
6.507:451
6.511:424
6.511:402
6.511:406
6.511:424
6.511:449
6.511:468
6.511:472
6.527:474
6.531:486
6.531:511
6.531:562
6.531:571
6.531:555
6.531:525
6.533:499
6.533:475
6.533:460
6.533:449
6.536:451
6.536:447
6.536:417
6.536:403
6.536:412
6.536:430
6.536:445
6.536:458
6.537:470
6.539:479
6.540:498
6.540:519
6.540:565
6.540:575
6.540:555
6.540:523
6.540:498
6.540:470
6.540:459
6.561:459
6.561:452
6.561:457
6.561:449
6.561:421
6.561:408
6.561:415
6.561:433
6.561:446
6.561:462
6.565:470
6.565:480
6.565:494
6.565:521
6.565:572
6.565:581
6.565:558
6.565:528
6.565:507
6.569:480
6.569:463
6.569:456
6.569:465
6.569:454
6.569:423
6.569:411
6.569:425
6.569:445
6.569:456
6.572:472
6.589:479
6.589:496
6.589:516
6.589:543
6.589:583
6.589:581
6.593:557
6.593:526
6.593:502
6.593:477
6.593:469
6.593:463
6.593:469
6.593:449
6.593:421
6.593:415
6.598:429
6.598:451
6.598:464
6.598:482
6.598:488
6.598:498
6.598:520
6.598:558
6.598:598
6.601:599
6.601:578
6.601:544
6.601:529
6.601:509
6.617:509
6.617:503
6.617:496
6.617:504
6.617:485
6.617:458
6.621:454
6.621:464
6.621:486
6.621:498
6.621:519
6.622:525
6.622:532
6.622:546
6.622:585
6.626:621
6.626:615
6.626:591
6.626:558
6.626:532
6.626:503
6.626:491
6.626:484
6.626:494
6.626:471
6.629:447
6.629:443
6.629:453
6.629:475
6.629:488
6.646:504
6.646:509
6.651:522
6.651:537
6.651:576
6.651:606
6.651:601
6.651:572
6.651:538
6.651:509
6.651:482
6.651:470
6.655:461
6.655:463
6.655:431
6.655:403
6.655:402
6.655:413
6.655:436
6.655:447
6.655:461
6.659:466
6.659:476
6.659:492
6.659:538
6.659:563
6.659:550
6.659:526
6.659:497
6.659:473
6.674:473
6.679:460
6.679:452
6.679:446
6.679:454
6.679:429
6.679:406
6.679:406
6.679:417
6.680:437
6.680:446
6.683:462
6.683:470
6.683:481
6.683:494
6.683:541
6.683:562
6.683:548
6.683:522
6.683:494
6.684:469
6.687:451
6.687:444
6.688:442
6.688:447
6.688:421
6.688:395
6.688:396
6.688:415
6.688:440
6.707:449
6.707:457
6.707:467
6.707:477
6.707:487
6.707:534
6.707:559
6.707:552
6.711:525
6.711:496
6.711:468
6.711:447
6.711:433
6.711:430
6.711:437
6.711:409
6.713:389
6.716:394
6.716:412
6.716:433
6.716:445
6.716:457
6.716:463
6.716:476
6.716:493
6.716:540
6.716:559
6.720:545
6.720:521
6.720:495
6.736:495
6.737:468
6.737:448
6.737:437
6.737:435
6.737:437
6.737:409
6.741:393
6.741:408
6.741:420
6.741:439
6.741:452
6.741:458
6.741:468
6.741:483
6.741:503
6.745:551
6.745:563
6.745:547
6.745:519
6.745:491
6.745:462
6.745:442
6.745:431
6.745:436
6.745:436
6.749:409
6.749:395
6.749:407
6.749:431
6.764:460
6.765:486
6.765:511
6.765:534
6.769:567
6.769:608
6.769:677
6.769:707
6.769:714
6.769:713
6.770:727
6.770:733
6.770:751
6.774:783
6.774:826
6.774:865
6.774:879
6.774:908
6.774:955
6.774:990
6.774:989
6.774:989
6.774:988
6.778:988
6.778:987
6.778:986
6.778:986
6.778:985
6.778:985
6.778:986
6.793:986
6.793:988
6.793:989
6.798:982
6.798:908
6.798:841
6.798:756
6.798:664
6.798:588
6.798:522
6.798:456
6.798:367
6.802:300
6.802:260
6.802:245
6.802:254
6.802:293
6.802:353
6.803:374
6.803:367
6.803:353
6.803:339
6.806:325
6.806:318
6.806:316
6.806:331
6.806:329
6.806:311
6.806:313
6.806:328
6.826:359
6.826:382
6.827:410
6.827:425
6.827:434
6.827:449
6.827:483
6.827:519
6.827:517
6.831:494
6.832:464
6.832:446
6.832:421
6.832:411
6.832:401
6.832:403
6.832:382
6.832:352
6.832:346
6.834:357
6.835:378
6.835:391
6.835:411
6.835:418
6.835:424
6.835:438
6.835:481
6.835:518
6.839:516
6.839:490
6.854:490
6.855:466
6.855:443
6.855:413
6.855:401
6.855:399
6.855:413
6.855:388
6.860:360
6.860:359
6.860:376
6.860:399
6.860:407
6.860:427
6.860:434
6.860:440
6.860:455
6.860:499
6.864:533
6.864:531
6.864:509
6.864:478
6.864:458
6.864:438
6.864:426
6.864:418
6.865:428
6.867:405
6.867:382
6.867:382
6.883:397
6.883:419
6.883:430
6.883:447
6.883:456
6.888:468
6.888:484
6.888:531
6.888:559
6.888:555
6.888:532
6.888:497
6.889:469
6.889:450
6.889:438
6.892:436
6.892:448
6.892:422
6.892:400
6.892:402
6.892:417
6.892:441
6.892:450
6.892:462
6.896:469
6.896:487
6.896:507
6.896:554
6.896:581
6.896:571
6.911:571
6.911:545
6.911:515
6.911:486
6.917:468
6.917:458
6.917:452
6.917:458
6.917:433
6.917:412
6.917:418
6.918:437
6.918:458
6.918:470
6.921:483
6.921:496
6.921:513
6.921:529
6.921:576
6.921:596
6.921:584
6.921:555
6.921:521
6.925:494
6.925:476
6.925:469
6.925:472
6.925:479
6.925:453
6.925:431
6.941:436
6.945:453
6.945:477
6.945:494
6.945:508
6.945:510
6.945:525
6.945:546
6.945:599
6.945:614
6.950:591
6.950:565
6.950:536
6.950:512
6.950:497
6.950:494
6.950:500
6.950:501
6.950:468
6.950:448
6.954:456
6.954:475
6.954:495
6.954:511
6.954:522
6.954:530
6.954:546
6.954:564
6.954:614
6.954:628
6.974:628
6.974:609
6.974:579
6.974:555
6.974:532
6.974:519
6.974:509
6.974:511
6.974:513
6.974:486
6.978:471
6.978:479
6.978:496
6.978:512
6.978:530
6.978:545
6.978:555
6.978:571
6.978:597
6.982:649
6.982:658
6.982:634
6.982:602
6.982:573
6.982:541
6.982:527
6.982:524
6.982:532
6.982:530
6.986:501
7.002:488
7.002:496
7.002:516
7.002:532
7.002:547
7.002:555
7.007:564
7.007:579
7.007:601
7.007:645
7.007:657
7.007:638
7.007:610
7.007:581
7.007:549
7.007:535
7.011:523
7.011:528
7.011:513
7.011:482
7.011:474
7.011:485
7.011:508
7.011:518
7.011:534
7.014:539
7.014:546
7.015:561
7.015:585
7.015:625
7.030:625
7.030:626
7.030:603
7.030:569
7.032:545
7.032:515
7.035:500
7.035:487
7.035:495
7.035:478
7.035:449
7.035:438
7.036:443
7.036:454
7.036:464
7.039:482
7.039:487
7.039:493
7.039:508
7.040:538
7.040:572
7.040:566
7.040:538
7.040:501
7.040:474
7.043:446
7.043:429
7.043:420
7.043:432
7.043:416
7.060:385
7.060:373
7.064:379
7.064:398
7.064:402
7.064:418
7.064:426
7.064:437
7.064:447
7.064:482
7.064:519
7.064:511
7.068:487
7.068:452
7.068:423
7.068:398
7.068:383
7.068:374
7.068:383
7.068:362
7.068:337
7.072:327
7.072:341
7.072:365
7.072:377
7.072:394
7.072:399
7.072:407
7.072:417
7.072:464
7.088:464
7.093:497
7.093:491
7.093:461
7.093:429
7.093:406
7.093:385
7.093:374
7.093:366
7.093:377
7.093:353
7.096:330
7.096:328
7.096:344
7.096:366
7.096:376
7.096:392
7.096:400
7.096:409
7.098:423
7.101:470
7.101:506
7.101:496
7.101:467
7.101:435
7.101:409
7.101:388
7.101:383
7.101:381
7.101:390
7.120:362
7.121:336
7.121:339
7.121:355
7.121:378
7.121:390
7.121:408
7.121:416
7.126:427
7.126:433
7.126:474
7.126:502
7.126:500
7.126:472
7.126:442
7.126:421
7.126:404
7.130:393
7.130:394
7.130:405
7.130:376
7.130:350
7.130:352
7.130:372
7.130:400
7.130:411
7.130:421
7.133:429
7.133:443
7.133:459
7.150:459
7.150:512
7.150:535
7.150:519
7.150:490
7.150:464
7.150:440
7.154:421
7.154:413
7.154:410
7.154:416
7.154:386
7.154:367
7.154:373
7.154:385
7.154:407
7.158:423
7.158:437
7.158:444
7.158:459
7.158:482
7.158:530
7.158:544
7.158:530
7.158:499
7.159:474
7.162:444
7.162:432
7.162:424
7.162:423
7.178:426
7.178:399
7.178:380
7.179:389
7.183:406
7.183:421
7.183:440
7.183:452
7.183:458
7.183:474
7.183:494
7.183:539
7.183:549
7.187:531
7.187:501
7.187:481
7.187:461
7.187:447
7.187:438
7.187:440
7.187:440
7.187:409
7.187:390
7.190:401
7.190:420
7.190:438
7.190:456
7.190:465
7.190:472
7.191:486
7.207:486
7.207:510
7.207:559
7.212:571
7.212:552
7.212:525
7.212:500
7.212:471
7.212:457
7.212:447
7.212:449
7.212:440
7.216:409
7.216:399
7.216:405
7.216:428
7.216:446
7.216:462
7.216:472
7.216:482
7.216:499
7.216:522
7.220:565
7.220:568
7.220:551
7.220:526
7.220:504
7.220:476
7.220:460
7.220:449
7.240:452
7.240:441
7.240:409
7.240:404
7.240:418
7.240:433
7.240:445
7.240:464
7.240:472
7.245:481
7.245:501
7.245:534
7.245:574
7.245:577
7.245:556
7.245:524
7.245:496
7.245:467
7.245:455
7.248:447
7.248:455
7.248:438
7.248:412
7.248:406
7.248:414
7.248:435
7.248:447
7.248:468
7.252:479
7.252:485
7.268:485
7.268:502
7.269:542
7.269:583
7.269:577
7.269:547
7.269:513
7.269:491
7.273:472
7.273:461
7.273:452
7.273:458
7.273:436
7.273:408
7.273:403
7.273:416
7.273:435
7.273:444
7.277:462
7.277:470
7.277:480
7.277:499
7.277:539
7.277:578
7.277:571
7.278:545
7.278:510
7.281:483
7.281:460
7.281:450
7.297:445
7.297:454
7.297:430
7.298:407
7.298:410
7.302:423
7.302:444
7.302:453
7.302:466
7.302:473
7.302:486
7.302:500
7.302:541
7.302:576
7.302:568
7.305:540
7.305:508
7.305:486
7.305:465
7.305:452
7.305:446
7.305:453
7.305:425
7.305:402
7.310:405
7.310:422
7.310:447
7.310:455
7.310:468
7.310:473
7.325:473
7.325:486
7.325:503
7.325:547
7.331:572
7.331:565
7.331:537
7.332:509
7.332:483
7.332:464
7.332:456
7.332:447
7.332:455
7.332:429
7.334:406
7.334:406
7.334:420
7.334:445
7.335:455
7.335:469
7.335:476
7.335:486
7.335:500
7.338:554
7.338:580
7.338:565
7.338:535
7.338:506
7.338:484
7.338:465
7.354:455
7.359:449
7.359:452
7.359:425
7.359:400
7.359:404
7.359:422
7.359:447
7.359:453
7.359:468
7.363:474
7.363:491
7.364:508
7.364:555
7.364:574
7.364:558
7.365:534
7.365:504
7.365:478
7.365:459
7.367:447
7.367:445
7.367:451
7.367:425
7.367:410
7.368:415
7.368:432
7.368:451
7.368:466
7.368:480
7.388:480
7.388:488
7.388:506
7.388:530
7.388:583
7.388:595
7.388:580
7.388:551
7.388:523
7.388:495
7.392:476
7.392:468
7.392:472
7.392:474
7.392:445
7.392:427
7.392:433
7.392:450
7.392:468
7.396:482
7.396:490
7.396:496
7.396:509
7.396:531
7.396:580
7.396:590
7.396:570
7.396:543
7.396:516
7.399:484
7.415:467
7.415:461
7.415:465
7.415:459
7.415:432
7.416:419
7.421:431
7.421:451
7.421:465
7.421:474
7.421:483
7.421:491
7.421:504
7.421:528
7.421:581
7.421:594
7.425:573
7.425:543
7.425:517
7.425:483
7.425:465
7.425:459
7.425:466
7.425:463
7.425:441
7.427:430
7.428:432
7.428:443
7.428:458
7.428:475
7.444:475
7.444:482
7.445:495
7.445:514
7.445:541
7.449:585
7.449:589
7.449:567
7.449:534
7.449:510
7.449:486
7.449:475
7.449:470
7.449:482
7.449:470
7.453:445
7.453:434
7.453:447
7.453:473
7.453:487
7.453:506
7.453:514
7.453:524
7.453:543
7.453:581
7.457:621
7.457:624
7.457:605
7.457:574
7.457:544
7.473:516
7.473:502
7.477:494
7.477:502
7.477:486
7.477:458
7.477:449
7.477:460
7.477:482
7.478:496
7.478:512
7.478:518
7.482:522
7.482:533
7.482:571
7.482:608
7.482:606
7.482:585
7.482:555
7.482:529
7.482:502
7.486:490
7.486:482
7.486:488
7.486:464
7.486:435
7.486:430
7.486:436
7.486:458
7.486:465
7.502:465
7.506:475
7.506:479
7.506:487
7.506:498
7.506:535
7.506:570
7.506:569
7.506:542
7.506:509
7.507:481
7.511:455
7.511:441
7.511:435
7.511:445
7.511:427
7.511:405
7.511:404
7.511:417
7.511:436
7.514:448
7.514:466
7.514:473
7.514:484
7.514:497
7.514:540
7.514:568
7.515:563
7.515:540
7.515:510
7.535:480
7.535:455
7.535:445
7.535:443
7.535:451
7.535:426
7.535:397
7.535:396
7.539:411
7.539:430
7.539:436
7.539:452
7.539:467
7.539:481
7.539:498
7.539:542
7.539:566
7.543:556
7.543:527
7.543:496
7.543:472
7.543:450
7.543:439
7.543:432
7.543:438
7.544:414
7.544:391
7.547:393
7.547:411
7.547:434
7.563:434
7.563:444
7.564:456
7.564:461
7.564:474
7.564:492
7.564:539
7.567:560
7.567:549
7.567:527
7.567:495
7.567:465
7.567:450
7.567:444
7.567:441
7.568:446
7.572:416
7.572:394
7.572:399
7.572:416
7.572:438
7.572:446
7.572:460
7.572:468
7.572:482
7.572:502
7.576:551
7.576:567
7.576:550
7.576:523
7.592:495
7.592:471
7.592:453
7.592:444
7.596:441
7.596:441
7.596:410
7.596:389
7.597:394
7.597:405
7.597:422
7.597:435
7.597:442
7.601:444
7.601:461
7.601:484
7.601:538
7.601:562
7.601:562
7.601:553
7.601:545
7.601:534
7.601:526
7.604:533
7.604:564
7.604:582
7.605:572
7.605:587
7.605:637
7.605:700
7.621:700
7.621:763
7.621:816
7.625:868
7.625:918
7.625:974
7.625:989
7.625:988
7.625:988
7.625:987
7.625:987
7.625:987
7.629:987
7.629:987
7.629:987
7.629:986
7.629:987
7.629:986
7.629:987
7.629:988
7.630:988
7.630:989
7.633:990
7.633:925
7.633:849
7.633:790
7.633:740
7.633:702
7.634:596
7.634:468
7.653:370
7.654:299
7.654:246
7.654:238
7.654:245
7.654:273
7.654:283
7.654:269
7.654:267
7.658:284
7.658:315
7.658:339
7.658:367
7.658:383
7.658:398
7.658:427
7.659:464
7.659:508
7.659:511
7.662:484
7.662:449
7.662:427
7.662:394
7.662:379
7.662:374
7.662:386
7.662:375
7.662:349
7.666:342
7.666:346
7.682:346
7.682:364
7.682:375
7.682:391
7.682:399
7.683:404
7.683:419
7.683:450
7.687:487
7.687:490
7.687:472
7.687:441
7.687:416
7.687:390
7.687:377
7.687:369
7.687:380
7.687:366
7.691:337
7.691:330
7.691:344
7.691:367
7.691:376
7.691:394
7.691:402
7.691:413
7.691:430
7.695:472
7.695:510
7.695:508
7.710:484
7.710:451
7.710:425
7.710:405
7.710:396
7.715:388
7.715:400
7.715:384
7.715:357
7.715:351
7.715:361
7.715:390
7.715:407
7.715:425
7.719:432
7.719:443
7.719:457
7.719:501
7.719:532
7.719:524
7.719:497
7.719:465
7.719:443
7.719:428
7.723:418
7.723:413
7.723:426
7.723:404
7.723:378
7.723:376
7.739:376
7.739:391
7.739:412
7.739:424
7.744:441
7.744:446
7.744:460
7.744:476
7.744:522
7.744:552
7.744:543
7.744:520
7.744:492
7.744:464
7.748:441
7.748:432
7.748:430
7.748:444
7.748:425
7.748:398
7.748:394
7.748:409
7.748:433
7.752:444
7.752:460
7.752:466
7.752:476
7.752:491
7.752:539
7.752:566
7.767:559
7.773:534
7.773:507
7.773:483
7.773:467
7.773:456
7.773:447
7.773:459
7.773:436
7.773:410
7.777:413
7.777:431
7.777:453
7.777:466
7.777:478
7.777:486
7.777:500
7.777:514
7.777:562
7.777:581
7.781:572
7.781:547
7.781:519
7.781:495
7.781:480
7.781:469
7.781:468
7.781:475
7.782:439
7.785:417
7.801:417
7.801:426
7.801:443
7.801:464
7.801:479
7.801:494
7.801:503
7.801:517
7.801:539
7.805:589
7.805:605
7.805:587
7.805:559
7.805:534
7.805:501
7.805:487
7.805:479
7.805:481
7.805:485
7.810:460
7.810:442
7.810:445
7.810:465
7.810:484
7.810:498
7.810:508
7.810:521
7.810:536
7.810:557
7.813:608
7.829:622
7.830:602
7.830:575
7.830:550
7.830:520
7.830:507
7.834:499
7.834:507
7.834:504
7.834:473
7.834:459
7.834:469
7.834:488
7.834:505
7.834:524
7.834:533
7.838:540
7.838:553
7.838:577
7.838:625
7.838:633
7.838:617
7.838:587
7.839:559
7.839:531
7.842:517
7.842:505
7.842:506
7.842:498
7.842:468
7.858:468
7.858:459
7.859:470
7.859:491
7.859:506
7.863:529
7.863:535
7.863:539
7.864:554
7.864:579
7.864:621
7.864:621
7.864:599
7.864:567
7.864:540
7.867:512
7.867:498
7.867:489
7.867:495
7.867:481
7.867:453
7.867:442
7.868:447
7.868:464
7.871:473
7.871:491
7.871:506
7.871:514
7.871:524
7.871:553
7.886:585
7.886:581
7.892:561
7.892:529
7.892:500
7.892:471
7.892:457
7.892:450
7.892:455
7.892:432
7.892:404
7.892:398
7.895:408
7.895:424
7.895:433
7.895:447
7.895:450
7.895:459
7.896:471
7.896:504
7.896:540
7.900:537
7.900:514
7.900:481
7.900:449
7.900:420
7.900:407
7.900:405
7.900:416
7.900:396
7.915:396
7.920:366
7.920:354
7.920:363
7.920:384
7.920:395
7.920:411
7.920:417
7.920:422
7.920:435
7.920:476
7.924:507
7.924:504
7.924:477
7.924:443
7.924:417
7.924:394
7.924:383
7.924:379
7.924:391
7.927:368
7.927:343
7.927:340
7.927:354
7.927:375
7.927:384
7.927:402
7.927:411
7.927:420
7.927:433
7.948:476
7.948:507
7.948:502
7.949:475
7.949:439
7.949:412
7.949:395
7.949:389
7.952:389
7.953:396
7.953:372
7.953:344
7.953:345
7.953:358
7.953:382
7.953:392
7.953:408
7.957:416
7.957:431
7.957:447
7.957:495
7.957:518
7.957:509
7.957:482
7.958:450
7.958:424
7.958:408
7.961:401
7.961:397
7.961:403
7.977:403
7.977:377
7.977:355
7.977:359
7.978:374
7.978:398
7.978:410
7.982:424
7.982:429
7.982:444
7.982:463
7.982:511
7.982:532
7.982:520
7.982:493
7.982:464
7.986:440
7.986:422
7.986:413
7.986:409
7.986:415
7.986:387
7.986:364
7.986:366
7.986:385
7.986:411
7.989:424
7.989:441
7.989:450
7.989:460
8.005:474
8.005:523
8.005:542
8.005:531
8.010:505
8.010:480
8.010:452
8.010:437
8.010:430
8.010:427
8.010:424
8.010:396
8.010:379
8.015:385
8.015:403
8.015:424
8.015:437
8.015:454
8.015:464
8.015:481
8.015:501
8.015:549
8.015:560
8.017:546
8.017:518
8.017:487
8.017:455
8.017:439
8.017:430
8.017:431
8.034:431
8.034:431
8.034:405
8.038:395
8.039:407
8.039:426
8.039:445
8.039:462
8.039:463
8.039:468
8.039:484
8.039:507
8.043:554
8.043:570
8.043:555
8.043:523
8.043:496
8.043:463
8.043:446
8.043:440
8.043:446
8.043:443
8.046:414
8.047:400
8.047:407
8.047:426
8.047:442
8.047:458
8.047:467
8.047:477
8.067:495
8.067:519
8.067:568
8.068:574
8.068:553
8.068:521
8.068:496
8.068:465
8.068:450
8.072:446
8.072:456
8.072:447
8.072:416
8.072:403
8.072:411
8.072:433
8.072:446
8.072:460
8.072:470
8.075:479
8.075:496
8.076:528
8.076:571
8.076:567
8.076:544
8.076:514
8.076:489
8.076:462
8.079:457
8.079:452
8.095:452
8.095:457
8.095:439
8.095:411
8.095:404
8.096:413
8.096:435
8.096:448
8.100:467
8.100:479
8.100:486
8.100:492
8.100:528
8.100:569
8.100:570
8.100:543
8.100:512
8.100:488
8.104:462
8.104:448
8.104:442
8.104:452
8.104:434
8.104:409
8.104:406
8.104:415
8.104:438
8.108:449
8.108:468
8.108:474
8.124:481
8.125:496
8.125:538
8.125:572
8.125:567
8.129:542
8.129:512
8.129:489
8.129:461
8.129:446
8.129:439
8.129:454
8.129:432
8.130:402
8.133:399
8.133:416
8.133:440
8.133:452
8.133:472
8.133:476
8.133:485
8.133:499
8.133:542
8.133:569
8.137:564
8.137:539
8.137:510
8.137:483
8.137:461
8.137:451
8.153:451
8.153:447
8.153:456
8.153:429
8.158:405
8.158:401
8.158:409
8.158:431
8.158:447
8.158:466
8.158:475
8.158:488
8.158:500
8.158:545
8.161:569
8.162:561
8.162:535
8.162:507
8.162:483
8.162:462
8.162:450
8.162:455
8.162:465
8.166:433
8.166:404
8.166:402
8.166:414
8.166:437
8.166:453
8.166:472
8.182:481
8.186:489
8.186:502
8.186:546
8.186:567
8.186:559
8.186:537
8.186:509
8.186:484
8.186:464
8.190:453
8.190:447
8.190:453
8.190:427
8.190:406
8.190:407
8.190:422
8.190:445
8.190:454
8.190:469
8.194:478
8.194:493
8.194:508
8.194:553
8.194:576
8.194:558
8.194:528
8.194:497
8.194:470
8.198:457
8.215:457
8.215:460
8.215:459
8.215:456
8.215:423
8.215:402
8.215:410
8.215:425
8.215:443
8.219:459
8.219:471
8.219:478
8.219:494
8.219:513
8.219:565
8.219:578
8.219:562
8.219:533
8.219:508
8.223:479
8.223:464
8.223:453
8.223:452
8.223:450
8.223:422
8.223:406
8.223:414
8.223:431
8.223:449
8.227:463
8.243:474
8.243:478
8.243:493
8.243:516
8.243:563
8.243:576
8.248:556
8.248:524
8.248:496
8.248:468
8.248:454
8.248:454
8.248:456
8.248:448
8.248:418
8.248:403
8.252:408
8.252:430
8.252:448
8.252:465
8.252:472
8.252:484
8.252:500
8.252:524
8.252:572
8.256:578
8.256:557
8.256:528
8.256:507
8.256:483
8.272:483
8.272:468
8.272:456
8.272:460
8.272:452
8.276:420
8.276:409
8.276:416
8.276:437
8.276:448
8.276:468
8.276:479
8.276:491
8.276:507
8.276:540
8.280:587
8.280:585
8.280:557
8.280:523
8.280:504
8.280:484
8.280:470
8.280:462
8.280:469
8.284:455
8.284:426
8.284:419
8.284:425
8.284:444
8.284:460
8.300:482
8.300:491
8.305:504
8.305:523
8.305:561
8.305:602
8.305:601
8.305:577
8.305:552
8.305:532
8.305:506
8.305:495
8.308:490
8.308:502
8.308:487
8.308:462
8.308:456
8.308:466
8.308:485
8.308:491
8.308:508
8.313:514
8.313:526
8.313:543
8.313:582
8.313:619
8.313:614
8.313:584
8.313:554
8.313:531
8.329:531
8.334:504
8.334:491
8.334:483
8.334:493
8.334:474
8.334:447
8.334:438
8.334:452
8.334:476
8.334:489
8.337:502
8.337:502
8.337:510
8.337:525
8.338:565
8.338:598
8.338:590
8.338:558
8.338:521
8.342:491
8.342:465
8.342:450
8.342:442
8.342:451
8.342:428
8.343:401
8.343:398
8.343:413
8.343:436
8.362:447
8.362:461
8.362:466
8.362:481
8.362:499
8.362:540
8.362:567
8.362:561
8.366:534
8.366:503
8.366:477
8.366:457
8.366:448
8.366:442
8.366:448
8.366:422
8.366:399
8.370:401
8.370:422
8.370:443
8.370:450
8.370:463
8.370:468
8.370:480
8.370:495
8.370:543
8.370:567
8.373:551
8.373:524
8.373:496
8.391:496
8.391:474
8.391:452
8.391:441
8.391:438
8.391:446
8.391:419
8.395:396
8.395:396
8.395:408
8.395:429
8.395:441
8.395:456
8.395:465
8.395:482
8.395:500
8.399:546
8.399:562
8.399:545
8.399:519
8.399:489
8.399:462
8.399:448
8.399:442
8.399:439
8.399:443
8.403:417
8.403:397
8.403:401
8.403:416
8.419:434
8.419:443
8.419:454
8.424:463
8.424:479
8.424:502
8.424:551
8.424:566
8.424:549
8.424:525
8.424:498
8.424:467
8.424:449
8.427:439
8.427:442
8.427:444
8.427:414
8.427:395
8.427:401
8.427:419
8.427:445
8.427:458
8.427:468
8.431:477
8.431:491
8.431:511
8.431:556
8.431:566
8.431:546
8.431:513
8.447:513
8.447:485
8.447:451
8.452:432
8.452:418
8.452:417
8.452:416
8.452:391
8.452:380
8.453:395
8.453:424
8.453:455
8.457:484
8.457:511
8.457:542
8.457:576
8.457:619
8.457:688
8.457:721
8.457:727
8.457:727
8.457:741
8.461:759
8.461:784
8.461:813
8.461:858
8.461:893
8.461:909
8.461:941
8.461:990
8.480:989
8.480:988
8.480:988
8.480:987
8.480:986
8.480:985
8.480:986
8.480:985
8.481:984
8.485:986
8.485:986
8.485:987
8.485:988
8.485:989
8.485:990
8.485:916
8.485:817
8.485:713
8.489:618
8.489:530
8.489:431
8.489:343
8.489:304
8.489:273
8.490:265
8.490:291
8.490:344
8.490:405
8.493:424
8.493:412
8.509:412
8.509:391
8.509:378
8.509:361
8.509:357
8.509:356
8.509:374
8.509:369
8.514:347
8.514:341
8.514:350
8.514:372
8.514:385
8.514:403
8.514:410
8.514:415
8.514:429
8.514:466
8.517:503
8.517:498
8.517:476
8.517:443
8.518:419
8.518:391
8.518:376
8.518:368
8.518:376
8.521:354
8.521:327
8.521:322
8.538:334
8.538:355
8.538:369
8.538:384
8.538:396
8.542:410
8.542:424
8.542:463
8.542:497
8.542:490
8.542:463
8.542:430
8.542:404
8.542:388
8.546:379
8.546:371
8.546:384
8.547:365
8.547:340
8.547:339
8.547:353
8.547:376
8.547:389
8.547:407
8.550:416
8.550:426
8.550:442
8.550:487
8.550:518
8.550:510
8.566:510
8.566:484
8.566:457
8.566:434
8.571:412
8.571:406
8.571:397
8.571:405
8.571:384
8.571:361
8.571:362
8.571:377
8.571:401
8.571:415
8.574:428
8.575:432
8.575:448
8.575:468
8.575:514
8.575:541
8.575:530
8.575:506
8.575:475
8.579:450
8.579:431
8.579:425
8.580:423
8.580:432
8.580:404
8.580:385
8.595:390
8.600:402
8.600:420
8.600:428
8.600:446
8.600:457
8.600:468
8.600:485
8.600:533
8.600:561
8.604:555
8.604:525
8.604:493
8.604:467
8.604:452
8.604:442
8.604:437
8.604:441
8.604:416
8.604:398
8.608:404
8.608:417
8.608:443
8.608:456
8.608:465
8.608:472
8.608:493
8.608:509
8.608:558
8.612:576
8.628:576
8.629:562
8.629:533
8.629:507
8.629:483
8.629:464
8.629:452
8.630:450
8.630:455
8.633:427
8.633:414
8.633:427
8.633:442
8.633:459
8.633:471
8.633:482
8.634:491
8.634:507
8.634:529
8.637:576
8.637:591
8.637:578
8.637:552
8.637:522
8.637:493
8.638:478
8.638:472
8.638:476
8.638:475
8.640:446
8.657:429
8.657:440
8.657:465
8.657:480
8.657:492
8.657:505
8.661:517
8.661:532
8.661:553
8.661:600
8.661:611
8.661:596
8.661:565
8.661:538
8.661:511
8.661:498
8.665:491
8.665:500
8.665:495
8.665:461
8.665:445
8.665:453
8.665:478
8.665:495
8.665:510
8.669:523
8.669:534
8.669:553
8.669:580
8.669:625
8.685:625
8.685:634
8.685:613
8.685:583
8.685:558
8.690:532
8.690:521
8.690:513
8.690:518
8.690:505
8.690:476
8.690:465
8.690:475
8.690:495
8.690:510
8.694:530
8.694:538
8.694:547
8.694:561
8.694:592
8.694:634
8.694:636
8.694:614
8.694:583
8.698:559
8.698:531
8.698:516
8.698:507
8.698:512
8.698:500
8.714:476
8.714:465
8.718:468
8.718:488
8.718:501
8.718:523
8.718:529
8.718:533
8.718:548
8.718:581
8.718:612
8.718:607
8.722:582
8.722:551
8.722:524
8.722:498
8.722:485
8.722:474
8.722:486
8.722:464
8.722:431
8.727:424
8.727:437
8.727:455
8.727:463
8.727:479
8.727:484
8.727:489
8.727:499
8.727:537
8.743:537
8.747:573
8.747:564
8.747:535
8.747:500
8.747:473
8.747:448
8.747:429
8.747:416
8.747:425
8.748:402
8.751:373
8.751:368
8.751:379
8.751:398
8.751:411
8.751:430
8.751:436
8.751:442
8.751:455
8.755:499
8.755:526
8.755:518
8.755:490
8.755:454
8.755:430
8.755:406
8.755:391
8.755:386
8.755:392
8.775:366
8.776:341
8.776:340
8.776:357
8.776:379
8.776:389
8.776:405
8.776:411
8.779:425
8.779:437
8.779:482
8.779:505
8.780:496
8.780:466
8.780:436
8.780:408
8.780:386
8.784:381
8.784:376
8.784:383
8.784:355
8.784:333
8.784:339
8.784:354
8.784:375
8.785:384
8.785:400
8.787:409
8.787:423
8.787:440
8.804:440
8.804:487
8.804:511
8.804:495
8.804:469
8.804:442
8.804:413
8.808:392
8.808:385
8.808:384
8.808:394
8.808:366
8.808:342
8.809:347
8.809:362
8.809:384
8.813:398
8.813:417
8.813:426
8.813:439
8.813:454
8.813:502
8.814:522
8.814:510
8.814:482
8.814:455
8.817:430
8.817:412
8.817:404
8.817:403
8.832:402
8.833:372
8.833:353
8.837:361
8.837:383
8.837:405
8.837:416
8.838:430
8.838:438
8.838:454
8.838:473
8.838:523
8.838:537
8.841:520
8.841:492
8.841:465
8.841:441
8.842:428
8.842:420
8.842:419
8.842:416
8.842:387
8.842:370
8.845:378
8.845:399
8.845:420
8.845:431
8.846:441
8.846:452
8.846:472
8.861:472
8.862:495
8.862:545
8.866:554
8.866:536
8.866:510
8.866:480
8.866:448
8.866:434
8.867:426
8.867:427
8.867:417
8.869:393
8.870:384
8.870:392
8.870:419
8.870:434
8.870:452
8.870:461
8.870:467
8.870:483
8.870:506
8.873:556
8.873:564
8.874:543
8.874:515
8.874:491
8.874:464
8.874:447
8.874:440
8.894:443
8.894:429
8.894:400
8.894:391
8.894:402
8.894:426
8.894:441
8.894:460
8.894:469
8.898:479
8.898:495
8.898:524
8.898:564
8.898:568
8.898:547
8.898:518
8.898:493
8.898:466
8.903:453
8.903:445
8.903:452
8.903:435
8.903:407
8.903:401
8.903:412
8.903:432
8.903:447
8.903:467
8.906:475
8.906:483
8.922:483
8.922:496
8.922:528
8.922:571
8.922:569
8.923:547
8.923:514
8.923:489
8.926:464
8.926:454
8.926:449
8.926:461
8.926:438
8.926:407
8.926:398
8.928:410
8.928:439
8.928:451
8.931:469
8.931:474
8.931:486
8.931:503
8.931:544
8.931:579
8.931:572
8.932:544
8.932:511
8.935:486
8.935:458
8.935:446
8.951:444
8.951:455
8.951:432
8.952:407
8.952:402
8.955:414
8.955:441
8.955:454
8.955:471
8.955:477
8.955:487
8.955:503
8.955:550
8.955:578
8.960:567
8.960:542
8.960:516
8.960:493
8.960:467
8.960:453
8.960:444
8.960:451
8.960:429
8.960:407
8.964:406
8.964:420
8.964:437
8.964:448
8.964:468
8.964:473
8.980:473
8.980:485
8.980:500
8.980:547
8.984:575
8.984:566
8.984:537
8.984:503
8.984:474
8.984:455
8.984:447
8.984:446
8.984:457
8.988:431
8.988:402
8.988:401
8.989:416
8.989:441
8.989:452
8.989:468
8.989:478
8.989:487
8.989:504
8.993:545
8.993:574
8.993:564
8.993:535
8.993:505
8.993:478
8.993:459
9.008:449
9.013:442
9.013:448
9.013:421
9.013:399
9.013:403
9.013:418
9.013:438
9.013:455
9.013:471
9.017:478
9.017:494
9.017:511
9.017:557
9.017:572
9.017:559
9.017:532
9.017:503
9.017:476
9.017:459
9.022:450
9.022:450
9.022:454
9.022:421
9.022:400
9.022:402
9.022:418
9.022:442
9.022:459
9.025:473
9.042:473
9.042:478
9.042:495
9.042:514
9.042:559
9.042:570
9.042:558
9.042:533
9.042:506
9.046:478
9.046:459
9.046:451
9.046:449
9.046:447
9.046:416
9.046:397
9.046:406
9.046:425
9.046:443
9.050:463
9.050:473
9.050:478
9.050:493
9.050:518
9.050:567
9.050:574
9.050:552
9.050:520
9.054:501
9.054:473
9.070:457
9.070:446
9.070:453
9.070:449
9.070:420
9.070:408
9.075:417
9.075:435
9.075:445
9.075:465
9.075:476
9.075:483
9.075:502
9.075:529
9.075:576
9.075:578
9.078:554
9.079:522
9.079:497
9.079:470
9.079:456
9.079:449
9.079:457
9.079:444
9.079:418
9.083:408
9.083:417
9.083:436
9.083:449
9.083:467
9.099:467
9.099:478
9.099:487
9.099:502
9.099:530
9.103:571
9.103:575
9.103:558
9.103:527
9.103:498
9.103:472
9.103:459
9.103:451
9.103:459
9.103:444
9.107:418
9.107:408
9.107:417
9.107:438
9.107:451
9.107:471
9.108:478
9.108:487
9.108:503
9.111:537
9.111:575
9.111:575
9.111:553
9.111:522
9.111:498
9.127:470
9.127:461
9.132:459
9.132:472
9.132:450
9.132:417
9.132:408
9.132:419
9.132:444
9.132:458
9.132:478
9.132:487
9.135:498
9.135:512
9.135:552
9.135:587
9.135:579
9.135:555
9.135:524
9.137:501
9.137:476
9.140:463
9.140:459
9.140:470
9.140:451
9.140:421
9.140:421
9.140:435
9.140:453
9.140:466
9.155:466
9.161:481
9.161:483
9.161:499
9.161:516
9.161:564
9.161:596
9.161:592
9.161:569
9.161:540
9.162:517
9.164:498
9.164:488
9.164:483
9.164:499
9.164:478
9.164:450
9.165:449
9.165:467
9.165:493
9.169:505
9.169:520
9.169:529
9.169:541
9.169:552
9.169:595
9.169:622
9.169:612
9.169:583
9.170:552
9.189:529
9.189:509
9.189:498
9.189:492
9.189:497
9.189:469
9.189:445
9.189:448
9.193:460
9.193:480
9.193:492
9.193:504
9.193:512
9.193:526
9.193:541
9.194:589
9.194:610
9.197:593
9.197:563
9.197:533
9.197:502
9.197:477
9.197:469
9.198:461
9.198:463
9.198:431
9.198:405
9.200:405
9.200:416
9.200:438
9.217:438
9.217:456
9.218:470
9.218:474
9.218:487
9.218:504
9.218:554
9.222:575
9.222:558
9.222:531
9.222:501
9.222:474
9.222:456
9.222:446
9.222:444
9.222:445
9.226:418
9.226:400
9.226:408
9.226:423
9.226:442
9.226:456
9.226:469
9.226:475
9.226:486
9.226:505
9.229:556
9.229:571
9.229:556
9.229:524
9.246:490
9.246:458
9.246:449
9.251:444
9.251:445
9.251:442
9.251:412
9.251:396
9.251:401
9.251:421
9.251:440
9.251:449
9.251:457
9.255:466
9.255:482
9.255:508
9.255:560
9.255:568
9.255:545
9.255:514
9.255:486
9.255:456
9.255:444
9.258:439
9.258:440
9.258:432
9.258:405
9.258:395
9.258:406
9.258:425
9.275:425
9.275:434
9.275:447
9.279:455
9.279:463
9.279:483
9.279:511
9.279:561
9.279:568
9.280:544
9.280:508
9.280:487
9.284:459
9.284:444
9.284:442
9.284:450
9.284:438
9.284:410
9.284:401
9.284:410
9.284:429
9.284:444
9.287:461
9.287:468
9.287:478
9.287:495
9.288:526
9.288:565
9.288:564
9.288:543
9.308:514
9.308:491
9.308:464
9.308:449
9.308:438
9.308:443
9.308:420
9.308:388
9.308:380
9.312:385
9.312:399
9.312:408
9.312:429
9.312:442
9.312:463
9.312:492
9.312:543
9.312:594
9.316:612
9.316:608
9.316:589
9.316:583
9.316:579
9.316:594
9.316:616
9.317:658
9.317:679
9.317:694
9.319:731
9.319:784
9.336:784
9.336:853
9.336:921
9.336:989
9.337:989
9.337:989
9.337:988
9.337:987
9.341:986
9.341:985
9.341:985
9.341:985
9.341:984
9.341:985
9.341:985
9.341:985
9.341:986
9.345:986
9.345:987
9.345:989
9.345:990
9.345:960
9.345:874
9.345:804
9.346:726
9.346:646
9.346:540
9.349:470
9.349:424
9.349:374
9.364:319
9.365:288
9.365:281
9.365:279
9.365:289
9.370:303
9.370:329
9.370:309
9.370:293
9.370:301
9.370:322
9.370:350
9.370:369
9.370:395
9.374:410
9.374:421
9.374:432
9.374:477
9.374:499
9.374:489
9.374:461
9.374:428
9.374:403
9.374:384
9.377:375
9.377:369
9.377:377
9.377:354
9.377:328
9.377:328
9.394:328
9.394:342
9.394:359
9.394:367
9.398:383
9.398:393
9.399:404
9.399:422
9.399:469
9.399:491
9.399:477
