0.001:492
0.001:477
0.001:485
0.001:454
0.001:459
0.001:455
0.001:471
0.001:488
0.002:524
0.002:575
0.002:583
0.002:549
0.002:526
0.002:558
0.002:568
0.003:574
0.003:559
0.003:586
0.003:584
0.003:535
0.003:495
0.003:487
0.003:507
0.003:487
0.004:496
0.004:481
0.004:504
0.004:536
0.004:570
0.004:619
0.004:619
0.004:637
0.004:640
0.005:621
0.005:617
0.005:602
0.005:601
0.005:590
0.005:601
0.005:599
0.005:561
0.005:532
0.005:527
0.005:537
0.005:514
0.005:516
0.005:497
0.005:500
0.006:520
0.006:560
0.006:619
0.006:641
0.006:629
0.006:607
0.006:600
0.006:569
0.006:549
0.006:547
0.006:579
0.006:600
0.006:568
0.006:522
0.007:492
0.007:491
0.007:470
0.007:472
0.007:452
0.007:447
0.007:465
0.007:484
0.007:537
0.007:561
0.007:544
0.007:530
0.007:546
0.007:531
0.007:522
0.008:503
0.008:522
0.008:529
0.008:488
0.008:443
0.008:423
0.008:423
0.008:399
0.008:387
0.008:362
0.008:348
0.008:372
0.008:408
0.009:408
0.009:482
0.009:515
0.009:510
0.009:486
0.009:476
0.010:456
0.010:445
0.010:428
0.010:444
0.010:456
0.010:420
0.010:373
0.010:345
0.010:342
0.010:327
0.010:319
0.010:312
0.011:318
0.011:349
0.011:383
0.011:444
0.012:471
0.012:468
0.012:448
0.012:435
0.012:399
0.012:385
0.012:375
0.012:394
0.012:416
0.012:387
0.012:341
0.012:319
0.012:310
0.012:292
0.012:283
0.012:274
0.013:278
0.013:303
0.013:330
0.013:411
0.013:448
0.013:443
0.013:430
0.013:421
0.013:403
0.013:393
0.013:387
0.013:407
0.013:430
0.013:412
0.013:373
0.014:346
0.014:315
0.014:293
0.014:263
0.014:233
0.014:222
0.014:257
0.014:257
0.015:295
0.015:379
0.015:422
0.015:426
0.015:410
0.015:386
0.015:370
0.015:371
0.016:354
0.016:359
0.016:379
0.016:360
0.016:333
0.016:320
0.016:316
0.017:312
0.017:298
0.017:303
0.017:310
0.018:340
0.018:356
0.018:422
0.018:461
0.018:467
0.018:460
0.018:447
0.018:438
0.018:428
0.018:407
0.018:408
0.018:430
0.018:413
0.018:380
0.018:372
0.018:356
0.018:346
0.018:323
0.019:316
0.019:320
0.019:337
0.019:352
0.019:416
0.019:464
0.019:476
0.019:476
0.019:466
0.019:460
0.019:450
0.019:456
0.019:462
0.019:485
0.019:462
0.019:406
0.019:378
0.019:361
0.019:365
0.020:351
0.020:362
0.020:370
0.020:370
0.020:394
0.020:408
0.020:464
0.020:515
0.020:527
0.020:520
0.020:500
0.020:484
0.020:468
0.020:446
0.020:438
0.020:475
0.020:465
0.020:414
0.020:376
0.021:345
0.021:349
0.021:333
0.021:352
0.021:369
0.021:396
0.021:424
0.021:475
0.021:510
0.021:514
0.021:516
0.021:499
0.021:494
0.021:488
0.021:480
0.021:464
0.021:487
0.021:471
0.021:415
0.021:392
0.022:390
0.022:394
0.022:372
0.022:386
0.022:390
0.022:408
0.022:434
0.022:487
0.022:537
0.022:548
0.022:531
0.022:504
0.022:501
0.022:488
0.022:487
0.022:480
0.022:498
0.022:490
0.022:442
0.022:407
0.022:398
0.023:410
0.023:390
0.023:401
0.023:401
0.023:403
0.023:419
0.023:445
0.023:503
0.023:554
0.023:557
0.023:536
0.023:510
0.023:496
0.023:478
0.023:468
0.023:455
0.023:482
0.023:482
0.023:458
0.023:434
0.023:431
0.024:441
0.024:415
0.024:419
0.024:404
0.024:409
0.024:431
0.024:488
0.024:548
0.024:568
0.024:557
0.024:532
0.024:512
0.024:485
0.024:492
0.024:498
0.024:538
0.024:545
0.024:515
0.024:490
0.024:470
0.025:459
0.025:426
0.025:435
0.025:433
0.025:450
0.025:473
0.025:505
0.025:550
0.025:554
0.025:530
0.025:508
0.025:506
0.025:489
0.026:497
0.026:500
0.026:537
0.026:540
0.027:489
0.027:446
0.027:421
0.027:421
0.027:402
0.027:402
0.028:412
0.028:401
0.028:400
0.028:429
0.028:476
0.028:539
0.029:561
0.029:562
0.029:561
0.029:573
0.029:552
0.030:543
0.030:533
0.030:559
0.030:562
0.030:519
0.030:480
0.030:457
0.031:463
0.031:434
0.031:445
0.031:435
0.031:440
0.031:460
0.031:494
0.031:550
0.031:560
0.031:535
0.031:497
0.031:492
0.031:459
0.031:442
0.031:437
0.032:461
0.032:456
0.032:389
0.032:319
0.032:284
0.032:283
0.032:272
0.032:312
0.032:340
0.032:377
0.032:433
0.032:488
0.032:587
0.032:638
0.032:648
0.032:609
0.032:582
0.032:543
0.032:527
0.033:513
0.033:524
0.033:527
0.033:491
0.033:454
0.033:431
0.033:421
0.033:421
0.033:406
0.033:411
0.033:403
0.033:409
0.033:441
0.033:472
0.033:537
0.033:566
0.033:554
0.033:537
0.033:536
0.033:512
0.034:501
0.034:484
0.034:475
0.034:477
0.034:442
0.034:400
0.034:387
0.034:380
0.034:362
0.034:361
0.034:362
0.034:367
0.034:398
0.034:427
0.034:483
0.034:515
0.034:511
0.034:498
0.034:493
0.034:477
0.034:463
0.035:431
0.035:430
0.035:470
0.035:461
0.035:440
0.035:430
0.035:414
0.035:383
0.035:358
0.035:351
0.035:346
0.035:373
0.035:408
0.035:495
0.035:535
0.035:530
0.035:505
0.035:485
0.035:465
0.035:457
0.035:465
0.036:495
0.036:525
0.036:501
0.036:439
0.036:396
0.036:396
0.036:365
0.036:358
0.036:358
0.036:385
0.036:407
0.036:438
0.036:459
0.036:532
0.036:571
0.036:573
0.036:570
0.036:567
0.036:543
0.036:513
0.036:490
0.036:475
0.037:484
0.037:448
0.037:398
0.037:379
0.037:372
0.037:382
0.037:374
0.037:366
0.037:349
0.037:348
0.037:368
0.037:461
0.037:520
0.037:521
0.037:510
0.037:485
0.037:455
0.037:425
0.037:406
0.037:421
0.037:460
0.037:443
0.038:390
0.038:356
0.038:349
0.038:351
0.038:333
0.038:351
0.038:378
0.038:424
0.038:454
0.038:521
0.038:579
0.038:626
0.038:655
0.038:680
0.038:700
0.038:718
0.038:761
0.038:813
0.038:893
0.038:932
0.038:929
0.039:929
0.039:963
0.039:990
0.039:989
0.039:989
0.039:988
0.039:988
0.039:987
0.039:986
0.039:985
0.039:983
0.039:982
0.039:982
0.039:982
0.039:983
0.039:983
0.039:984
0.039:985
0.039:985
0.039:987
0.039:989
0.039:944
0.040:828
0.040:714
0.040:570
0.040:448
0.040:308
0.040:221
0.040:174
0.040:200
0.040:275
0.040:292
0.040:283
0.040:275
0.040:275
0.040:275
0.040:297
0.040:322
0.040:360
0.040:341
0.040:296
0.041:273
0.041:268
0.041:279
0.041:262
0.041:281
0.041:286
0.041:307
0.041:338
0.041:397
0.041:454
0.041:472
0.041:464
0.041:431
0.041:407
0.041:378
0.041:375
0.041:365
0.041:394
0.041:379
0.041:379
0.041:318
0.041:281
0.042:266
0.042:273
0.042:257
0.042:288
0.042:294
0.042:307
0.042:320
0.043:363
0.043:428
0.043:451
0.043:423
0.044:396
0.044:419
0.044:410
0.044:406
0.044:385
0.044:411
0.044:408
0.044:354
0.044:330
0.044:321
0.044:344
0.045:335
0.045:331
0.045:316
0.045:330
0.045:359
0.045:392
0.045:450
0.045:482
0.045:487
0.045:480
0.046:488
0.046:461
0.046:434
0.046:409
0.046:437
0.046:450
0.046:417
0.046:376
0.046:340
0.046:340
0.047:316
0.047:308
0.047:292
0.047:308
0.047:345
0.047:377
0.047:431
0.047:460
0.047:468
0.048:478
0.048:509
0.048:491
0.048:487
0.048:483
0.048:505
0.048:505
0.048:500
0.048:457
0.048:419
0.049:411
0.049:420
0.049:394
0.049:386
0.049:350
0.049:381
0.049:450
0.049:513
0.049:566
0.050:569
0.050:563
0.050:554
0.050:547
0.050:513
0.050:504
0.050:491
0.050:505
0.050:507
0.050:448
0.050:407
0.050:388
0.051:383
0.051:352
0.051:372
0.051:370
0.051:376
0.051:399
0.051:420
0.051:484
0.051:537
0.051:568
0.051:597
0.051:618
0.052:572
0.052:544
0.052:520
0.052:509
0.052:473
0.052:437
0.052:456
0.052:419
0.052:382
0.052:370
0.052:409
0.052:414
0.052:414
0.053:437
0.053:469
0.053:538
0.053:554
0.053:549
0.053:539
0.053:522
0.053:475
0.053:465
0.053:477
0.053:477
0.053:527
0.053:572
0.053:557
0.053:523
0.054:496
0.054:481
0.054:471
0.054:471
0.054:459
0.054:450
0.054:480
0.054:495
0.054:565
0.054:621
0.054:640
0.054:653
0.054:654
0.054:615
0.054:601
0.055:613
0.055:639
0.055:661
0.055:633
0.055:579
0.055:549
0.055:534
0.055:494
0.055:457
0.055:445
0.055:440
0.055:466
0.055:497
0.055:576
0.055:635
0.056:659
0.056:649
0.056:630
0.056:582
0.056:540
0.056:517
0.056:514
0.056:549
0.056:546
0.056:514
0.056:507
0.056:505
0.056:517
0.056:514
0.056:510
0.056:488
0.057:494
0.057:507
0.057:571
0.057:609
0.057:601
0.057:581
0.057:611
0.057:583
0.057:531
0.057:531
0.057:533
0.057:550
0.057:592
0.057:587
0.057:540
0.057:512
0.057:486
0.058:468
0.058:424
0.058:400
0.058:413
0.058:470
0.058:504
0.058:551
0.058:578
0.058:595
0.058:613
0.058:626
0.058:628
0.058:607
0.058:572
0.058:540
0.058:539
0.058:514
0.059:471
0.059:455
0.059:426
0.060:422
0.060:372
0.060:349
0.060:351
0.060:387
0.060:420
0.060:478
0.061:522
0.061:508
0.061:484
0.061:477
0.061:461
0.061:452
0.061:446
0.062:456
0.062:482
0.062:463
0.062:419
0.062:380
0.063:345
0.063:342
0.063:324
0.063:329
0.063:312
0.063:307
0.063:311
0.063:362
0.063:411
0.063:427
0.063:423
0.063:407
0.063:408
0.064:408
0.064:393
0.064:381
0.064:375
0.064:419
0.064:396
0.064:342
0.064:324
0.064:328
0.064:334
0.064:290
0.064:284
0.064:268
0.064:278
0.065:295
0.065:349
0.065:395
0.065:415
0.065:408
0.065:404
0.065:406
0.065:374
0.065:359
0.065:371
0.065:425
0.065:416
0.065:352
0.065:322
0.065:313
0.066:325
0.066:302
0.066:296
0.066:275
0.066:280
0.066:295
0.066:331
0.066:385
0.066:401
0.066:395
0.066:389
0.066:396
0.066:400
0.066:408
0.066:400
0.066:417
0.066:415
0.066:375
0.066:335
0.066:314
0.066:305
0.067:264
0.067:259
0.067:253
0.067:277
0.067:340
0.067:413
0.067:477
0.067:482
0.067:473
0.067:442
0.067:442
0.067:417
0.067:400
0.067:411
0.067:429
0.067:471
0.067:475
0.067:428
0.067:384
0.067:338
0.068:311
0.068:262
0.068:267
0.068:284
0.068:328
0.068:377
0.068:412
0.068:478
0.068:517
0.068:523
0.068:506
0.068:494
0.068:452
0.068:428
0.068:409
0.068:436
0.068:448
0.068:417
0.068:411
0.068:415
0.068:424
0.069:397
0.069:404
0.069:377
0.069:380
0.069:424
0.069:481
0.069:526
0.069:520
0.069:503
0.069:470
0.069:461
0.069:450
0.069:443
0.069:448
0.069:519
0.069:558
0.069:525
0.069:490
0.069:476
0.070:490
0.070:453
0.070:441
0.070:412
0.070:405
0.070:406
0.070:410
0.070:454
0.070:488
0.070:513
0.070:513
0.070:523
0.070:516
0.070:455
0.070:444
0.070:457
0.070:503
0.070:535
0.070:560
0.070:571
0.070:582
0.071:590
0.071:570
0.071:563
0.071:548
0.071:560
0.071:585
0.071:607
0.071:666
0.071:687
0.071:689
0.071:675
0.071:655
0.071:613
0.071:604
0.071:607
0.071:638
0.071:652
0.071:617
0.071:576
0.071:553
0.071:549
0.072:520
0.072:493
0.072:472
0.072:479
0.072:497
0.072:507
0.072:559
0.072:577
0.072:554
0.072:549
0.072:576
0.072:578
0.072:573
0.072:560
0.072:561
0.072:552
0.072:502
0.072:455
0.072:432
0.072:422
0.073:416
0.073:424
0.073:420
0.073:422
0.073:441
0.073:457
0.073:527
0.073:559
0.073:559
0.073:551
0.073:539
0.073:543
0.073:513
0.073:499
0.073:497
0.073:509
0.073:529
0.073:498
0.073:454
0.074:428
0.074:415
0.074:408
0.074:395
0.074:366
0.074:350
0.074:371
0.074:390
0.074:460
0.074:495
0.074:488
0.074:477
0.074:470
0.074:481
0.074:503
0.074:525
0.074:558
0.074:589
0.074:552
0.074:488
0.074:446
0.075:410
0.075:413
0.075:418
0.075:416
0.075:405
0.075:422
0.075:443
0.075:510
0.075:552
0.075:564
0.075:562
0.075:545
0.075:511
0.075:509
0.075:517
0.075:519
0.076:549
0.076:532
0.076:478
0.077:457
0.077:434
0.077:422
0.077:379
0.077:353
0.077:352
0.077:406
0.077:448
0.077:514
0.078:514
0.078:571
0.078:588
0.078:582
0.079:563
0.079:564
0.079:569
0.079:579
0.079:589
0.079:614
0.079:604
0.079:571
0.079:540
0.079:511
0.079:505
0.079:460
0.080:429
0.080:418
0.080:447
0.080:467
0.080:524
0.080:568
0.080:567
0.080:562
0.080:550
0.080:546
0.080:534
0.080:540
0.080:557
0.080:602
0.080:585
0.081:517
0.081:490
0.081:473
0.081:475
0.081:445
0.081:439
0.081:427
0.081:444
0.081:459
0.081:509
0.081:559
0.081:573
0.081:569
0.081:551
0.081:540
0.081:529
0.081:536
0.081:533
0.081:535
0.081:504
0.081:459
0.082:435
0.082:421
0.082:408
0.082:365
0.082:363
0.082:355
0.082:386
0.082:421
0.082:421
0.082:470
0.082:516
0.082:533
0.082:526
0.082:516
0.082:515
0.082:488
0.082:477
0.082:473
0.082:513
0.082:524
0.083:483
0.083:456
0.083:439
0.083:427
0.083:379
0.083:381
0.083:379
0.083:414
0.083:461
0.083:505
0.083:553
0.083:589
0.083:600
0.083:573
0.083:553
0.083:509
0.083:497
0.083:494
0.083:523
0.083:515
0.083:460
0.084:423
0.084:406
0.084:397
0.084:353
0.084:346
0.084:331
0.084:342
0.084:381
0.084:457
0.084:548
0.084:584
0.084:597
0.084:592
0.084:592
0.084:570
0.084:561
0.084:545
0.084:574
0.084:568
0.084:535
0.084:500
0.085:472
0.085:435
0.085:359
0.085:351
0.085:339
0.085:353
0.085:353
0.085:392
0.085:436
0.085:513
0.085:560
0.085:568
0.085:562
0.085:563
0.085:521
0.085:507
0.085:512
0.085:548
0.085:570
0.085:539
0.085:512
0.086:495
0.086:483
0.086:434
0.086:415
0.086:395
0.086:415
0.086:452
0.086:492
0.086:558
0.086:587
0.086:593
0.086:574
0.086:576
0.086:546
0.086:533
0.086:521
0.086:552
0.086:561
0.086:520
0.086:479
0.086:453
0.087:443
0.087:410
0.087:400
0.087:390
0.087:392
0.087:420
0.087:462
0.087:546
0.087:589
0.087:607
0.087:606
0.087:605
0.087:597
0.087:636
0.087:657
0.087:692
0.087:718
0.087:708
0.087:685
0.087:686
0.087:729
0.088:779
0.088:862
0.088:942
0.088:942
0.088:990
0.088:988
0.088:987
0.088:986
0.088:985
0.088:984
0.088:984
0.088:983
0.088:982
0.088:982
0.088:981
0.088:981
0.088:981
0.088:981
0.088:982
0.088:982
0.088:983
0.089:984
0.089:985
0.089:987
0.089:989
0.089:990
0.089:911
0.089:871
0.089:766
0.089:619
0.089:476
0.089:383
0.089:315
0.089:292
0.089:301
0.089:339
0.089:389
0.089:381
0.089:349
0.090:338
0.090:337
0.090:334
0.090:327
0.090:314
0.090:323
0.090:361
0.090:390
0.090:464
0.090:508
0.090:512
0.090:490
0.090:468
0.090:441
0.090:430
0.090:426
0.090:439
0.090:480
0.090:463
0.090:414
0.090:388
0.091:377
0.091:356
0.091:355
0.091:355
0.091:354
0.091:351
0.091:380
0.091:404
0.091:463
0.091:500
0.091:508
0.091:503
0.091:500
0.091:500
0.091:496
0.091:474
0.091:470
0.091:503
0.091:472
0.091:407
0.091:332
0.092:290
0.092:310
0.092:318
0.092:326
0.092:339
0.092:367
0.092:375
0.092:437
0.092:481
0.093:480
0.093:471
0.093:472
0.093:470
0.093:455
0.094:454
0.094:476
0.094:516
0.094:497
0.094:449
0.094:428
0.095:417
0.095:414
0.095:392
0.095:374
0.095:352
0.095:389
0.095:426
0.095:494
0.095:523
0.095:518
0.095:489
0.095:454
0.095:445
0.095:446
0.096:454
0.096:457
0.096:491
0.096:484
0.096:441
0.096:419
0.096:388
0.096:371
0.096:371
0.096:356
0.096:384
0.096:396
0.096:414
0.096:433
0.097:482
0.097:493
0.097:488
0.097:483
0.097:503
0.097:539
0.097:562
0.097:533
0.097:486
0.097:506
0.097:495
0.097:444
0.097:442
0.097:440
0.097:445
0.098:406
0.098:407
0.098:399
0.098:389
0.098:398
0.098:454
0.098:516
0.098:543
0.098:551
0.098:553
0.098:550
0.098:526
0.098:523
0.098:534
0.098:576
0.099:560
0.099:481
0.099:418
0.099:377
0.099:368
0.099:339
0.099:356
0.099:377
0.099:412
0.099:468
0.099:535
0.099:578
0.099:576
0.099:561
0.099:534
0.100:514
0.100:491
0.100:497
0.100:510
0.100:557
0.100:571
0.100:509
0.100:470
0.100:474
0.100:474
0.100:488
0.100:441
0.100:423
0.100:414
0.100:427
0.101:441
0.101:481
0.101:545
0.101:575
0.101:573
0.101:566
0.101:574
0.101:556
0.101:554
0.101:560
0.101:595
0.101:588
0.101:535
0.101:504
0.101:486
0.102:492
0.102:480
0.102:502
0.102:473
0.102:444
0.102:439
0.102:474
0.102:540
0.102:564
0.102:536
0.102:512
0.102:532
0.102:524
0.102:529
0.102:521
0.103:570
0.103:592
0.103:569
0.103:553
0.103:531
0.103:517
0.103:474
0.103:471
0.103:462
0.103:458
0.103:455
0.103:472
0.103:533
0.103:601
0.104:642
0.104:660
0.104:655
0.104:614
0.104:597
0.104:583
0.104:616
0.104:609
0.104:548
0.104:509
0.104:509
0.104:484
0.104:468
0.104:450
0.104:462
0.105:452
0.105:468
0.105:503
0.105:539
0.105:616
0.105:643
0.105:639
0.105:619
0.105:611
0.105:578
0.105:548
0.105:520
0.105:523
0.105:537
0.105:528
0.106:522
0.106:511
0.106:504
0.106:476
0.106:470
0.106:475
0.106:475
0.106:472
0.106:450
0.106:467
0.106:472
0.106:461
0.106:443
0.106:439
0.106:420
0.106:422
0.106:433
0.106:471
0.107:488
0.107:450
0.107:396
0.107:371
0.107:357
0.107:328
0.107:314
0.107:290
0.107:293
0.107:326
0.107:361
0.107:431
0.107:464
0.107:448
0.107:431
0.107:441
0.107:444
0.107:454
0.107:444
0.107:446
0.107:459
0.108:418
0.108:418
0.108:351
0.108:311
0.108:288
0.108:269
0.108:249
0.108:259
0.108:276
0.108:303
0.108:320
0.108:384
0.108:397
0.108:380
0.108:378
0.108:378
0.108:383
0.108:406
0.108:395
0.108:392
0.109:439
0.109:432
0.109:387
0.109:362
0.109:337
0.109:302
0.109:286
0.110:301
0.110:313
0.110:323
0.110:309
0.110:357
0.110:408
0.110:424
0.111:424
0.111:429
0.111:431
0.111:428
0.111:408
0.111:402
0.111:420
0.111:405
0.111:366
0.111:356
0.111:349
0.111:347
0.112:321
0.112:316
0.112:320
0.112:342
0.112:360
0.112:426
0.112:459
0.112:472
0.112:485
0.112:469
0.112:437
0.112:399
0.112:378
0.112:372
0.112:401
0.112:401
0.112:371
0.112:325
0.112:313
0.112:312
0.112:326
0.113:316
0.113:310
0.113:295
0.113:292
0.113:308
0.113:388
0.113:440
0.113:437
0.113:423
0.113:402
0.113:404
0.113:403
0.113:398
0.113:391
0.113:416
0.113:392
0.113:343
0.113:329
0.113:326
0.113:326
0.113:286
0.114:279
0.114:271
0.114:286
0.114:313
0.114:386
0.114:434
0.114:438
0.114:459
0.114:459
0.114:460
0.114:435
0.114:409
0.114:407
0.114:455
0.114:438
0.114:354
0.114:310
0.114:300
0.114:327
0.114:331
0.114:360
0.115:364
0.115:378
0.115:391
0.115:429
0.115:456
0.115:440
0.115:407
0.115:379
0.115:368
0.115:344
0.115:348
0.115:357
0.115:357
0.115:401
0.115:397
0.115:362
0.115:363
0.115:370
0.115:359
0.115:327
0.116:322
0.116:307
0.116:326
0.116:350
0.116:395
0.116:455
0.116:487
0.116:484
0.116:467
0.116:453
0.116:435
0.116:435
0.116:445
0.116:505
0.116:495
0.116:422
0.116:373
0.116:334
0.116:318
0.116:281
0.116:296
0.117:319
0.117:365
0.117:398
0.117:439
0.117:490
0.117:506
0.117:500
0.117:472
0.117:447
0.117:409
0.117:405
0.117:414
0.117:465
0.117:463
0.117:411
0.117:387
0.117:381
0.117:390
0.117:372
0.117:395
0.117:387
0.118:380
0.118:421
0.118:474
0.118:535
0.118:560
0.118:548
0.118:518
0.118:498
0.118:463
0.118:440
0.118:440
0.118:440
0.118:483
0.118:505
0.118:477
0.118:449
0.118:414
0.118:382
0.118:334
0.118:326
0.118:315
0.119:332
0.119:367
0.119:417
0.119:491
0.119:527
0.119:530
0.119:521
0.119:513
0.119:480
0.119:479
0.119:491
0.119:530
0.119:535
0.119:481
0.119:446
0.119:420
0.119:394
0.119:365
0.119:361
0.119:334
0.119:342
0.120:371
0.120:401
0.120:474
0.120:511
0.120:504
0.120:495
0.120:514
0.120:501
0.120:488
0.120:466
0.120:495
0.120:528
0.120:501
0.120:468
0.120:436
0.120:404
0.120:365
0.120:360
0.120:347
0.120:349
0.120:373
0.121:412
0.121:484
0.121:518
0.121:520
0.121:504
0.121:504
0.121:489
0.121:489
0.121:494
0.121:505
0.121:530
0.121:552
0.121:521
0.121:479
0.121:451
0.121:443
0.121:421
0.121:420
0.121:422
0.121:441
0.121:479
0.122:509
0.122:568
0.122:587
0.122:571
0.122:557
0.122:568
0.122:556
0.122:545
0.122:516
0.122:516
0.122:544
0.122:522
0.122:491
0.122:482
0.122:471
0.122:443
0.122:427
0.122:420
0.122:430
0.122:446
0.123:447
0.123:506
0.123:532
0.123:519
0.123:514
0.123:513
0.123:509
0.123:521
0.123:523
0.123:530
0.123:541
0.123:498
0.123:440
0.123:420
0.123:419
0.123:404
0.123:399
0.123:407
0.123:412
0.123:432
0.123:448
0.124:517
0.124:552
0.124:556
0.124:562
0.124:559
0.124:559
0.124:539
0.124:534
0.124:524
0.124:529
0.124:565
0.124:541
0.125:473
0.125:454
0.125:451
0.125:446
0.125:431
0.125:448
0.125:453
0.125:474
0.125:496
0.125:549
0.125:581
0.125:587
0.125:589
0.126:578
0.126:556
0.126:548
0.126:549
0.126:544
0.126:557
0.126:525
0.126:457
0.127:420
0.127:410
0.127:416
0.127:408
0.127:425
0.127:424
0.128:437
0.128:461
0.128:524
0.128:567
0.128:565
0.128:548
0.128:523
0.128:507
0.128:488
0.128:472
0.128:460
0.128:500
0.128:512
0.128:496
0.129:482
0.129:471
0.129:449
0.129:406
0.129:398
0.129:386
0.129:398
0.129:414
0.129:456
0.129:456
0.129:376
0.129:347
0.129:347
0.129:355
0.129:364
0.129:389
0.129:406
0.129:414
0.129:459
0.129:455
0.130:431
0.130:433
0.130:429
0.130:415
0.130:340
0.130:330
0.130:325
0.130:352
0.130:377
0.130:422
0.130:455
0.130:457
0.130:460
0.130:442
0.130:426
0.130:414
0.130:421
0.130:432
0.130:473
0.130:475
0.131:433
0.131:403
0.131:386
0.131:360
0.131:308
0.131:326
0.131:335
0.131:343
0.131:343
0.131:397
0.131:474
0.131:507
0.131:506
0.131:492
0.131:487
0.131:469
0.131:467
0.131:467
0.131:483
0.131:474
0.131:447
0.132:447
0.132:434
0.132:424
0.132:368
0.132:350
0.132:328
0.132:365
0.132:405
0.132:433
0.132:473
0.132:495
0.132:495
0.132:490
0.132:474
0.132:476
0.132:455
0.132:424
0.132:410
0.132:452
0.132:475
0.132:438
0.133:392
0.133:383
0.133:409
0.133:378
0.133:373
0.133:354
0.133:355
0.133:371
0.133:420
0.133:493
0.133:509
0.133:499
0.133:487
0.133:501
0.133:498
0.133:496
0.133:480
0.133:476
0.133:434
0.133:373
0.133:322
0.134:289
0.134:269
0.134:214
0.134:205
0.134:209
0.134:246
0.134:306
0.134:399
0.134:502
0.134:552
0.134:569
0.134:552
0.134:551
0.134:550
0.134:583
0.134:621
0.134:681
0.134:713
0.134:728
0.134:764
0.134:809
0.135:865
0.135:896
0.135:975
0.135:989
0.135:989
0.135:988
0.135:987
0.135:985
0.135:985
0.135:984
0.135:984
0.135:983
0.135:983
0.135:983
0.135:983
0.135:982
0.135:983
0.135:982
0.135:984
0.135:986
0.135:987
0.136:988
0.136:990
0.136:853
0.136:702
0.136:588
0.136:466
0.136:345
0.136:290
0.136:229
0.136:161
0.136:129
0.136:137
0.136:141
0.136:170
0.136:189
0.136:222
0.136:240
0.136:209
0.136:188
0.136:177
0.136:167
0.136:142
0.137:141
0.137:144
0.137:145
0.137:155
0.137:164
0.137:240
0.137:292
0.137:313
0.137:315
0.137:315
0.137:300
0.137:290
0.137:273
0.137:276
0.137:283
0.137:247
0.137:206
0.137:185
0.137:174
0.137:160
0.137:165
0.138:150
0.138:151
0.138:191
0.138:221
0.138:221
0.138:283
0.138:322
0.138:326
0.138:321
0.138:321
0.138:311
0.138:309
0.138:302
0.138:319
0.138:353
0.138:329
0.138:277
0.138:253
0.138:247
0.138:224
0.138:217
0.138:249
0.139:282
0.139:300
0.139:325
0.139:390
0.139:409
0.139:399
0.139:395
0.139:407
0.139:395
0.139:391
0.139:386
0.139:388
0.139:430
0.139:416
0.139:359
0.139:341
0.139:325
0.139:322
0.139:309
0.139:323
0.139:324
0.140:340
0.140:355
0.140:421
0.140:479
0.140:485
0.140:483
0.140:484
0.140:468
0.140:442
0.140:431
0.140:454
0.140:517
0.140:514
0.140:452
0.140:409
0.140:389
0.140:394
0.140:376
0.141:385
0.141:389
0.141:414
0.141:414
0.141:442
0.141:500
0.141:544
0.141:560
0.141:566
0.141:546
0.141:534
0.141:515
0.141:487
0.141:473
0.141:509
0.141:502
0.142:443
0.142:405
0.142:379
0.142:397
0.142:370
0.142:372
0.142:375
0.142:413
0.142:457
0.143:527
0.143:569
0.143:575
0.143:550
0.143:533
0.143:532
0.143:520
0.143:517
0.144:503
0.144:546
0.144:546
0.144:483
0.144:454
0.144:442
0.144:451
0.144:426
0.145:415
0.145:388
0.145:399
0.145:420
0.145:468
0.145:517
0.145:533
0.146:524
0.146:512
0.146:526
0.146:528
0.146:517
0.146:503
0.147:532
0.147:529
0.147:486
0.147:448
0.147:425
0.147:426
0.147:396
0.147:401
0.148:393
0.148:393
0.148:421
0.148:455
0.148:514
0.148:576
0.148:590
0.148:566
0.149:541
0.149:539
0.149:516
0.149:493
0.149:478
0.149:516
0.149:508
0.149:459
0.149:442
0.150:460
0.150:466
0.150:427
0.150:436
0.150:427
0.150:439
0.150:453
0.150:499
0.150:593
0.151:634
0.151:638
0.151:633
0.151:637
0.151:600
0.151:571
0.151:551
0.151:573
0.151:582
0.151:529
0.151:484
0.151:473
0.151:480
0.151:457
0.152:465
0.152:463
0.152:495
0.152:525
0.152:570
0.152:626
0.152:634
0.152:632
0.152:627
0.152:617
0.152:588
0.152:568
0.152:543
0.152:561
0.152:555
0.152:508
0.152:469
0.152:454
0.153:453
0.153:421
0.153:416
0.153:416
0.153:414
0.153:436
0.153:471
0.153:497
0.153:552
0.153:582
0.153:579
0.153:548
0.153:529
0.153:499
0.153:491
0.153:489
0.153:521
0.153:524
0.153:485
0.153:438
0.154:399
0.154:375
0.154:342
0.154:354
0.154:360
0.154:385
0.154:424
0.154:448
0.154:510
0.154:543
0.154:547
0.154:516
0.154:481
0.154:450
0.154:445
0.154:423
0.154:429
0.154:439
0.154:396
0.155:349
0.155:339
0.155:353
0.155:345
0.155:353
0.155:344
0.155:351
0.155:389
0.155:410
0.155:462
0.155:490
0.155:485
0.155:462
0.155:448
0.156:415
0.156:404
0.156:395
0.156:413
0.156:422
0.156:378
0.156:327
0.156:309
0.156:299
0.157:277
0.157:277
0.157:274
0.157:285
0.157:309
0.157:344
0.157:366
0.157:448
0.157:488
0.157:477
0.157:443
0.157:418
0.157:380
0.157:362
0.158:350
0.158:365
0.158:387
0.158:350
0.158:305
0.158:294
0.158:303
0.158:301
0.158:291
0.159:276
0.159:274
0.159:311
0.159:350
0.159:427
0.159:447
0.160:431
0.160:431
0.160:428
0.160:407
0.160:413
0.160:410
0.160:422
0.161:448
0.161:441
0.161:415
0.161:412
0.161:397
0.161:386
0.161:377
0.161:367
0.162:346
0.162:361
0.162:381
0.162:435
0.162:468
0.162:456
0.163:440
0.163:436
0.163:436
0.163:444
0.163:452
0.163:462
0.164:493
0.164:471
0.165:422
0.165:416
0.165:407
0.165:407
0.165:399
0.166:371
0.166:353
0.166:355
0.167:418
0.167:452
0.167:524
0.167:576
0.167:555
0.167:519
0.167:482
0.167:459
0.167:424
0.167:399
0.168:383
0.168:418
0.168:438
0.168:426
0.168:424
0.169:414
0.169:415
0.169:392
0.170:379
0.170:363
0.170:361
0.170:369
0.170:401
0.170:439
0.170:459
0.171:465
0.171:461
0.171:450
0.171:421
0.171:410
0.171:413
0.171:456
0.172:465
0.172:424
0.172:391
0.172:392
0.172:431
0.172:420
0.172:449
0.172:489
0.172:517
0.172:532
0.173:603
0.173:680
0.173:674
0.173:652
0.173:618
0.173:588
0.173:559
0.173:525
0.173:497
0.173:530
0.173:524
0.173:457
0.173:415
0.173:415
0.173:393
0.173:380
0.173:351
0.174:365
0.174:374
0.174:390
0.174:387
0.174:437
0.174:508
0.174:555
0.174:567
0.174:546
0.174:531
0.174:505
0.174:495
0.174:486
0.174:498
0.174:473
0.174:424
0.174:396
0.174:372
0.174:375
0.174:371
0.175:417
0.175:413
0.175:414
0.175:427
0.175:473
0.175:537
0.175:21
0.175:373
0.175:388
0.175:389
0.175:360
0.175:322
0.175:303
0.175:305
0.175:289
0.175:284
0.175:284
0.175:254
0.175:257
0.175:288
0.176:332
0.176:412
0.176:446
0.176:445
0.176:433
0.177:427
0.177:404
0.177:405
0.177:404
0.177:420
0.177:427
0.178:385
0.178:339
0.178:321
0.178:314
0.178:292
0.178:283
0.178:273
0.179:282
0.179:314
0.179:342
0.179:409
0.179:448
0.179:461
0.179:455
0.179:455
0.180:438
0.180:434
0.180:423
0.180:423
0.180:435
0.180:404
0.180:363
0.180:358
0.180:353
0.180:340
0.180:332
0.181:321
0.181:320
0.181:359
0.181:402
0.181:477
0.181:511
0.181:509
0.181:495
0.181:489
0.181:475
0.181:472
0.181:465
0.181:473
0.182:496
0.182:473
0.182:429
0.182:415
0.182:408
0.182:397
0.182:397
0.182:370
0.182:364
0.182:377
0.183:410
0.183:429
0.183:489
0.183:535
0.183:546
0.183:539
0.183:541
0.183:529
0.183:524
0.183:526
0.184:527
0.184:539
0.184:506
0.184:449
0.184:421
0.184:401
0.184:389
0.184:364
0.184:355
0.184:357
0.184:392
0.185:424
0.185:491
0.185:543
0.185:553
0.185:545
0.185:529
0.185:522
0.185:509
0.185:498
0.185:500
0.185:532
0.185:513
0.185:469
0.185:446
0.185:432
0.185:433
0.186:410
0.186:418
0.186:425
0.186:446
0.186:465
0.186:526
0.186:571
0.186:574
0.186:568
0.186:560
0.186:555
0.186:542
0.186:543
0.186:544
0.186:571
0.186:553
0.187:501
0.187:476
0.187:463
0.187:463
0.187:466
0.187:436
0.187:439
0.187:443
0.187:472
0.187:494
0.187:552
0.187:610
0.187:634
0.187:626
0.187:605
0.187:591
0.187:574
0.188:570
0.188:570
0.188:606
0.188:603
0.188:563
0.188:528
0.188:513
0.188:517
0.188:491
0.188:498
0.192:503
0.193:524
0.193:551
0.193:609
0.193:666
0.193:677
0.208:663
0.208:638
0.212:623
0.212:596
0.212:578
0.212:562
0.212:590
0.212:586
0.212:541
0.213:511
0.213:508
0.217:519
0.217:493
0.217:491
0.217:480
0.217:500
0.217:529
0.217:572
0.217:622
0.217:643
0.217:632
0.221:612
0.221:612
0.221:598
0.221:595
0.221:580
0.221:603
0.221:595
0.221:549
0.221:504
0.237:504
0.241:480
0.241:480
0.241:450
0.241:454
0.241:453
0.241:475
0.241:504
0.241:540
0.241:598
0.246:626
0.246:619
0.246:599
0.247:595
0.247:572
0.247:563
0.247:548
0.248:566
0.248:559
0.248:514
0.250:476
0.250:451
0.250:451
0.250:422
0.250:415
0.250:401
0.250:397
0.250:414
0.250:450
0.253:513
0.269:540
0.269:530
0.269:510
0.270:511
0.270:496
0.270:491
0.270:472
0.274:494
0.274:494
0.274:450
0.274:408
0.274:383
0.274:376
0.274:350
0.274:354
0.274:343
0.275:348
0.278:367
0.278:391
0.278:447
0.278:474
0.279:476
0.279:470
0.279:473
0.279:452
0.279:444
0.282:433
0.282:441
0.282:435
0.282:388
0.298:388
0.298:339
0.298:310
0.299:292
0.299:263
0.299:252
0.303:243
0.303:254
0.303:280
0.303:305
0.303:375
0.303:418
0.303:430
0.303:420
0.303:414
0.304:381
0.307:368
0.307:360
0.307:382
0.307:405
0.307:385
0.307:357
0.307:343
0.307:325
0.308:304
0.310:302
0.311:294
0.311:295
0.311:319
0.311:340
0.327:408
0.327:453
0.327:454
0.332:437
0.332:430
0.332:408
0.332:404
0.332:393
0.332:394
0.332:411
0.332:382
0.332:338
0.332:321
0.335:311
0.336:299
0.336:272
0.336:256
0.336:257
0.336:285
0.336:317
0.336:381
0.336:421
0.340:432
0.340:436
0.340:433
0.340:419
0.340:401
0.340:387
0.340:387
0.340:411
0.356:411
0.356:393
0.360:356
0.360:363
0.360:373
0.360:384
0.360:354
0.361:348
0.361:342
0.361:361
0.361:387
0.361:454
0.364:488
0.364:487
0.364:485
0.364:475
0.364:465
0.364:454
0.364:453
0.364:459
0.364:496
0.369:475
0.369:419
0.369:397
0.369:381
0.369:377
0.369:349
0.369:348
0.369:353
0.369:371
0.389:389
0.389:450
0.389:504
0.389:523
0.389:515
0.389:498
0.389:488
0.390:475
0.393:476
0.394:479
0.394:506
0.394:495
0.394:443
0.394:403
0.394:389
0.394:387
0.394:358
0.394:361
0.397:354
0.397:369
0.397:396
0.397:453
0.397:504
0.397:523
0.397:524
0.397:506
0.397:501
0.397:482
0.400:480
0.400:478
0.417:478
0.417:512
0.417:500
0.417:449
0.417:422
0.417:406
0.417:407
0.417:365
0.421:365
0.421:369
0.421:393
0.422:422
0.422:481
0.422:536
0.422:551
0.422:539
0.422:530
0.426:529
0.427:503
0.427:496
0.427:497
0.427:523
0.427:504
0.427:451
0.427:426
0.427:414
0.428:411
0.429:382
0.429:382
0.430:383
0.446:397
0.446:419
0.446:459
0.446:510
0.450:542
0.450:543
0.450:524
0.450:526
0.450:513
0.450:507
0.450:496
0.450:516
0.450:505
0.450:469
0.455:438
0.455:426
0.455:418
0.455:386
0.455:389
0.455:380
0.455:388
0.455:410
0.455:454
0.459:516
0.459:548
0.459:557
0.459:549
0.460:544
0.460:521
0.460:512
0.474:512
0.474:501
0.474:521
0.479:520
0.479:480
0.479:425
0.479:397
0.479:396
0.479:369
0.479:384
0.479:385
0.480:410
0.480:439
0.483:470
0.483:528
0.483:541
0.483:530
0.483:521
0.483:525
0.483:490
0.483:482
0.483:482
0.483:502
0.487:496
0.487:456
0.487:424
0.487:405
0.487:408
0.487:387
0.487:389
0.508:390
0.508:400
0.508:426
0.508:463
0.508:524
0.508:550
0.508:541
0.508:519
0.508:518
0.508:502
0.511:500
0.511:486
0.511:498
0.511:501
0.511:459
0.512:416
0.512:397
0.512:399
0.512:385
0.516:388
0.516:379
0.516:383
0.516:405
0.516:437
0.516:512
0.516:547
0.516:547
0.516:538
0.516:532
0.520:512
0.536:512
0.536:502
0.536:487
0.537:493
0.537:500
0.537:465
0.537:422
0.537:399
0.537:389
0.541:379
0.541:379
0.541:373
0.541:375
0.541:398
0.541:415
0.541:494
0.541:543
0.541:551
0.544:540
0.544:533
0.544:508
0.544:499
0.544:492
0.545:502
0.545:513
0.545:480
0.545:439
0.545:421
0.548:415
0.548:413
0.564:404
0.564:397
0.564:403
0.564:428
0.564:451
0.564:513
0.569:542
0.569:542
0.569:539
0.569:534
0.569:520
0.569:526
0.569:526
0.569:528
0.569:548
0.573:517
0.573:467
0.573:443
0.573:429
0.573:423
0.573:398
0.573:383
0.573:375
0.573:396
0.573:433
0.578:512
0.578:565
0.578:579
0.578:582
0.578:569
0.594:569
0.594:557
0.594:545
0.594:538
0.594:538
0.598:557
0.598:537
0.598:489
0.598:461
0.598:446
0.598:448
0.598:423
0.599:425
0.599:422
0.602:440
0.602:461
0.602:522
0.602:577
0.602:601
0.602:598
0.602:583
0.602:574
0.603:556
0.603:546
0.606:546
0.606:580
0.606:565
0.606:508
0.606:480
0.606:466
0.622:457
0.622:420
0.626:411
0.627:402
0.627:414
0.627:438
0.627:501
0.627:559
0.627:574
0.627:567
0.628:556
0.630:563
0.630:546
0.630:520
0.630:500
0.630:520
0.631:506
0.631:452
0.631:419
0.631:398
0.631:398
0.635:368
0.635:371
0.636:371
0.636:396
0.636:424
0.636:476
0.636:527
0.636:545
0.636:534
0.650:534
0.655:517
0.655:515
0.655:497
0.655:492
0.655:489
0.655:518
0.655:501
0.655:451
0.655:420
0.659:400
0.659:402
0.659:384
0.660:386
0.660:380
0.660:399
0.660:425
0.660:470
0.660:530
0.660:549
0.663:544
0.663:521
0.663:509
0.663:477
0.663:457
0.663:445
0.663:471
0.663:474
0.663:445
0.667:430
0.684:428
0.684:431
0.684:366
0.684:348
0.684:359
0.684:378
0.684:403
0.688:441
0.688:499
0.688:526
0.688:529
0.688:521
0.688:519
0.688:490
0.688:487
0.688:483
0.688:510
0.691:509
0.692:463
0.692:424
0.692:402
0.692:394
0.692:365
0.692:368
0.692:361
0.692:388
0.695:418
0.695:432
0.695:485
0.695:528
0.712:528
0.712:534
0.712:508
0.712:508
0.712:492
0.712:495
0.717:490
0.717:523
0.717:534
0.717:491
0.717:441
0.717:409
0.717:427
0.717:407
0.717:398
0.717:377
0.720:374
0.720:383
0.720:422
0.720:500
0.720:532
0.720:529
0.720:510
0.721:508
0.721:493
0.725:491
0.725:469
0.725:497
0.725:507
0.725:471
0.740:434
0.740:410
0.740:396
0.745:357
0.745:374
0.745:362
0.745:345
0.745:361
0.745:412
0.746:490
0.746:532
0.746:541
0.746:540
0.748:554
0.749:552
0.749:570
0.749:577
0.749:613
0.749:649
0.749:649
0.749:635
0.749:653
0.753:684
0.753:707
0.753:738
0.753:771
0.753:835
0.753:936
0.753:990
0.753:988
0.769:988
0.769:987
0.774:986
0.774:986
0.774:986
0.774:985
0.774:984
0.774:984
0.774:983
0.774:983
0.774:983
0.775:984
0.777:985
0.778:986
0.778:987
0.778:988
0.778:989
0.778:990
0.778:923
0.778:845
0.778:821
0.782:768
0.782:657
0.782:520
0.782:412
0.782:330
0.782:272
0.782:245
0.782:261
0.782:297
0.802:286
0.802:250
0.802:243
0.802:242
0.802:239
0.802:227
0.802:219
0.802:219
0.807:248
0.807:280
0.807:352
0.807:397
0.807:407
0.807:414
0.807:419
0.807:424
0.807:424
0.807:424
0.810:428
0.811:450
0.811:428
0.811:382
0.811:358
0.811:342
0.811:333
0.811:299
0.812:297
0.815:300
0.815:332
0.815:348
0.831:348
0.831:402
0.831:446
0.831:437
0.831:422
0.831:412
0.831:417
0.831:406
0.835:399
0.835:407
0.835:435
0.835:417
0.835:358
0.835:329
0.835:315
0.835:320
0.835:295
0.839:304
0.839:313
0.839:334
0.839:359
0.839:417
0.839:455
0.839:473
0.839:479
0.839:470
0.839:463
0.842:449
0.842:434
0.842:417
0.859:461
0.859:461
0.860:423
0.860:394
0.864:372
0.864:371
0.864:341
0.864:345
0.864:346
0.864:371
0.864:393
0.864:445
0.865:503
0.865:520
0.868:516
0.868:497
0.868:486
0.868:464
0.868:465
0.868:455
0.868:480
0.868:473
0.868:434
0.872:401
0.872:377
0.872:372
0.872:350
0.872:372
0.872:389
0.872:413
0.888:413
0.888:436
0.888:499
0.892:553
0.892:562
0.892:549
0.892:531
0.892:518
0.892:499
0.892:484
0.892:471
0.892:476
0.892:440
0.897:387
0.897:367
0.897:363
0.897:373
0.897:370
0.897:392
0.897:409
0.897:430
0.897:450
0.897:503
0.900:560
0.900:579
0.901:565
0.901:545
0.901:538
0.901:517
0.901:501
0.920:491
0.920:507
0.920:474
0.920:433
0.920:407
0.920:398
0.920:406
0.920:413
0.920:453
0.922:470
0.926:478
0.926:492
0.926:548
0.926:597
0.926:608
0.926:591
0.926:559
0.926:545
0.926:524
0.929:509
0.929:501
0.929:514
0.929:493
0.929:458
0.929:435
0.929:428
0.929:446
0.929:462
0.929:481
0.933:487
0.949:487
0.949:498
0.949:529
0.950:580
0.950:636
0.950:657
0.950:651
0.950:628
0.950:607
0.954:580
0.954:567
0.954:554
0.954:559
0.954:528
0.954:477
0.954:456
0.954:461
0.954:475
0.958:470
0.958:487
0.958:506
0.958:530
0.958:559
0.958:611
0.958:681
0.958:699
0.958:691
0.958:658
0.962:636
0.962:618
0.978:595
0.978:583
0.978:595
0.978:576
0.978:529
0.978:500
0.982:489
0.982:499
0.982:506
0.982:526
0.982:518
0.982:532
0.982:583
0.982:635
0.982:701
0.987:710
0.987:702
0.987:687
0.987:669
0.987:630
0.987:596
0.987:585
0.987:583
0.987:553
0.987:510
0.991:488
0.991:487
0.991:491
0.991:494
0.991:512
1.006:512
1.007:525
1.007:539
1.007:559
1.007:589
1.011:659
1.011:681
1.011:667
1.012:635
1.012:612
1.012:583
1.012:573
1.012:571
1.012:571
1.015:557
1.015:504
1.015:465
1.015:447
1.015:432
1.015:435
1.016:442
1.016:440
1.016:437
1.016:455
1.018:492
1.018:557
1.019:582
1.019:582
1.019:558
1.019:537
1.035:505
1.035:481
1.039:465
1.039:451
1.039:436
1.039:386
1.039:345
1.039:335
1.039:336
1.039:348
1.039:356
1.043:363
1.043:370
1.044:383
1.044:414
1.044:490
1.044:524
1.044:516
1.044:486
1.044:455
1.044:426
1.047:404
1.047:391
1.047:371
1.047:350
1.047:303
1.047:265
1.047:253
1.047:259
1.049:282
1.063:282
1.069:288
1.069:298
1.069:309
1.069:336
1.069:366
1.069:434
1.069:468
1.069:459
1.069:429
1.072:401
1.073:372
1.073:362
1.073:353
1.073:346
1.073:346
1.073:306
1.073:258
1.073:254
1.073:259
1.076:289
1.076:306
1.077:316
1.077:326
1.077:353
1.077:380
1.077:452
1.077:495
1.077:492
1.080:462
1.097:421
1.097:396
1.097:377
1.097:367
1.097:364
1.098:370
1.098:320
1.101:275
1.101:270
1.101:281
1.101:293
1.101:303
1.101:329
1.102:344
1.102:368
1.102:398
1.102:473
1.105:523
1.105:527
1.105:497
1.105:463
1.105:436
1.105:406
1.105:392
1.105:382
1.105:382
1.108:338
1.109:301
1.109:289
1.109:282
1.125:282
1.126:301
1.126:322
1.126:350
1.126:368
1.126:391
1.130:402
1.130:454
1.130:501
1.130:496
1.130:468
1.130:440
1.130:415
1.130:396
1.130:387
1.130:382
1.133:400
1.133:380
1.133:338
1.133:322
1.133:324
1.133:340
1.133:347
1.134:367
1.134:382
1.138:401
1.138:429
1.138:496
1.138:555
1.138:571
1.154:556
1.154:517
1.154:491
1.159:455
1.159:430
1.159:413
1.159:416
1.159:378
1.159:335
1.159:323
1.159:334
1.160:355
1.162:367
1.162:387
1.162:399
1.162:414
1.162:438
1.162:493
1.162:550
1.163:558
1.163:548
1.163:518
1.167:483
1.167:454
1.167:443
1.167:438
1.167:441
1.167:417
1.167:376
1.167:362
1.182:362
1.182:362
1.187:371
1.187:380
1.187:400
1.187:413
1.187:433
1.187:458
1.187:508
1.187:571
1.188:589
1.188:570
1.191:534
1.191:510
1.191:487
1.192:473
1.192:451
1.192:450
1.192:412
1.192:366
1.192:341
1.195:340
1.195:358
1.195:379
1.195:404
1.195:421
1.195:440
1.195:465
1.195:505
1.195:570
1.216:591
1.216:581
1.216:532
1.216:509
1.216:475
1.216:463
1.216:447
1.216:445
1.219:428
1.219:380
1.219:356
1.219:355
1.219:365
1.219:375
1.219:389
1.219:398
1.220:415
1.220:448
1.224:485
1.224:560
1.224:588
1.224:583
1.224:560
1.224:541
1.224:509
1.224:490
1.224:475
1.228:468
1.228:444
1.228:395
1.244:395
1.244:364
1.244:360
1.244:374
1.244:387
1.244:400
1.244:409
1.244:427
1.248:453
1.248:487
1.248:547
1.248:568
1.248:574
1.249:567
1.249:550
1.249:519
1.249:500
1.252:484
1.252:480
1.252:473
1.252:422
1.252:390
1.252:389
1.252:392
1.252:401
1.253:406
1.253:417
1.256:431
1.256:452
1.256:487
1.272:562
1.272:595
1.272:594
1.272:572
1.277:540
1.277:499
1.277:476
1.277:463
1.277:455
1.277:454
1.277:409
1.278:371
1.278:354
1.278:361
1.281:385
1.281:398
1.281:403
1.281:400
1.281:419
1.281:447
1.281:517
1.281:558
1.281:554
1.285:538
1.285:525
1.285:525
1.285:514
1.285:485
1.285:465
1.285:461
1.301:461
1.301:419
1.301:382
1.306:373
1.306:374
1.306:388
1.306:395
1.306:404
1.306:415
1.306:435
1.306:464
1.306:542
1.306:588
1.310:599
1.310:585
1.310:565
1.310:546
1.310:522
1.311:500
1.311:478
1.311:469
1.311:428
1.313:386
1.314:371
1.314:374
1.314:376
1.314:368
1.314:388
1.314:399
1.314:424
1.335:459
1.335:526
1.335:576
1.335:586
1.335:570
1.335:544
1.335:521
1.335:502
1.335:496
1.335:489
1.339:501
1.339:471
1.339:426
1.339:400
1.339:393
1.339:407
1.339:408
1.339:428
1.339:429
1.343:439
1.343:464
1.343:522
1.343:578
1.343:598
1.344:595
1.344:572
1.344:552
1.344:525
1.344:502
1.346:487
1.363:487
1.363:502
1.363:479
1.363:438
1.363:422
1.363:427
1.363:440
1.363:436
1.363:451
1.366:456
1.368:476
1.368:504
1.368:562
1.368:615
1.368:630
1.368:613
1.368:583
1.368:565
1.370:538
1.372:520
1.372:507
1.372:524
1.372:505
1.372:460
1.372:433
1.372:425
1.372:440
1.372:430
1.375:430
1.375:427
1.392:441
1.392:468
1.392:527
1.392:594
1.392:616
1.392:608
1.395:590
1.395:583
1.395:563
1.395:547
1.395:525
1.395:526
1.395:508
1.395:461
1.395:424
1.400:403
1.400:402
1.400:388
1.400:390
1.400:393
1.400:399
1.400:419
1.400:465
1.400:539
1.400:565
1.404:554
1.404:528
1.404:509
1.404:485
1.404:475
1.420:475
1.420:464
1.420:475
1.420:463
1.420:421
1.425:389
1.425:375
1.425:376
1.426:372
1.426:385
1.426:389
1.426:398
1.426:428
1.426:465
1.429:541
1.429:570
1.429:560
1.429:536
1.429:520
1.429:487
1.429:471
1.429:457
1.429:458
1.429:451
1.432:407
1.432:374
1.432:373
1.432:383
1.432:374
1.434:378
1.449:386
1.449:399
1.452:428
1.452:477
1.453:558
1.453:596
1.453:591
1.453:563
1.453:541
1.453:510
1.453:491
1.458:469
1.458:466
1.458:458
1.459:399
1.459:349
1.459:340
1.459:346
1.459:356
1.459:365
1.460:370
1.461:392
1.461:428
1.461:468
1.461:537
1.461:566
1.461:563
1.462:544
1.462:523
1.462:496
1.477:496
1.481:480
1.481:477
1.481:483
1.481:491
1.482:455
1.482:410
1.482:395
1.482:390
1.482:397
1.486:394
1.486:392
1.486:394
1.486:420
1.486:451
1.486:520
1.486:557
1.486:557
1.486:551
1.486:537
1.490:515
1.490:498
1.490:476
1.490:475
1.490:481
1.490:436
1.490:386
1.490:373
1.490:372
1.493:372
1.510:358
1.510:352
1.510:354
1.511:370
1.511:395
1.511:467
1.511:517
1.514:532
1.514:537
1.514:538
1.514:542
1.514:549
1.514:556
1.514:566
1.514:600
1.515:597
1.519:575
1.519:597
1.519:643
1.519:695
1.519:727
1.519:783
1.519:846
1.519:932
1.519:990
1.519:988
1.523:987
1.523:986
1.523:986
1.523:986
1.539:986
1.539:985
1.539:985
1.539:984
1.539:983
1.539:983
1.544:983
1.544:983
1.544:983
1.544:983
1.544:984
1.544:985
1.544:985
1.544:987
1.544:988
1.544:989
1.548:990
1.548:947
1.548:847
1.548:702
1.548:528
1.548:404
1.548:308
1.548:250
1.548:220
1.552:236
1.552:227
1.552:211
1.552:216
1.552:238
1.567:264
1.567:257
1.567:267
1.572:268
1.572:284
1.572:312
1.572:382
1.572:443
1.572:461
1.572:453
1.572:436
1.572:423
1.575:400
1.576:388
1.576:379
1.576:399
1.576:384
1.576:345
1.576:314
1.577:302
1.577:303
1.577:287
1.580:288
1.580:289
1.580:301
1.580:326
1.580:384
1.580:443
1.580:461
1.580:453
1.596:453
1.596:433
1.601:420
1.601:396
1.601:384
1.601:376
1.601:388
1.601:366
1.601:321
1.601:294
1.601:283
1.601:293
1.605:281
1.605:296
1.605:301
1.605:318
1.605:341
1.605:397
1.605:464
1.605:486
1.605:478
1.609:461
1.609:456
1.609:435
1.609:429
1.609:421
1.609:435
1.609:415
1.610:362
1.610:337
1.629:328
1.629:330
1.629:319
1.629:336
1.629:338
1.629:349
1.630:372
1.630:403
1.632:463
1.634:499
1.634:509
1.634:494
1.634:483
1.634:452
1.634:441
1.634:432
1.634:441
1.634:420
1.638:372
1.638:350
1.638:341
1.638:351
1.638:356
1.638:374
1.638:380
1.638:394
1.638:415
1.641:450
1.641:515
1.642:537
1.658:537
1.658:522
1.658:501
1.658:492
1.659:472
1.659:467
1.659:457
1.662:467
1.662:466
1.662:427
1.662:390
1.662:378
1.662:383
1.662:379
1.662:392
1.662:399
1.662:415
1.666:445
1.666:474
1.666:539
1.666:577
1.666:579
1.666:562
1.666:552
1.666:521
1.666:507
1.666:497
1.670:503
1.670:500
1.670:454
1.686:411
1.686:396
1.686:397
1.686:398
1.691:402
1.692:405
1.692:414
1.692:443
1.692:477
1.692:550
1.692:587
1.692:587
1.692:576
1.692:567
1.695:548
1.695:539
1.695:530
1.695:539
1.695:548
1.695:516
1.695:476
1.695:463
1.695:457
1.699:449
1.699:449
1.699:454
1.699:461
1.699:483
1.699:503
1.699:569
1.715:569
1.715:602
1.715:602
1.719:590
1.719:583
1.719:567
1.719:555
1.719:539
1.719:533
1.719:533
1.719:495
1.719:456
1.720:454
1.724:462
1.724:471
1.724:467
1.724:476
1.724:481
1.724:506
1.724:534
1.725:606
1.725:646
1.727:643
1.728:621
1.728:602
1.728:590
1.728:579
1.728:573
1.728:570
1.728:585
1.748:556
1.748:512
1.748:495
1.748:489
1.748:500
1.748:486
1.748:496
1.748:502
1.748:526
1.748:552
1.752:620
1.752:662
1.752:664
1.752:650
1.752:625
1.752:605
1.752:584
1.752:572
1.752:568
1.757:583
1.757:560
1.757:514
1.757:488
1.757:486
1.757:499
1.757:488
1.757:488
1.757:490
1.757:504
1.760:528
1.776:528
1.777:588
1.777:631
1.777:636
1.777:623
1.777:604
1.777:594
1.777:570
1.777:553
1.781:539
1.781:549
1.781:520
1.781:470
1.781:437
1.781:422
1.781:437
1.781:431
1.781:445
1.785:445
1.785:463
1.785:489
1.785:547
1.785:594
1.785:600
1.786:582
1.786:549
1.786:536
1.786:507
1.789:491
1.789:472
1.805:477
1.805:440
1.805:388
1.805:362
1.805:360
1.805:378
1.809:368
1.809:368
1.809:356
1.810:362
1.810:383
1.810:438
1.810:487
1.810:493
1.810:480
1.814:460
1.814:450
1.814:421
1.814:409
1.814:400
1.814:417
1.814:394
1.814:354
1.814:326
1.814:310
1.817:308
1.817:290
1.818:292
1.818:292
1.818:301
1.833:301
1.833:323
1.833:375
1.833:441
1.833:464
1.838:454
1.838:435
1.838:423
1.839:397
1.839:390
1.839:381
1.839:399
1.839:386
1.839:346
1.842:318
1.842:309
1.842:310
1.842:286
1.842:291
1.842:292
1.842:304
1.842:326
1.842:366
1.842:431
1.846:452
1.846:448
1.846:435
1.846:431
1.846:407
1.846:400
1.862:397
1.862:419
1.867:412
1.867:366
1.867:327
1.867:315
1.867:325
1.867:321
1.867:330
1.867:331
1.867:347
1.871:381
1.871:425
1.871:484
1.871:497
1.871:483
1.871:460
1.871:448
1.871:423
1.871:416
1.871:407
1.875:416
1.875:419
1.875:384
1.875:348
1.875:331
1.876:329
1.876:321
1.876:329
1.876:327
1.891:327
1.895:333
1.895:354
1.896:389
1.896:461
1.896:494
1.896:493
1.896:477
1.896:467
1.896:440
1.900:428
1.900:416
1.900:426
1.900:431
1.900:396
1.900:367
1.900:363
1.900:365
1.901:360
1.901:363
1.903:359
1.903:365
1.903:391
1.903:420
1.903:489
1.904:521
1.904:518
1.904:502
1.904:494
1.907:472
1.925:468
1.925:470
1.925:469
1.925:455
1.925:416
1.925:388
1.925:386
1.928:389
1.928:387
1.928:385
1.929:383
1.929:391
1.929:415
1.929:444
1.929:522
1.929:567
1.932:566
1.932:539
1.932:518
1.932:494
1.932:480
1.932:461
1.932:458
1.932:463
1.933:432
1.933:392
1.936:379
1.936:380
1.936:385
1.936:384
1.952:384
1.952:389
1.952:395
1.952:415
1.952:432
1.952:495
1.957:532
1.957:532
1.958:519
1.958:506
1.958:493
1.958:482
1.958:475
1.958:475
1.958:489
1.958:462
1.960:421
1.961:403
1.961:393
1.961:397
1.961:386
1.961:388
1.961:390
1.961:413
1.961:438
1.965:511
1.965:555
1.965:553
1.965:539
1.965:521
1.981:512
1.981:496
1.981:478
1.986:471
1.986:490
1.986:462
1.986:418
1.986:401
1.986:397
1.986:408
1.986:398
1.986:397
1.990:389
1.990:408
1.990:435
1.990:500
1.990:544
1.990:555
1.990:550
1.990:534
1.990:521
1.990:505
1.994:493
1.994:481
1.994:495
1.994:477
1.994:430
1.994:406
1.994:399
1.994:405
2.009:405
2.010:390
2.015:395
2.015:397
2.015:418
2.015:443
2.015:505
2.015:546
2.015:552
2.015:545
2.015:530
2.019:525
2.019:504
2.019:487
2.019:474
2.019:495
2.019:484
2.019:438
2.019:414
2.019:409
2.019:412
2.023:395
2.023:403
2.023:406
2.023:423
2.023:444
2.023:496
2.023:554
2.023:574
2.023:567
2.042:545
2.042:529
2.042:502
2.042:497
2.042:493
2.042:510
2.042:487
2.044:445
2.047:421
2.047:403
2.047:400
2.047:380
2.047:386
2.047:382
2.047:396
2.047:424
2.047:478
2.047:541
2.051:559
2.051:549
2.051:526
2.051:509
2.051:481
2.051:469
2.051:463
2.051:483
2.051:462
2.054:419
2.054:392
2.054:378
2.071:378
2.071:387
2.071:372
2.071:386
2.071:385
2.072:400
2.072:430
2.075:480
2.075:544
2.075:565
2.075:559
2.075:534
2.075:521
2.075:492
2.075:486
2.075:479
2.075:493
2.080:484
2.080:446
2.080:417
2.080:401
2.080:404
2.080:392
2.080:409
2.080:411
2.080:422
2.084:442
2.084:486
2.084:564
2.084:590
2.099:580
2.099:552
2.100:543
2.100:523
2.105:514
2.105:498
2.105:500
2.105:481
2.106:440
2.106:412
2.106:396
2.106:388
2.106:374
2.106:382
2.108:388
2.109:402
2.109:424
2.109:458
2.109:526
2.109:550
2.109:549
2.109:533
2.109:528
2.113:506
2.113:494
2.113:485
2.113:495
2.113:492
2.113:448
2.113:414
2.128:414
2.128:410
2.129:421
2.133:416
2.133:422
2.133:417
2.133:416
2.133:446
2.133:484
2.133:554
2.133:577
2.133:567
2.133:546
2.138:530
2.138:505
2.138:490
2.138:482
2.138:490
2.138:490
2.138:452
2.138:417
2.138:411
2.141:416
2.141:420
2.142:426
2.142:421
2.142:423
2.142:449
2.142:472
2.142:541
2.162:574
2.162:571
2.162:562
2.162:555
2.162:537
2.162:522
2.162:511
2.162:517
2.162:531
2.162:500
2.165:450
2.165:445
2.165:446
2.165:449
2.165:444
2.165:448
2.165:460
2.165:487
2.166:512
2.170:584
2.170:628
2.170:632
2.170:618
2.170:599
2.170:576
2.170:551
2.170:529
2.170:524
2.171:529
2.174:492
2.190:492
2.190:444
2.190:432
2.190:435
2.190:439
2.190:431
2.191:435
2.191:441
2.191:466
2.194:492
2.194:550
2.194:592
2.194:600
2.194:587
2.194:571
2.195:561
2.195:546
2.195:533
2.199:533
2.199:550
2.199:522
2.199:473
2.199:449
2.199:435
2.199:438
2.199:428
2.199:435
2.199:429
2.203:441
2.203:461
2.219:520
2.219:563
2.219:563
2.219:541
2.219:515
2.219:496
2.222:471
2.222:456
2.223:447
2.223:466
2.223:446
2.223:403
2.223:387
2.223:383
2.223:388
2.227:376
2.227:389
2.227:394
2.227:414
2.227:434
2.227:486
2.228:531
2.228:543
2.228:540
2.228:526
2.230:518
2.230:504
2.231:484
2.231:477
2.231:493
2.247:493
2.247:469
2.247:423
2.248:401
2.248:396
2.252:406
2.252:394
2.252:407
2.252:409
2.252:423
2.252:443
2.252:493
2.252:537
2.252:545
2.256:528
2.256:507
2.256:497
2.256:478
2.256:466
2.256:460
2.257:481
2.257:460
2.257:412
2.257:385
2.260:374
2.260:383
2.260:368
2.260:377
2.260:378
2.260:400
2.276:432
2.281:488
2.281:543
2.281:560
2.281:550
2.281:535
2.281:529
2.281:501
2.281:479
2.281:470
2.281:484
2.285:460
2.285:412
2.285:388
2.285:387
2.285:397
2.285:383
2.285:393
2.286:391
2.286:404
2.286:428
2.289:474
2.289:531
2.289:550
2.289:543
2.289:528
2.289:520
2.289:498
2.289:488
2.289:474
2.305:474
2.309:491
2.309:479
2.309:434
2.309:409
2.310:395
2.310:402
2.310:391
2.310:394
2.310:384
2.313:382
2.313:394
2.313:427
2.314:481
2.314:496
2.314:494
2.314:472
2.314:459
2.314:439
2.314:440
2.317:447
2.317:480
2.317:496
2.317:477
2.317:474
2.317:480
2.317:509
2.318:532
2.318:572
2.320:604
2.337:647
2.337:715
2.337:803
2.337:926
2.337:990
2.337:989
2.337:989
2.342:988
2.342:987
2.342:987
2.342:986
2.342:986
2.342:985
2.342:985
2.342:984
2.342:984
2.346:983
2.346:983
2.346:983
2.346:982
2.346:982
2.346:982
2.346:982
2.346:982
2.346:983
2.346:985
2.350:987
2.350:988
2.350:983
2.350:838
2.366:838
2.366:683
2.366:528
2.366:393
2.366:248
2.366:141
2.371:97
2.371:95
2.371:112
2.371:147
2.371:179
2.371:213
2.371:259
2.371:301
2.371:380
2.371:417
2.374:417
2.374:408
2.374:398
2.374:386
2.375:384
2.375:377
2.375:379
2.375:385
2.375:346
2.379:306
2.379:291
2.379:288
2.379:291
2.379:295
2.395:301
2.395:311
2.395:329
2.399:344
2.399:404
2.399:444
2.399:442
2.399:422
2.399:403
2.399:380
2.399:365
2.399:360
2.403:367
2.403:381
2.403:343
2.403:301
2.403:288
2.403:280
2.403:285
2.403:280
2.403:287
2.403:299
2.407:328
2.407:349
2.407:404
2.407:443
2.408:451
2.408:444
2.408:431
2.408:413
2.424:413
2.424:402
2.428:392
2.428:392
2.428:410
2.428:383
2.428:335
2.428:321
2.428:320
2.428:329
2.428:316
2.432:320
2.432:330
2.432:357
2.432:384
2.432:445
2.432:482
2.432:486
2.432:482
2.432:474
2.432:466
2.436:448
2.436:429
2.436:419
2.436:436
2.436:416
2.436:371
2.436:344
2.436:336
2.436:346
2.456:338
2.456:350
2.456:355
2.456:375
2.456:394
2.456:455
2.456:506
2.456:518
2.461:509
2.461:494
2.461:483
2.461:469
2.461:465
2.461:456
2.461:476
2.461:456
2.461:409
2.461:387
2.465:382
2.465:394
2.465:377
2.465:388
2.465:396
2.465:419
2.465:444
2.465:506
2.466:561
2.469:575
2.469:558
2.469:525
2.484:525
2.484:508
2.485:483
2.485:470
2.485:453
2.485:471
2.485:456
2.489:413
2.489:393
2.489:396
2.489:406
2.489:393
2.489:400
2.489:406
2.490:428
2.490:461
2.490:519
2.492:575
2.492:586
2.494:570
2.494:543
2.494:528
2.494:506
2.494:505
2.494:499
2.494:516
2.497:499
2.497:454
2.497:432
2.497:424
2.513:431
2.513:418
2.513:431
2.514:434
2.518:450
2.518:481
2.518:531
2.518:589
2.518:612
2.518:605
2.518:586
2.518:579
2.518:557
2.518:543
2.521:531
2.522:544
2.522:525
2.522:481
2.522:453
2.522:443
2.522:454
2.522:442
2.522:454
2.526:456
2.526:478
2.526:510
2.526:552
2.526:616
2.526:639
2.526:636
2.542:636
2.542:620
2.542:621
2.547:602
2.547:592
2.547:586
2.547:605
2.547:595
2.547:551
2.547:520
2.547:507
2.547:509
2.547:496
2.550:499
2.551:494
2.551:500
2.551:524
2.551:564
2.551:629
2.551:648
2.551:637
2.551:616
2.555:609
2.555:579
2.555:573
2.555:564
2.555:582
2.555:579
2.555:543
2.555:512
2.574:501
2.574:503
2.574:491
2.576:496
2.576:487
2.576:497
2.576:532
2.576:567
2.576:634
2.576:660
2.579:655
2.579:636
2.579:620
2.580:587
2.580:569
2.580:552
2.580:558
2.580:554
2.580:518
2.584:485
2.584:472
2.584:467
2.584:459
2.584:457
2.584:453
2.584:453
2.584:470
2.584:501
2.584:567
2.586:592
2.604:592
2.604:586
2.604:565
2.604:547
2.604:516
2.604:500
2.604:488
2.604:492
2.604:493
2.607:450
2.607:407
2.607:391
2.607:382
2.609:377
2.609:377
2.609:377
2.609:382
2.609:400
2.612:424
2.612:492
2.612:523
2.612:515
2.612:494
2.612:475
2.612:445
2.612:428
2.612:416
2.612:423
2.616:431
2.616:391
2.632:343
2.632:330
2.632:324
2.632:324
2.632:313
2.636:312
2.636:315
2.636:334
2.637:356
2.637:424
2.637:458
2.637:451
2.637:434
2.637:416
2.637:405
2.640:396
2.640:385
2.640:385
2.640:400
2.641:371
2.641:323
2.641:305
2.641:298
2.641:303
2.641:297
2.644:305
2.644:307
2.644:330
2.644:356
2.644:427
2.661:427
2.661:465
2.661:463
2.661:451
2.661:431
2.665:412
2.665:395
2.665:384
2.665:379
2.665:393
2.665:366
2.665:323
2.666:308
2.666:304
2.669:312
2.669:294
2.670:298
2.670:314
2.670:341
2.670:367
2.670:435
2.670:483
2.670:488
2.670:477
2.674:455
2.674:440
2.674:422
2.674:422
2.674:425
2.674:452
2.689:427
2.694:380
2.694:355
2.694:345
2.694:352
2.695:339
2.695:349
2.695:350
2.695:361
2.695:376
2.695:421
2.698:451
2.698:449
2.698:444
2.698:432
2.698:428
2.698:410
2.698:409
2.698:408
2.698:434
2.702:418
2.702:368
2.702:344
2.702:341
2.702:353
2.702:341
2.702:352
2.702:361
2.703:380
2.703:402
2.718:402
2.722:457
2.722:509
2.722:523
2.722:511
2.722:493
2.722:485
2.722:467
2.722:457
2.722:448
2.727:464
2.727:443
2.727:395
2.728:369
2.728:359
2.728:366
2.728:355
2.728:373
2.728:375
2.728:386
2.731:404
2.731:457
2.731:513
2.731:530
2.731:520
2.731:501
2.731:496
2.731:475
2.731:468
2.734:460
2.751:480
2.751:468
2.751:425
2.751:395
2.752:387
2.752:392
2.752:373
2.755:385
2.755:386
2.755:402
2.755:430
2.755:476
2.755:538
2.755:562
2.755:558
2.755:541
2.759:532
2.760:507
2.760:492
2.761:477
2.761:490
2.761:475
2.761:429
2.761:399
2.761:379
2.761:387
2.763:377
2.763:393
2.763:386
2.763:393
2.780:393
2.780:422
2.780:463
2.780:524
2.780:547
2.781:545
2.784:523
2.784:514
2.784:484
2.784:472
2.785:466
2.785:483
2.785:482
2.785:447
2.785:419
2.785:404
2.788:406
2.788:397
2.788:407
2.788:414
2.788:431
2.788:455
2.788:481
2.788:536
2.788:553
2.792:543
2.792:519
2.792:505
2.793:479
2.793:472
2.808:468
2.808:480
2.808:481
2.813:439
2.813:404
2.813:395
2.813:398
2.813:393
2.813:398
2.813:397
2.813:410
2.813:442
2.817:470
2.817:540
2.817:572
2.817:566
2.817:552
2.817:547
2.817:528
2.817:518
2.817:506
2.817:513
2.821:509
2.821:464
2.821:420
2.821:413
2.821:422
2.821:421
2.821:413
2.821:410
2.836:410
2.837:427
2.841:462
2.841:487
2.841:552
2.841:579
2.841:563
2.842:532
2.842:508
2.842:488
2.842:474
2.844:466
2.846:476
2.846:482
2.846:448
2.846:414
2.846:401
2.846:395
2.847:396
2.847:385
2.847:381
2.849:379
2.849:398
2.849:435
2.850:508
2.850:541
2.850:540
2.850:529
2.850:520
2.850:507
2.869:493
2.869:481
2.869:486
2.869:498
2.870:470
2.870:426
2.870:414
2.870:411
2.874:418
2.874:409
2.874:406
2.874:402
2.874:421
2.874:445
2.874:513
2.874:555
2.874:553
2.874:532
2.878:506
2.878:489
2.878:475
2.878:474
2.878:476
2.878:491
2.878:463
2.878:422
2.879:411
2.882:407
2.882:421
2.882:413
2.898:413
2.898:420
2.898:428
2.898:453
2.898:476
2.898:542
2.898:592
2.902:597
2.902:579
2.902:549
2.903:521
2.903:492
2.903:469
2.903:454
2.903:469
2.903:440
2.903:396
2.907:379
2.907:377
2.908:390
2.908:384
2.908:394
2.908:402
2.908:426
2.908:451
2.908:516
2.911:563
2.911:571
2.911:553
2.911:533
2.927:522
2.927:508
2.927:498
2.928:491
2.932:509
2.932:482
2.932:432
2.932:409
2.932:405
2.932:408
2.932:389
2.932:398
2.932:402
2.932:419
2.936:447
2.936:511
2.936:567
2.936:578
2.936:569
2.936:551
2.936:538
2.936:506
2.936:494
2.940:494
2.940:516
2.941:490
2.941:437
2.941:410
2.941:390
2.941:388
2.955:388
2.955:371
2.955:387
2.960:392
2.960:412
2.960:439
2.960:499
2.960:557
2.960:571
2.960:560
2.960:538
2.960:535
2.960:512
2.964:501
2.964:495
2.964:516
2.964:502
2.964:459
2.964:427
2.964:416
2.964:423
2.964:401
2.968:406
2.968:403
2.968:422
2.968:450
2.968:498
2.968:557
2.968:575
2.968:565
2.989:546
2.989:536
2.989:517
2.989:515
2.989:510
2.989:526
2.989:501
2.989:444
2.989:397
2.992:382
2.992:392
2.992:389
2.992:407
2.992:408
2.993:422
2.994:449
2.994:493
2.994:553
2.994:573
2.996:574
2.996:558
2.996:546
2.996:525
2.997:520
2.997:510
2.997:516
2.997:510
2.997:475
2.997:455
3.000:450
3.017:450
3.017:459
3.017:447
3.017:457
3.017:459
3.017:472
3.017:497
3.017:542
3.017:606
3.022:624
3.022:613
3.022:587
3.022:570
3.022:549
3.022:542
3.022:533
3.022:542
3.022:532
3.025:488
3.026:456
3.026:440
3.026:444
3.026:441
3.026:453
3.026:455
3.026:475
3.026:504
3.026:536
3.030:603
3.030:628
3.046:624
3.046:599
3.046:580
3.046:550
3.046:535
3.050:520
3.050:530
3.050:516
3.050:459
3.050:421
3.050:412
3.050:410
3.050:412
3.050:423
3.050:421
3.054:439
3.054:470
3.054:512
3.054:576
3.054:594
3.054:580
3.054:549
3.054:526
3.054:492
3.058:472
3.058:461
3.059:457
3.059:434
3.060:383
3.060:358
3.075:358
3.075:356
3.075:368
3.075:380
3.075:399
3.079:406
3.079:426
3.079:454
3.079:495
3.079:569
3.079:592
3.079:585
3.079:549
3.079:521
3.083:490
3.083:478
3.083:463
3.083:457
3.083:432
3.083:376
3.083:345
3.083:346
3.083:360
3.083:389
3.086:411
3.086:427
3.086:442
3.086:463
3.086:501
3.086:580
3.102:608
3.107:594
3.107:556
3.107:528
3.107:492
3.107:468
3.107:457
3.107:452
3.107:434
3.107:375
3.108:342
3.112:344
3.112:353
3.112:376
3.112:392
3.113:408
3.113:420
3.113:441
3.113:480
3.113:558
3.116:592
3.116:585
3.116:550
3.116:520
3.116:490
3.116:465
3.116:449
3.116:445
3.116:438
3.116:387
3.136:387
3.136:358
3.136:361
3.136:374
3.136:389
3.136:404
3.136:426
3.136:440
3.136:460
3.136:488
3.140:568
3.141:606
3.141:599
3.141:571
3.141:545
3.141:520
3.141:497
3.141:486
3.142:470
3.142:455
3.144:397
3.145:354
3.145:346
3.145:354
3.145:375
3.145:394
3.145:414
3.145:421
3.145:437
3.148:460
3.164:533
3.164:575
3.164:564
3.164:530
3.164:489
3.164:451
3.165:429
3.169:426
3.169:427
3.169:438
3.169:408
3.169:386
3.169:396
3.169:429
3.169:476
3.169:521
3.173:571
3.173:615
3.173:673
3.174:739
3.174:856
3.174:948
3.174:990
3.174:990
3.174:989
3.175:989
3.176:988
3.176:988
3.177:987
3.177:986
3.194:986
3.194:987
3.194:986
3.194:986
3.194:985
3.194:984
3.198:983
3.198:983
3.198:982
3.198:982
3.198:982
3.198:982
3.198:982
3.198:983
3.198:984
3.202:986
3.202:988
3.202:990
3.202:864
3.202:744
3.202:612
3.202:416
3.202:251
3.202:156
3.202:130
3.206:136
3.206:157
3.206:196
3.206:230
3.206:269
3.222:306
3.222:386
3.222:446
3.226:445
3.226:422
3.226:389
3.226:363
3.226:339
3.226:331
3.226:333
3.227:343
3.227:298
3.230:257
3.230:251
3.230:263
3.230:287
3.230:314
3.230:356
3.230:380
3.230:395
3.230:413
3.230:460
3.235:517
3.235:529
3.235:507
3.235:462
3.235:425
3.235:383
3.235:355
3.235:330
3.250:330
3.250:326
3.255:293
3.255:242
3.255:219
3.255:224
3.255:256
3.255:287
3.255:325
3.255:345
3.256:369
3.259:395
3.260:443
3.260:508
3.260:517
3.260:500
3.260:465
3.260:434
3.260:394
3.260:373
3.260:360
3.263:362
3.263:322
3.263:263
3.263:249
3.263:261
3.264:293
3.264:325
3.264:357
3.264:381
3.284:398
3.284:415
3.284:462
3.284:533
3.284:540
3.284:516
3.284:474
3.284:459
3.288:446
3.288:429
3.288:407
3.288:400
3.288:361
3.288:301
3.288:277
3.288:287
3.288:314
3.288:341
3.292:383
3.292:404
3.292:427
3.292:457
3.292:499
3.292:578
3.292:600
3.292:584
3.292:541
3.296:506
3.296:469
3.296:449
3.312:449
3.312:443
3.312:440
3.312:409
3.312:344
3.312:318
3.312:324
3.316:348
3.316:369
3.316:397
3.316:427
3.316:449
3.316:471
3.316:509
3.316:589
3.316:618
3.316:611
3.321:574
3.321:538
3.321:494
3.321:472
3.321:456
3.321:448
3.321:426
3.321:361
3.321:331
3.324:341
3.324:367
3.324:399
3.324:432
3.340:458
3.340:477
3.341:499
3.341:535
3.345:618
3.345:647
3.345:635
3.345:605
3.345:568
3.345:525
3.345:500
3.345:484
3.345:479
3.345:465
3.349:402
3.349:372
3.349:375
3.349:395
3.349:421
3.349:451
3.349:477
3.349:498
3.349:522
3.353:554
3.353:634
3.353:667
3.353:658
3.353:626
3.353:591
3.353:552
3.369:552
3.369:526
3.369:513
3.373:507
3.373:501
3.373:436
3.374:396
3.374:400
3.374:422
3.374:457
3.374:490
3.374:518
3.374:539
3.378:567
3.378:594
3.378:669
3.378:702
3.378:685
3.378:660
3.378:624
3.378:586
3.378:561
3.382:546
3.382:537
3.382:539
3.382:482
3.382:436
3.382:433
3.382:449
3.382:486
3.403:521
3.403:544
3.403:563
3.403:590
3.403:619
3.403:690
3.403:731
3.403:729
3.403:702
3.406:663
3.406:616
3.406:583
3.406:566
3.407:556
3.407:553
3.407:501
3.407:459
3.407:459
3.407:478
3.411:505
3.411:521
3.411:546
3.411:566
3.411:590
3.411:613
3.411:680
3.411:721
3.411:720
3.411:696
3.414:653
3.431:653
3.431:608
3.431:571
3.431:543
3.431:523
3.431:513
3.431:457
3.431:403
3.431:395
3.434:411
3.434:445
3.434:468
3.434:491
3.434:502
3.434:520
3.434:544
3.434:613
3.434:672
3.439:670
3.440:640
3.440:594
3.440:556
3.440:522
3.440:501
3.440:487
3.440:484
3.441:422
3.441:363
3.442:343
3.442:340
3.459:352
3.459:370
3.459:394
3.459:407
3.459:427
3.463:456
3.463:518
3.463:578
3.463:581
3.464:559
3.464:522
3.464:485
3.464:447
3.464:426
3.464:409
3.468:403
3.468:353
3.468:291
3.468:269
3.468:265
3.468:283
3.468:308
3.468:342
3.468:361
3.472:378
3.472:402
3.472:451
3.472:511
3.472:519
3.472:503
3.487:503
3.488:464
3.488:424
3.488:380
3.488:357
3.493:337
3.493:329
3.493:285
3.493:242
3.493:236
3.493:243
3.493:269
3.493:289
3.493:317
3.497:330
3.497:346
3.497:374
3.497:431
3.497:506
3.497:523
3.498:504
3.498:470
3.498:444
3.498:409
3.500:388
3.501:382
3.501:383
3.501:354
3.501:307
3.501:298
3.516:295
3.521:302
3.521:315
3.521:338
3.521:353
3.521:368
3.521:385
3.521:416
3.521:479
3.521:492
3.521:473
3.524:439
3.524:422
3.526:392
3.526:381
3.526:375
3.526:375
3.526:351
3.526:301
3.526:279
3.529:278
3.529:288
3.529:300
3.529:329
3.529:352
3.529:375
3.529:397
3.529:438
3.529:509
3.529:532
3.550:532
3.550:524
3.550:496
3.550:471
3.550:436
3.550:422
3.550:409
3.550:409
3.550:400
3.550:360
3.554:336
3.554:338
3.554:349
3.554:362
3.554:366
3.554:378
3.554:390
3.554:408
3.554:445
3.557:516
3.558:537
3.558:517
3.558:486
3.558:456
3.558:424
3.558:407
3.558:397
3.559:397
3.559:387
3.561:340
3.578:311
3.579:314
3.579:331
3.579:347
3.579:365
3.579:385
3.579:404
3.583:438
3.583:477
3.583:544
3.583:573
3.583:569
3.583:553
3.583:528
3.583:498
3.583:476
3.587:460
3.587:457
3.587:452
3.587:402
3.587:370
3.587:362
3.587:362
3.587:375
3.587:386
3.587:401
3.591:413
3.591:437
3.591:469
3.591:543
3.607:543
3.607:580
3.607:578
3.607:557
3.607:534
3.608:507
3.611:486
3.611:470
3.611:463
3.611:466
3.611:418
3.611:379
3.611:366
3.611:360
3.611:373
3.615:386
3.615:406
3.615:420
3.615:438
3.615:467
3.615:543
3.615:585
3.615:584
3.615:558
3.615:517
3.619:482
3.619:451
3.619:446
3.619:445
3.619:449
3.636:404
3.636:366
3.636:357
3.640:370
3.640:394
3.640:412
3.640:431
3.640:444
3.641:466
3.641:500
3.641:571
3.641:615
3.644:616
3.644:594
3.644:567
3.644:532
3.644:499
3.644:482
3.644:460
3.645:458
3.645:411
3.645:361
3.648:350
3.648:364
3.648:381
3.648:391
3.648:420
3.648:438
3.648:454
3.648:480
3.664:480
3.664:546
3.668:591
3.668:593
3.668:574
3.668:539
3.668:509
3.668:481
3.668:463
3.668:449
3.668:450
3.673:409
3.674:363
3.674:349
3.674:351
3.674:367
3.674:370
3.674:396
3.674:414
3.674:437
3.675:466
3.677:527
3.677:577
3.677:586
3.677:574
3.677:548
3.677:523
3.677:497
3.677:486
3.677:471
3.697:464
3.697:421
3.697:375
3.697:360
3.697:362
3.697:374
3.697:378
3.697:397
3.701:417
3.701:438
3.701:463
3.701:519
3.701:581
3.701:599
3.701:581
3.701:547
3.701:533
3.701:510
3.705:491
3.705:478
3.705:478
3.705:435
3.705:386
3.705:376
3.705:373
3.705:388
3.705:395
3.709:421
3.709:434
3.709:458
3.725:458
3.725:487
3.725:535
3.725:593
3.725:607
3.725:597
3.725:564
3.730:540
3.730:512
3.730:486
3.730:466
3.730:459
3.730:436
3.730:388
3.730:364
3.730:365
3.730:374
3.734:379
3.734:404
3.734:415
3.734:430
3.734:462
3.734:506
3.734:577
3.734:602
3.734:597
3.738:577
3.738:555
3.738:522
3.738:507
3.753:492
3.754:489
3.754:466
3.754:418
3.759:392
3.759:391
3.759:407
3.759:415
3.759:433
3.759:442
3.759:453
3.759:480
3.759:515
3.759:581
3.763:597
3.763:591
3.763:572
3.763:552
3.763:525
3.763:511
3.763:501
3.763:500
3.763:482
3.767:435
3.767:398
3.767:393
3.767:409
3.767:431
3.767:445
3.767:460
3.783:460
3.783:479
3.783:506
3.787:548
3.787:620
3.787:638
3.787:622
3.787:603
3.787:583
3.787:553
3.787:536
3.787:525
3.787:521
3.790:507
3.790:458
3.791:426
3.791:423
3.791:435
3.791:450
3.791:459
3.791:467
3.791:478
3.795:497
3.795:532
3.795:607
3.795:636
3.795:624
3.795:599
3.795:576
3.795:543
3.816:522
3.816:510
3.816:505
3.816:495
3.816:445
3.816:407
3.816:392
3.816:390
3.816:400
3.820:410
3.820:431
3.820:443
3.820:457
3.820:483
3.820:558
3.820:593
3.820:589
3.820:568
3.820:538
3.824:498
3.824:464
3.824:445
3.824:438
3.824:435
3.824:389
3.824:352
3.824:350
3.825:359
3.825:376
3.827:391
3.844:391
3.844:406
3.844:418
3.844:445
3.844:479
3.844:555
3.844:594
3.844:594
3.844:577
3.848:551
3.848:519
3.848:498
3.848:484
3.848:470
3.848:465
3.848:418
3.848:377
3.848:364
3.853:367
3.853:386
3.853:396
3.853:413
3.853:424
3.853:434
3.853:451
3.853:519
3.853:559
3.853:561
3.857:543
3.857:522
3.872:505
3.872:485
3.872:473
3.874:459
3.874:459
3.877:415
3.877:367
3.877:347
3.877:347
3.878:369
3.878:385
3.878:406
3.878:420
3.878:437
3.878:473
3.882:549
3.882:603
3.882:612
3.882:596
3.882:569
3.882:539
3.882:503
3.882:491
3.882:479
3.884:476
3.886:421
3.886:366
3.886:339
3.886:329
3.886:336
3.901:336
3.901:350
3.901:378
3.901:403
3.906:435
3.906:468
3.906:537
3.906:595
3.906:605
3.906:587
3.906:555
3.906:535
3.906:513
3.907:503
3.910:496
3.910:499
3.910:453
3.910:400
3.910:378
3.910:376
3.910:382
3.910:388
3.911:401
3.911:413
3.913:431
3.913:465
3.913:529
3.913:584
3.914:592
3.914:571
3.930:541
3.934:513
3.934:479
3.934:463
3.934:454
3.934:458
3.934:425
3.934:385
3.934:389
3.934:408
3.936:447
3.939:485
3.940:521
3.940:553
3.940:595
3.940:648
3.940:727
3.940:801
3.941:832
3.941:837
3.943:831
3.943:844
3.943:855
3.943:877
3.943:912
3.943:963
3.943:988
3.943:989
3.943:989
3.943:988
3.963:988
3.963:988
3.963:987
3.963:986
3.963:985
3.963:984
3.963:984
3.963:983
3.963:982
3.963:982
3.968:983
3.968:985
3.968:986
3.968:987
3.968:989
3.968:965
3.968:848
3.968:722
3.968:586
3.972:469
3.972:353
3.972:255
3.972:192
3.972:172
3.973:173
3.973:198
3.973:241
3.973:306
3.973:391
3.975:415
3.991:410
3.991:390
3.991:369
3.992:340
3.992:322
3.992:304
3.992:305
3.996:289
3.996:245
3.996:227
3.996:239
3.996:263
3.996:284
3.996:305
3.996:323
3.996:347
4.000:372
4.000:413
4.000:489
4.000:522
4.000:516
4.000:491
4.000:466
4.000:440
4.000:423
4.000:413
4.004:405
4.004:387
4.004:333
4.004:301
4.020:301
4.020:294
4.020:303
4.021:316
4.021:341
4.021:369
4.025:389
4.025:420
4.026:454
4.026:527
4.026:548
4.026:529
4.026:506
4.026:481
4.026:448
4.029:422
4.029:405
4.029:398
4.029:373
4.029:331
4.029:302
4.030:296
4.030:304
4.030:323
4.030:344
4.033:361
4.033:379
4.033:401
4.033:432
4.033:510
4.048:543
4.048:535
4.049:511
4.053:486
4.053:459
4.053:442
4.053:426
4.053:419
4.053:416
4.053:368
4.053:328
4.053:321
4.058:331
4.058:353
4.058:370
4.058:391
4.058:409
4.058:434
4.058:471
4.058:542
4.058:579
4.058:582
4.062:572
4.062:553
4.062:530
4.062:511
4.062:497
4.062:487
4.062:480
4.062:434
4.078:434
4.078:389
4.082:363
4.082:350
4.082:358
4.082:367
4.082:379
4.082:386
4.082:407
4.082:434
4.082:510
4.086:563
4.086:579
4.086:566
4.086:543
4.086:515
4.086:494
4.086:481
4.086:474
4.086:478
4.086:434
4.090:392
4.090:380
4.090:384
4.091:400
4.091:411
4.091:437
4.091:462
4.091:485
4.091:514
4.111:585
4.111:631
4.111:628
4.111:603
4.111:576
4.111:554
4.111:533
4.111:520
4.115:506
4.115:508
4.115:469
4.115:429
4.115:425
4.115:434
4.115:446
4.115:458
4.116:483
4.116:497
4.119:508
4.119:525
4.119:588
4.119:634
4.119:635
4.119:616
4.119:595
4.119:576
4.119:559
4.123:551
4.123:546
4.123:557
4.139:557
4.139:516
4.139:480
4.139:471
4.140:478
4.140:492
4.140:488
4.144:502
4.144:515
4.144:530
4.144:553
4.144:613
4.144:657
4.144:659
4.144:638
4.144:610
4.144:594
4.148:571
4.148:562
4.148:562
4.148:569
4.148:536
4.148:494
4.148:474
4.148:475
4.148:493
4.152:504
4.152:531
4.152:552
4.152:567
4.167:586
4.167:643
4.167:695
4.168:706
4.172:691
4.173:669
4.173:650
4.173:623
4.173:606
4.173:602
4.173:612
4.173:581
4.173:541
4.173:523
4.176:514
4.176:524
4.176:530
4.176:541
4.177:546
4.177:557
4.177:583
4.177:638
4.177:697
4.180:714
4.180:704
4.180:672
4.180:640
4.180:609
4.180:595
4.180:571
4.196:571
4.196:564
4.196:520
4.201:468
4.201:442
4.201:444
4.201:467
4.201:482
4.201:501
4.201:516
4.201:533
4.201:558
4.201:606
4.205:662
4.205:663
4.205:644
4.205:613
4.205:587
4.205:547
4.205:519
4.205:503
4.206:501
4.209:477
4.209:425
4.209:392
4.209:379
4.209:389
4.209:396
4.209:409
4.209:411
4.230:416
4.230:428
4.230:460
4.230:524
4.230:542
4.230:530
4.230:505
4.230:484
4.230:457
4.234:442
4.234:415
4.234:406
4.234:385
4.234:334
4.234:305
4.234:301
4.234:309
4.234:317
4.234:330
4.238:341
4.238:353
4.238:374
4.238:401
4.238:467
4.238:487
4.238:479
4.238:451
4.238:423
4.242:390
4.242:371
4.258:371
4.258:359
4.258:354
4.258:335
4.258:285
4.258:260
4.258:260
4.258:266
4.258:277
4.262:294
4.262:309
4.262:325
4.262:356
4.262:394
4.262:463
4.262:493
4.262:484
4.262:458
4.267:430
4.267:406
4.267:400
4.267:393
4.267:387
4.267:376
4.267:332
4.267:303
4.267:297
4.267:297
4.270:303
4.270:310
4.286:317
4.286:317
4.286:325
4.287:346
4.287:412
4.291:447
4.291:449
4.291:426
4.291:402
4.291:381
4.291:367
4.291:362
4.291:358
4.291:353
4.291:307
4.295:279
4.295:281
4.295:292
4.295:311
4.295:322
4.295:339
4.295:353
4.296:366
4.296:397
4.299:475
4.299:515
4.299:512
4.299:494
4.299:469
4.299:443
4.314:443
4.314:418
4.314:400
4.314:396
4.320:398
4.320:353
4.320:310
4.320:304
4.320:320
4.320:348
4.320:360
4.320:375
4.320:392
4.320:414
4.323:444
4.323:511
4.323:543
4.323:544
4.323:529
4.323:497
4.323:464
4.323:434
4.325:412
4.328:401
4.328:401
4.328:355
4.328:309
4.328:294
4.328:297
4.328:319
4.343:338
4.348:365
4.348:384
4.348:407
4.348:438
4.348:505
4.348:551
4.348:560
4.348:546
4.348:522
4.348:494
4.353:474
4.353:462
4.353:452
4.353:448
4.353:399
4.353:356
4.353:339
4.353:339
4.353:353
4.357:361
4.357:379
4.357:393
4.357:414
4.357:442
4.357:512
4.357:568
4.357:578
4.357:561
4.357:531
4.377:531
4.377:508
4.377:484
4.377:471
4.377:454
4.377:450
4.377:412
4.377:373
4.377:355
4.377:354
4.381:369
4.381:382
4.381:406
4.381:425
4.381:446
4.381:470
4.381:532
4.381:583
4.381:593
4.385:577
4.385:549
4.385:522
4.385:497
4.385:488
4.385:484
4.385:486
4.385:449
4.385:408
4.385:393
4.389:392
4.405:405
4.405:416
4.406:439
4.406:449
4.406:458
4.406:477
4.406:531
4.409:581
4.409:587
4.409:568
4.409:528
4.409:494
4.409:458
4.409:438
4.410:430
4.410:433
4.414:409
4.414:368
4.414:353
4.414:354
4.414:368
4.414:379
4.414:398
4.414:422
4.414:444
4.415:469
4.418:521
4.418:583
4.418:597
4.418:583
4.434:583
4.434:554
4.434:528
4.434:501
4.434:485
4.434:474
4.439:474
4.439:439
4.440:394
4.440:376
4.440:379
4.440:392
4.440:399
4.440:424
4.440:445
4.443:464
4.443:495
4.443:545
4.443:612
4.443:630
4.443:611
4.443:582
4.443:557
4.443:516
4.443:490
4.447:467
4.447:450
4.447:416
4.447:358
4.447:328
4.462:325
4.462:344
4.462:362
4.467:387
4.467:404
4.467:421
4.467:446
4.467:495
4.467:568
4.467:593
4.467:592
4.467:577
4.471:555
4.471:520
4.471:501
4.471:490
4.471:487
4.471:461
4.471:405
4.471:375
4.471:377
4.472:395
4.475:414
4.475:429
4.475:437
4.475:448
4.475:469
4.475:499
4.475:561
4.475:576
4.491:576
4.492:569
4.496:550
4.496:529
4.496:500
4.496:487
4.496:481
4.496:483
4.496:475
4.496:432
4.496:400
4.500:395
4.500:403
4.500:416
4.500:440
4.500:459
4.500:476
4.500:498
4.500:528
4.500:594
4.500:620
4.504:599
4.504:557
4.504:522
4.504:493
4.504:475
4.504:464
4.504:458
4.504:448
4.505:401
4.524:367
4.524:358
4.524:353
4.524:355
4.524:360
4.524:378
4.524:401
4.524:439
4.529:482
4.529:558
4.529:597
4.529:599
4.529:580
4.529:552
4.529:524
4.529:505
4.529:497
4.529:489
4.532:486
4.532:436
4.533:390
4.533:381
4.533:394
4.533:426
4.533:453
4.533:472
4.533:480
4.536:488
4.536:510
4.536:571
4.553:571
4.553:598
4.553:588
4.553:560
4.553:529
4.553:504
4.553:483
4.557:466
4.557:457
4.557:466
4.557:425
4.558:392
4.558:385
4.558:396
4.558:415
4.558:428
4.558:451
4.561:470
4.561:493
4.561:525
4.561:601
4.561:647
4.561:660
4.561:648
4.561:624
4.561:594
4.565:563
4.565:547
4.565:536
4.565:536
4.581:490
4.581:442
4.581:429
4.581:432
4.586:454
4.586:472
4.586:490
4.586:494
4.586:505
4.586:526
4.586:589
4.586:635
4.586:638
4.590:621
4.590:602
4.590:582
4.590:552
4.590:530
4.590:515
4.591:513
4.591:462
4.591:409
4.591:376
4.594:366
4.594:368
4.594:374
4.594:394
4.594:419
4.594:447
4.594:477
4.610:477
4.610:545
4.610:604
4.615:618
4.615:603
4.615:575
4.615:547
4.615:514
4.615:480
4.615:440
4.615:423
4.615:367
4.615:321
4.618:303
4.619:303
4.619:323
4.619:341
4.619:364
4.619:381
4.619:411
4.619:445
4.619:512
4.622:569
4.622:581
4.622:570
4.622:543
4.622:520
4.622:491
4.622:471
4.622:458
4.643:465
4.643:436
4.643:391
4.643:373
4.643:371
4.643:383
4.643:396
4.643:407
4.643:407
4.647:413
4.647:430
4.647:479
4.647:542
4.647:558
4.647:547
4.647:522
4.647:501
4.647:472
4.647:454
4.652:442
4.652:449
4.652:419
4.652:373
4.652:356
4.652:360
4.652:377
4.652:387
4.652:408
4.655:416
4.655:431
4.671:431
4.672:459
4.672:511
4.672:579
4.672:591
4.672:578
4.672:551
4.672:529
4.676:510
4.676:501
4.676:490
4.676:485
4.676:440
4.676:384
4.676:362
4.676:364
4.676:382
4.676:398
4.680:423
4.680:444
4.680:468
4.680:496
4.680:537
4.680:591
4.680:599
4.680:569
4.680:525
4.681:490
4.684:457
4.684:444
4.700:439
4.700:437
4.700:407
4.700:354
4.700:324
4.705:325
4.705:342
4.705:364
4.706:388
4.706:396
4.706:406
4.706:427
4.706:459
4.707:514
4.707:529
4.709:518
4.709:494
4.709:482
4.709:460
4.709:453
4.709:459
4.709:475
4.709:479
4.709:458
4.712:453
4.713:469
4.713:503
4.713:545
4.713:593
4.713:644
4.729:644
4.729:706
4.729:776
4.729:859
4.733:984
4.733:989
4.733:988
4.733:988
4.733:987
4.733:987
4.733:987
4.733:986
4.733:985
4.733:986
4.738:985
4.738:985
4.738:984
4.738:984
4.738:984
4.738:984
4.738:983
4.738:983
4.738:984
4.741:984
4.742:984
4.742:985
4.742:987
4.742:988
4.742:978
4.742:840
4.757:698
4.762:537
4.762:410
4.762:321
4.762:219
4.762:151
4.762:146
4.762:166
4.762:200
4.762:229
4.762:255
4.765:273
4.765:298
4.765:335
4.765:409
4.765:437
4.765:437
4.765:421
4.765:407
4.765:390
4.770:374
4.770:364
4.770:357
4.770:344
4.770:287
4.770:247
4.770:242
4.770:256
4.770:279
4.770:300
4.790:300
4.790:327
4.790:350
4.790:374
4.791:400
4.791:456
4.791:486
4.791:488
4.791:470
4.791:448
4.795:429
4.795:408
4.795:390
4.795:379
4.795:377
4.795:337
4.795:305
4.795:293
4.795:298
4.799:312
4.799:320
4.799:330
4.799:332
4.799:347
4.799:372
4.799:447
4.800:499
4.800:505
4.800:486
4.802:464
4.819:446
4.819:432
4.819:429
4.819:424
4.819:428
4.819:383
4.819:329
4.823:301
4.823:303
4.823:309
4.824:309
4.824:331
4.824:343
4.824:361
4.824:385
4.824:447
4.827:496
4.827:505
4.827:488
4.827:465
4.827:449
4.827:427
4.827:409
4.828:399
4.828:405
4.828:371
4.831:335
4.831:327
4.831:337
4.831:361
4.847:361
4.847:377
4.847:404
4.847:423
4.847:448
4.847:477
4.851:532
4.851:574
4.851:584
4.851:572
4.851:549
4.851:520
4.852:489
4.852:473
4.852:461
4.856:462
4.856:420
4.856:373
4.856:350
4.856:344
4.856:352
4.856:363
4.856:387
4.856:401
4.856:407
4.860:415
4.860:484
4.860:575
4.860:619
4.860:612
4.876:571
4.876:547
4.880:538
4.881:518
4.881:484
4.881:487
4.881:489
4.881:446
4.881:409
4.881:389
4.881:383
4.881:373
4.884:378
4.884:394
4.884:422
4.884:454
4.884:509
4.884:571
4.884:599
4.884:595
4.884:574
4.884:559
4.888:543
4.888:544
4.888:541
4.888:543
4.889:500
4.889:437
4.889:394
4.889:380
4.905:380
4.905:387
4.909:396
4.909:423
4.909:450
4.909:482
4.909:514
4.909:563
4.909:624
4.909:628
4.909:612
4.912:583
4.914:560
4.914:536
4.914:525
4.914:519
4.914:524
4.914:505
4.914:463
4.914:437
4.914:434
4.918:463
4.918:482
4.918:504
4.918:513
4.918:525
4.918:544
4.918:582
4.918:649
4.918:674
4.937:663
4.937:630
4.937:600
4.938:572
4.938:565
4.938:560
4.938:559
4.938:543
4.942:495
4.942:473
4.942:483
4.942:501
4.942:499
4.942:506
4.942:517
4.942:518
4.942:531
4.946:577
4.946:647
4.946:669
4.946:658
4.946:633
4.946:616
4.946:603
4.946:600
4.946:591
4.947:596
4.950:582
4.950:542
4.950:520
4.966:520
4.966:512
4.966:516
4.966:518
4.966:518
4.966:513
4.966:514
4.971:542
4.971:580
4.971:642
4.971:668
4.971:673
4.971:650
4.971:615
4.971:573
4.972:553
4.972:531
4.974:516
4.974:506
4.974:455
4.975:423
4.975:414
4.975:412
4.975:412
4.975:403
4.975:400
4.979:400
4.979:403
4.979:478
4.979:587
4.994:615
4.994:598
4.994:547
4.994:519
5.000:496
5.000:498
5.000:508
5.000:505
5.000:488
5.000:434
5.000:397
5.000:383
5.000:384
5.004:397
5.004:406
5.004:421
5.004:426
5.004:440
5.004:462
5.004:508
5.004:557
5.004:580
5.004:568
5.007:538
5.007:503
5.007:478
5.007:455
5.007:427
5.007:399
5.008:342
5.023:342
5.023:287
5.023:250
5.028:228
5.028:231
5.028:247
5.028:289
5.028:335
5.028:386
5.028:432
5.028:507
5.028:543
5.028:538
5.031:510
5.031:471
5.031:445
5.032:423
5.032:403
5.032:384
5.032:369
5.032:312
5.032:262
5.036:236
5.037:233
5.037:238
5.037:240
5.037:262
5.037:285
5.037:312
5.037:348
5.056:423
5.057:470
5.057:475
5.057:457
5.057:432
5.057:407
5.057:379
5.057:358
5.057:347
5.060:357
5.060:326
5.061:295
5.061:287
5.061:296
5.061:312
5.061:314
5.061:323
5.061:329
5.061:352
5.065:382
5.065:452
5.065:506
5.065:514
5.065:492
5.065:459
5.065:433
5.065:407
5.065:393
5.069:383
5.069:394
5.084:394
5.084:353
5.084:311
5.084:291
5.084:295
5.084:312
5.084:325
5.086:347
5.089:358
5.089:375
5.089:400
5.089:467
5.089:525
5.089:533
5.089:511
5.089:481
5.090:458
5.090:433
5.094:419
5.094:409
5.094:411
5.094:372
5.094:329
5.094:315
5.094:318
5.094:330
5.094:341
5.094:364
5.097:378
5.097:401
5.114:427
5.114:489
5.114:549
5.114:560
5.114:538
5.118:506
5.118:482
5.118:458
5.118:444
5.118:428
5.118:432
5.118:404
5.119:359
5.119:337
5.119:338
5.123:357
5.123:371
5.123:388
5.123:399
5.123:415
5.123:434
5.123:484
5.123:542
5.123:562
5.126:555
5.126:530
5.126:509
5.126:481
5.126:464
5.126:452
5.142:452
5.142:455
5.142:423
5.143:374
5.147:353
5.147:346
5.147:363
5.147:384
5.147:397
5.147:403
5.147:419
5.147:446
5.147:496
5.147:566
5.151:580
5.151:569
5.151:536
5.151:516
5.151:491
5.151:480
5.151:465
5.151:459
5.152:438
5.155:393
5.156:372
5.156:376
5.156:389
5.156:398
5.156:421
5.157:433
5.171:446
5.175:473
5.175:514
5.176:576
5.176:591
5.176:577
5.176:550
5.176:527
5.176:501
5.176:489
5.176:482
5.179:486
5.179:469
5.179:424
5.179:400
5.179:399
5.179:412
5.179:428
5.180:445
5.180:459
5.183:472
5.183:485
5.183:512
5.183:583
5.183:609
5.183:592
5.183:550
5.183:513
5.184:471
5.184:445
5.204:445
5.204:426
5.205:423
5.205:410
5.205:364
5.205:340
5.205:344
5.205:357
5.205:375
5.205:392
5.208:408
5.208:423
5.208:448
5.208:485
5.208:554
5.208:584
5.209:583
5.209:564
5.209:539
5.212:508
5.212:488
5.212:476
5.212:469
5.212:455
5.212:408
5.212:374
5.212:373
5.212:387
5.212:408
5.216:428
5.232:445
5.232:461
5.232:487
5.232:531
5.232:604
5.232:635
5.232:633
5.237:613
5.237:593
5.237:571
5.237:550
5.237:534
5.237:519
5.237:496
5.237:426
5.237:366
5.241:335
5.241:319
5.242:326
5.242:337
5.242:363
5.242:379
5.242:405
5.242:447
5.242:527
5.242:571
5.244:576
5.244:561
5.244:529
5.245:503
5.261:503
5.261:484
5.261:472
5.261:462
5.261:462
5.261:416
5.264:379
5.264:370
5.264:377
5.264:396
5.266:409
5.266:429
5.266:440
5.266:459
5.266:487
5.270:559
5.270:600
5.270:601
5.270:584
5.270:559
5.270:534
5.270:507
5.270:484
5.270:468
5.270:465
5.274:425
5.274:384
5.274:369
5.274:372
5.274:386
5.289:392
5.289:412
5.294:429
5.294:454
5.294:489
5.294:562
5.294:615
5.294:625
5.294:607
5.294:576
5.295:544
5.295:518
5.298:493
5.298:467
5.298:453
5.298:397
5.298:346
5.298:322
5.298:326
5.298:351
5.299:375
5.299:403
5.301:421
5.301:441
5.302:471
5.302:537
5.302:593
5.302:605
5.302:586
5.302:557
5.318:557
5.318:537
5.322:515
5.322:502
5.322:492
5.322:493
5.322:449
5.322:403
5.322:389
5.322:392
5.322:412
5.327:422
5.327:440
5.327:455
5.327:474
5.327:503
5.327:566
5.327:618
5.327:617
5.327:592
5.327:553
5.331:522
5.331:491
5.331:475
5.331:457
5.331:452
5.331:413
5.331:366
5.331:349
5.331:348
5.351:370
5.351:389
5.351:413
5.351:423
5.351:438
5.351:462
5.351:515
5.351:570
5.355:584
5.356:574
5.356:549
5.356:527
5.356:504
5.356:492
5.356:481
5.356:486
5.356:456
5.360:411
5.360:397
5.360:399
5.360:412
5.360:423
5.360:441
5.360:455
5.360:476
5.360:504
5.360:553
5.363:608
5.363:613
5.363:594
5.380:594
5.380:556
5.380:525
5.380:505
5.380:496
5.380:489
5.380:499
5.384:472
5.384:421
5.384:396
5.384:400
5.384:416
5.384:430
5.385:447
5.385:457
5.385:468
5.385:487
5.388:540
5.388:613
5.388:634
5.388:620
5.388:588
5.388:560
5.388:529
5.388:501
5.388:486
5.392:495
5.392:475
5.392:429
5.392:397
5.408:384
5.408:393
5.409:406
5.409:421
5.413:432
5.413:454
5.413:489
5.413:543
5.413:619
5.413:646
5.413:639
5.413:611
5.413:584
5.417:551
5.417:533
5.417:525
5.417:529
5.417:512
5.417:461
5.417:434
5.417:429
5.417:438
5.417:454
5.421:480
5.421:496
5.421:508
5.421:530
5.421:563
5.422:623
5.422:633
5.437:633
5.437:615
5.437:590
5.442:565
5.442:533
5.442:510
5.442:495
5.442:489
5.442:478
5.442:436
5.442:411
5.442:410
5.446:420
5.446:437
5.446:453
5.446:472
5.446:486
5.446:515
5.446:548
5.446:620
5.447:652
5.447:641
5.450:603
5.450:562
5.450:528
5.450:500
5.450:468
5.450:443
5.451:424
5.451:378
5.470:349
5.470:348
5.470:361
5.471:382
5.471:401
5.471:418
5.471:435
5.471:458
5.471:481
5.474:551
5.474:581
5.474:572
5.475:550
5.475:519
5.475:492
5.475:467
5.475:455
5.475:449
5.475:450
5.478:411
5.478:377
5.478:369
5.479:377
5.479:391
5.479:400
5.479:418
5.480:435
5.480:455
5.482:485
5.482:558
5.499:558
5.499:596
5.499:594
5.499:573
5.499:540
5.499:504
5.499:476
5.499:457
5.503:444
5.503:444
5.503:401
5.503:365
5.503:358
5.503:366
5.503:389
5.503:403
5.503:422
5.503:433
5.507:455
5.507:478
5.507:539
5.507:575
5.507:577
5.507:558
5.507:527
5.507:500
5.507:475
5.511:458
5.511:440
5.511:434
5.527:395
5.527:358
5.527:353
5.527:367
5.527:391
5.532:408
5.532:434
5.532:454
5.532:476
5.532:503
5.532:570
5.532:609
5.532:603
5.532:574
5.532:534
5.536:494
5.536:468
5.536:451
5.536:448
5.536:453
5.536:415
5.536:377
5.536:371
5.536:376
5.539:390
5.539:396
5.539:411
5.539:423
5.539:444
5.539:469
5.555:469
5.555:529
5.555:573
5.555:574
5.560:545
5.560:504
5.560:474
5.560:442
5.560:415
5.560:394
5.560:393
5.560:353
5.560:316
5.560:318
5.564:347
5.564:399
5.564:439
5.565:478
5.565:514
5.565:557
5.565:611
5.565:697
5.565:787
5.568:835
5.568:863
5.568:893
5.568:929
5.568:962
5.569:990
5.569:989
5.584:988
5.589:988
5.589:988
5.589:988
5.589:987
5.590:986
5.590:985
5.590:984
5.590:983
5.590:983
5.590:982
5.593:981
5.593:981
5.593:980
5.593:981
5.593:982
5.593:983
5.593:985
5.594:987
5.594:988
5.597:986
5.597:817
5.597:638
5.597:473
5.597:329
5.597:238
5.597:174
5.597:152
5.597:152
5.597:182
5.617:182
5.617:233
5.617:310
5.617:400
5.617:441
5.617:447
5.617:434
5.618:422
5.618:397
5.618:388
5.622:387
5.622:397
5.622:370
5.622:310
5.622:269
5.622:256
5.622:265
5.622:273
5.622:286
5.626:290
5.626:306
5.626:334
5.626:377
5.626:441
5.626:461
5.626:453
5.626:430
5.626:403
5.626:372
5.630:357
5.646:342
5.646:340
5.646:319
5.646:272
5.646:250
5.646:251
5.646:266
5.650:282
5.650:304
5.650:320
5.650:339
5.650:362
5.650:403
5.650:471
5.650:491
5.650:484
5.655:463
5.655:440
5.655:414
5.655:399
5.656:387
5.656:378
5.656:358
5.656:309
5.656:284
5.656:281
5.658:295
5.658:311
5.658:327
5.658:341
5.675:341
5.675:361
5.675:391
5.675:436
5.675:516
5.675:549
5.679:544
5.679:517
5.679:489
5.679:459
5.679:443
5.679:429
5.679:421
5.679:403
5.679:361
5.683:334
5.683:324
5.683:322
5.683:325
5.683:333
5.683:344
5.683:360
5.683:384
5.683:418
5.683:494
5.687:528
5.687:525
5.687:505
5.687:484
5.687:460
5.703:444
5.703:434
5.707:429
5.707:425
5.708:378
5.708:344
5.708:337
5.708:349
5.708:368
5.708:384
5.708:398
5.708:405
5.712:427
5.712:463
5.712:540
5.712:574
5.712:571
5.712:550
5.712:527
5.712:501
5.712:486
5.712:477
5.716:473
5.716:468
5.716:418
5.716:384
5.716:378
5.716:389
5.716:412
5.716:430
5.732:430
5.732:452
5.735:471
5.735:502
5.735:532
5.735:603
5.735:637
5.735:628
5.735:594
5.735:549
5.735:518
5.741:496
5.741:484
5.741:470
5.741:465
5.741:417
5.741:380
5.741:376
5.741:389
5.741:411
5.741:424
5.744:449
5.744:468
5.744:496
5.744:528
5.744:596
5.744:634
5.744:626
5.744:603
5.744:572
5.764:552
5.764:538
5.764:526
5.764:516
5.764:517
5.765:466
5.765:424
5.765:410
5.769:415
5.769:431
5.769:444
5.769:471
5.769:491
5.769:512
5.769:532
5.769:595
5.769:634
5.772:644
5.772:626
5.772:602
5.772:587
5.774:573
5.774:563
5.774:560
5.774:565
5.774:524
5.774:485
5.777:470
5.777:476
5.777:492
5.793:492
5.794:495
5.794:511
5.794:521
5.794:540
5.794:562
5.794:614
5.798:663
5.798:667
5.798:648
5.798:613
5.798:581
5.798:559
5.798:549
5.798:542
5.798:547
5.802:507
5.802:461
5.802:445
5.802:447
5.802:466
5.802:476
5.802:496
5.802:512
5.802:533
5.802:560
5.806:621
5.806:675
5.806:685
5.806:667
5.821:642
5.821:622
5.821:594
5.822:574
5.827:561
5.827:562
5.827:524
5.827:477
5.827:460
5.827:456
5.827:461
5.827:462
5.827:475
5.831:483
5.831:495
5.831:511
5.831:561
5.831:619
5.831:631
5.831:619
5.831:589
5.831:565
5.831:537
5.835:517
5.835:503
5.835:501
5.835:462
5.835:412
5.835:392
5.836:386
5.850:386
5.850:393
5.850:403
5.855:418
5.855:429
5.855:441
5.855:463
5.855:506
5.855:562
5.855:580
5.855:572
5.855:544
5.859:514
5.859:481
5.859:460
5.859:438
5.859:427
5.859:390
5.859:332
5.859:299
5.859:291
5.859:304
5.864:319
5.864:339
5.864:352
5.864:368
5.864:395
5.864:437
5.864:499
5.864:510
5.884:494
5.884:470
5.884:442
5.884:408
5.884:387
5.884:367
5.884:361
5.884:332
5.884:282
5.887:253
5.889:248
5.889:264
5.889:286
5.889:306
5.889:314
5.889:322
5.889:347
5.889:392
5.889:460
5.891:490
5.891:485
5.891:461
5.891:437
5.892:406
5.892:390
5.892:384
5.892:382
5.892:363
5.895:314
5.895:287
5.912:287
5.912:284
5.912:287
5.912:293
5.912:306
5.912:316
5.912:332
5.912:358
5.917:405
5.917:480
5.917:506
5.917:497
5.917:474
5.917:449
5.917:421
5.917:404
5.917:391
5.917:387
5.921:375
5.922:327
5.922:295
5.922:291
5.922:301
5.922:320
5.922:341
5.922:360
5.922:375
5.924:399
5.924:437
5.924:512
5.941:543
5.941:532
5.941:507
5.941:482
5.941:454
5.945:435
5.946:425
5.946:425
5.946:415
5.946:373
5.946:337
5.946:329
5.946:338
5.947:355
5.947:369
5.949:384
5.949:394
5.949:410
5.950:439
5.950:510
5.950:547
5.950:546
5.950:534
5.950:515
5.953:487
5.953:463
5.954:439
5.954:419
5.954:402
5.954:352
5.970:352
5.970:316
5.970:311
5.970:321
5.974:347
5.974:361
5.974:379
5.974:398
5.974:421
5.974:447
5.974:518
5.975:558
5.975:558
5.975:537
5.978:506
5.978:480
5.978:464
5.978:456
5.978:445
5.978:442
5.978:399
5.979:363
5.979:358
5.982:370
5.982:389
5.982:402
5.982:420
5.982:433
5.982:450
5.982:473
5.998:531
6.002:565
6.002:564
6.002:555
6.002:532
6.002:500
6.004:469
6.004:451
6.004:442
6.004:443
6.004:397
6.007:356
6.007:345
6.007:355
6.007:376
6.007:388
6.007:405
6.007:414
6.007:438
6.007:467
6.011:536
6.011:588
6.011:594
6.011:574
6.011:547
6.011:525
6.011:507
6.011:491
6.012:477
6.012:476
6.031:476
6.031:430
6.031:382
6.031:365
6.031:366
6.031:382
6.031:395
6.031:416
6.032:432
6.032:451
6.034:474
6.034:535
6.034:586
6.036:593
6.036:578
6.036:546
6.036:517
6.036:491
6.036:482
6.039:476
6.039:481
6.039:441
6.039:394
6.039:378
6.039:383
6.040:399
6.040:407
6.040:427
6.040:440
6.043:455
6.060:474
6.060:527
6.060:578
6.060:594
6.060:580
6.060:550
6.063:520
6.063:486
6.064:467
6.064:455
6.064:459
6.064:424
6.064:382
6.064:363
6.064:362
6.066:374
6.068:381
6.068:401
6.068:410
6.068:427
6.069:452
6.069:512
6.069:575
6.069:594
6.069:579
6.069:550
6.072:528
6.072:503
6.072:489
6.072:483
6.088:483
6.088:481
6.088:442
6.088:395
6.088:371
6.088:369
6.092:384
6.092:401
6.092:431
6.092:448
6.092:471
6.092:494
6.092:549
6.092:608
6.092:614
6.097:594
6.097:564
6.097:537
6.097:506
6.097:486
6.097:475
6.097:473
6.097:439
6.097:392
6.097:366
6.100:354
6.100:358
6.100:361
6.100:378
6.100:394
6.117:418
6.117:448
6.120:499
6.120:569
6.121:588
6.121:575
6.121:544
6.121:519
6.121:492
6.121:480
6.121:470
6.121:469
6.125:444
6.125:398
6.125:379
6.126:379
6.126:389
6.126:394
6.126:410
6.126:423
6.126:435
6.130:456
6.130:497
6.130:564
6.130:584
6.130:575
6.130:553
6.130:532
6.130:507
6.130:489
6.145:489
6.145:475
6.149:471
6.149:450
6.150:397
6.150:366
6.150:360
6.150:375
6.150:394
6.150:420
6.150:433
6.154:447
6.154:466
6.154:503
6.154:575
6.154:600
6.154:597
6.154:574
6.154:553
6.155:533
6.155:515
6.157:497
6.157:492
6.157:479
6.157:427
6.157:386
6.157:370
6.157:369
6.158:378
6.158:395
6.178:412
6.179:427
6.179:454
6.179:491
6.179:562
6.179:589
6.179:573
6.179:546
6.183:517
6.183:484
6.183:466
6.183:459
6.183:456
6.183:450
6.183:406
6.183:376
6.183:372
6.187:380
6.187:398
6.187:414
6.187:431
6.188:441
6.188:460
6.188:490
6.188:560
6.188:596
6.188:593
6.191:577
6.191:553
6.191:524
6.207:524
6.207:503
6.207:488
6.207:478
6.207:469
6.208:419
6.208:381
6.211:376
6.211:381
6.211:399
6.211:409
6.211:426
6.211:438
6.211:463
6.211:495
6.211:571
6.216:611
6.216:610
6.216:588
6.216:558
6.216:531
6.216:512
6.216:503
6.216:493
6.216:488
6.216:440
6.219:393
6.219:377
6.219:379
6.220:389
6.235:392
6.236:405
6.236:419
6.236:437
6.239:465
6.239:538
6.240:581
6.240:583
6.240:561
6.240:539
6.240:520
6.240:499
6.240:486
6.244:481
6.244:484
6.244:437
6.244:399
6.244:387
6.244:395
6.244:410
6.245:418
6.245:440
6.245:455
6.248:479
6.248:509
6.248:577
6.248:627
6.248:638
6.248:622
6.248:596
6.264:596
6.264:568
6.265:531
6.269:507
6.269:490
6.269:488
6.269:444
6.269:395
6.269:374
6.269:378
6.269:404
6.269:424
6.272:449
6.272:462
6.272:473
6.272:495
6.272:566
6.272:614
6.272:613
6.272:587
6.273:549
6.273:519
6.277:490
6.277:476
6.277:473
6.277:478
6.277:439
6.277:393
6.277:376
6.277:386
6.297:411
6.297:428
6.297:452
6.297:455
6.297:474
6.297:507
6.297:574
6.297:632
6.298:644
6.301:631
6.301:605
6.301:584
6.301:559
6.302:549
6.302:539
6.302:538
6.302:499
6.302:456
6.302:439
6.305:440
6.306:456
6.306:466
6.306:490
6.306:502
6.306:520
6.306:540
6.306:587
6.306:642
6.309:646
6.309:620
6.325:620
6.325:583
6.326:559
6.326:536
6.326:523
6.326:511
6.326:510
6.326:475
6.330:428
6.330:407
6.330:412
6.330:428
6.330:441
6.330:460
6.330:469
6.330:479
6.330:495
6.330:533
6.334:587
6.334:596
6.334:580
6.334:546
6.334:520
6.334:488
6.334:469
6.335:459
6.335:457
6.338:426
6.338:381
6.338:359
6.354:357
6.354:371
6.355:385
6.355:407
6.355:418
6.359:433
6.359:464
6.359:512
6.359:581
6.359:596
6.359:581
6.359:555
6.359:531
6.360:500
6.360:482
6.362:467
6.362:467
6.362:449
6.362:403
6.362:375
6.363:375
6.363:386
6.363:393
6.363:414
6.367:432
6.367:444
6.367:467
6.367:512
6.367:582
6.367:605
6.383:605
6.383:591
6.383:562
6.383:535
6.386:506
6.388:488
6.388:473
6.388:465
6.388:441
6.388:390
6.388:363
6.388:362
6.389:374
6.389:389
6.392:406
6.392:421
6.392:439
6.392:464
6.392:507
6.392:582
6.392:609
6.393:601
6.393:570
6.395:536
6.395:493
6.395:459
6.396:432
6.396:423
6.396:407
6.396:349
6.411:319
6.416:322
6.416:340
6.416:365
6.416:388
6.416:409
6.416:428
6.416:456
6.416:494
6.416:566
6.420:594
6.420:586
6.420:561
6.421:536
6.421:509
6.421:491
6.421:476
6.421:470
6.421:464
6.421:411
6.424:377
6.424:373
6.424:375
6.424:388
6.424:394
6.424:405
6.425:419
6.425:439
6.425:468
6.425:544
6.445:544
6.445:585
6.445:588
6.445:570
6.445:542
6.445:509
6.445:480
6.445:457
6.445:442
6.445:431
6.449:379
6.449:335
6.449:321
6.449:322
6.449:334
6.449:342
6.449:367
6.449:394
6.449:429
6.453:478
6.453:568
6.453:631
6.453:655
6.453:656
6.454:647
6.454:638
6.454:637
6.454:648
6.454:672
6.457:716
6.472:722
6.472:736
6.472:786
6.472:853
6.472:922
6.472:990
6.478:989
6.478:988
6.478:986
6.478:986
6.478:984
6.478:983
6.478:983
6.478:981
6.478:981
6.478:981
6.482:981
6.482:981
6.482:982
6.482:981
6.482:983
6.482:984
6.482:986
6.482:987
6.482:988
6.486:989
6.486:907
6.486:791
6.486:683
6.486:566
6.502:566
6.502:499
6.502:450
6.502:389
6.502:333
6.502:295
6.506:286
6.506:285
6.506:298
6.506:313
6.506:327
6.506:294
6.506:261
6.506:253
6.506:264
6.511:290
6.511:309
6.511:339
6.511:354
6.511:368
6.511:385
6.511:446
6.511:492
6.511:486
6.511:454
6.514:413
6.514:379
6.514:353
6.514:341
6.514:332
6.530:337
6.530:297
6.535:254
6.535:242
6.535:245
6.535:263
6.535:271
6.535:294
6.535:311
6.535:327
6.535:354
6.536:416
6.539:476
6.539:489
6.539:476
6.539:444
6.539:412
6.539:377
6.539:362
6.539:356
6.539:363
6.543:328
6.543:284
6.543:267
6.543:269
6.543:288
6.543:299
6.543:323
6.543:337
6.543:358
6.559:358
6.564:387
6.564:442
6.564:508
6.564:527
6.564:515
6.564:490
6.564:468
6.564:444
6.565:429
6.565:421
6.568:424
6.568:393
6.568:346
6.568:320
6.568:311
6.568:330
6.568:334
6.568:346
6.569:352
6.569:360
6.572:384
6.572:436
6.572:501
6.572:519
6.572:512
6.572:490
6.572:468
6.572:442
6.572:430
6.592:423
6.592:427
6.592:401
6.592:354
6.592:332
6.592:331
6.592:346
6.592:363
6.596:391
6.596:411
6.596:426
6.596:452
6.596:501
6.596:567
6.596:586
6.596:582
6.596:561
6.600:538
6.600:507
6.600:484
6.600:457
6.600:442
6.600:415
6.600:367
6.600:340
6.600:339
6.600:355
6.603:370
6.604:391
6.604:404
6.620:404
6.620:420
6.620:444
6.620:484
6.620:557
6.620:590
6.620:589
6.624:562
6.624:536
6.625:506
6.625:489
6.625:480
6.625:477
6.625:458
6.625:412
6.625:388
6.629:388
6.629:398
6.629:414
6.629:432
6.629:449
6.629:466
6.629:489
6.629:525
6.630:597
6.630:623
6.633:615
6.633:591
6.633:565
6.633:535
6.649:519
6.649:508
6.649:504
6.649:493
6.654:450
6.654:418
6.654:414
6.654:425
6.654:445
6.654:462
6.654:478
6.654:490
6.654:500
6.658:530
6.658:606
6.658:639
6.658:645
6.658:632
6.658:604
6.658:571
6.658:552
6.658:538
6.658:530
6.662:524
6.662:478
6.662:445
6.662:440
6.662:449
6.662:465
6.662:479
6.678:479
6.678:496
6.678:511
6.682:538
6.682:573
6.682:646
6.682:680
6.682:675
6.682:652
6.682:627
6.682:603
6.682:579
6.686:563
6.687:558
6.687:555
6.687:508
6.688:473
6.688:468
6.688:476
6.688:499
6.688:512
6.688:531
6.690:545
6.690:567
6.690:599
6.690:676
6.690:716
6.690:713
6.690:689
6.690:652
6.711:616
6.711:588
6.711:565
6.711:540
6.711:529
6.711:470
6.711:427
6.711:424
6.711:437
6.715:457
6.715:472
6.715:494
6.715:508
6.715:523
6.715:548
6.715:618
6.715:661
6.715:665
6.715:645
6.719:613
6.719:583
6.719:554
6.719:533
6.719:518
6.719:514
6.719:463
6.719:418
6.719:401
6.722:401
6.722:414
6.739:414
6.739:423
6.739:439
6.739:446
6.739:467
6.739:492
6.739:556
6.739:598
6.744:592
6.744:570
6.744:544
6.744:511
6.744:471
6.744:443
6.744:428
6.744:425
6.744:378
6.744:330
6.748:312
6.748:317
6.748:331
6.748:340
6.748:356
6.748:369
6.748:385
6.748:411
6.748:471
6.752:517
6.752:521
6.752:498
6.767:465
6.767:443
6.767:421
6.767:408
6.767:395
6.772:395
6.772:353
6.772:308
6.772:287
6.772:285
6.772:303
6.772:312
6.772:334
6.772:345
6.773:360
6.776:384
6.776:439
6.776:496
6.776:506
6.776:492
6.776:467
6.776:444
6.777:417
6.777:398
6.780:383
6.780:386
6.780:351
6.780:307
6.780:285
6.780:277
6.796:277
6.796:286
6.796:294
6.796:312
6.801:325
6.801:347
6.801:377
6.801:434
6.801:497
6.801:513
6.801:498
6.801:467
6.801:449
6.801:427
6.805:417
6.805:404
6.805:401
6.805:362
6.805:306
6.805:282
6.805:284
6.805:294
6.805:298
6.809:316
6.809:328
6.809:340
6.809:365
6.809:419
6.809:490
6.809:512
6.825:504
6.830:480
6.830:457
6.830:430
6.830:413
6.830:399
6.830:396
6.830:371
6.830:336
6.830:319
6.834:315
6.834:328
6.834:340
6.834:354
6.834:357
6.834:370
6.834:398
6.834:447
6.834:508
6.834:528
6.838:522
6.838:501
6.838:481
6.838:450
6.838:436
6.838:424
6.838:421
6.838:404
6.838:355
6.838:326
6.858:326
6.858:319
6.858:330
6.858:348
6.858:369
6.858:385
6.858:401
6.858:424
6.858:466
6.858:538
6.861:564
6.861:560
6.861:536
6.862:512
6.862:484
6.862:467
6.862:452
6.862:444
6.862:427
6.867:381
6.867:353
6.867:356
6.867:368
6.867:385
6.867:404
6.867:424
6.867:440
6.867:463
6.867:497
6.870:563
6.887:579
6.887:563
6.887:527
6.887:490
6.887:462
6.887:451
6.891:445
6.891:440
6.891:424
6.891:373
6.891:341
6.891:334
6.891:344
6.891:366
6.891:387
6.891:406
6.895:420
6.895:444
6.895:483
6.895:563
6.895:594
6.895:590
6.895:570
6.895:546
6.895:514
6.899:496
6.899:479
6.899:474
6.899:465
6.899:410
6.914:410
6.914:371
6.914:360
6.914:370
6.914:397
6.914:415
6.919:424
6.919:428
6.920:442
6.920:467
6.920:544
6.920:579
6.920:575
6.920:557
6.920:535
6.924:511
6.924:493
6.924:478
6.924:467
6.924:463
6.924:421
6.924:388
6.925:378
6.925:384
6.925:401
6.927:414
6.928:431
6.928:445
6.928:462
6.928:483
6.943:545
6.943:581
6.948:583
6.948:563
6.948:540
6.948:515
6.948:492
6.948:481
6.948:473
6.948:470
6.948:426
6.949:393
6.953:384
6.953:385
6.953:394
6.953:403
6.953:422
6.954:436
6.954:458
6.954:482
6.955:551
6.957:596
6.957:597
6.957:576
6.957:549
6.957:522
6.957:496
6.957:484
6.957:480
6.957:478
6.972:478
6.977:436
6.977:396
6.977:388
6.977:397
6.977:407
6.977:405
6.977:417
6.977:423
6.977:434
6.977:456
6.981:521
6.981:568
6.981:574
6.981:555
6.981:530
6.981:507
6.981:487
6.981:475
6.981:466
6.985:471
6.985:427
6.985:377
6.986:359
6.986:358
6.986:364
6.986:377
6.986:411
6.986:432
6.986:449
7.005:471
7.005:535
7.005:590
7.006:600
7.006:580
7.006:551
7.006:531
7.006:504
7.010:482
7.010:473
7.010:474
7.010:429
7.010:379
7.010:361
7.010:362
7.010:376
7.011:388
7.014:411
7.014:429
7.014:452
7.014:473
7.015:530
7.015:583
7.015:596
7.015:585
7.015:557
7.015:529
7.018:509
7.018:497
7.018:479
7.034:479
7.034:474
7.034:433
7.034:391
7.034:377
7.034:384
7.034:403
7.038:411
7.038:424
7.038:432
7.038:447
7.038:471
7.038:524
7.038:584
7.038:601
7.038:589
7.043:560
7.043:535
7.043:503
7.043:480
7.043:465
7.043:468
7.043:439
7.043:393
7.043:371
7.043:367
7.047:379
7.047:392
7.047:414
7.047:427
7.062:447
7.062:469
7.062:513
7.062:573
7.066:592
7.066:580
7.066:557
7.066:538
7.066:512
7.066:500
7.066:487
7.066:483
7.066:457
7.071:407
7.071:382
7.071:380
7.071:393
7.071:405
7.071:428
7.071:446
7.071:463
7.071:486
7.071:534
7.075:595
7.075:610
7.075:598
7.075:570
7.075:553
7.075:526
7.075:508
7.091:508
7.091:489
7.092:485
7.096:455
7.096:394
7.096:359
7.096:352
7.096:365
7.096:372
7.096:385
7.096:393
7.096:408
7.100:435
7.100:482
7.100:549
7.100:572
7.100:572
7.100:549
7.100:527
7.100:501
7.100:488
7.100:469
7.103:458
7.103:439
7.103:392
7.104:369
7.104:368
7.104:379
7.104:392
7.104:408
7.124:418
7.125:435
7.125:467
7.125:508
7.125:580
7.125:604
7.125:596
7.125:566
7.125:542
7.129:513
7.129:497
7.129:485
7.129:477
7.129:462
7.129:415
7.129:387
7.130:382
7.130:389
7.130:408
7.132:425
7.133:440
7.133:457
7.133:481
7.133:513
7.133:583
7.133:614
7.133:608
7.133:583
7.136:553
7.136:525
7.152:525
7.152:506
7.152:490
7.152:476
7.152:461
7.154:410
7.154:368
7.154:358
7.157:373
7.157:399
7.157:420
7.157:441
7.157:458
7.157:477
7.157:506
7.157:576
7.157:613
7.157:613
7.161:595
7.161:569
7.161:544
7.161:525
7.161:509
7.161:498
7.161:490
7.161:436
7.162:388
7.164:370
7.165:366
7.165:375
7.181:383
7.181:406
7.181:425
7.181:448
7.181:475
7.186:551
7.186:600
7.186:605
7.187:577
7.187:550
7.187:527
7.187:505
7.187:488
7.187:474
7.187:472
7.189:423
7.190:370
7.190:365
7.190:378
7.190:399
7.190:406
7.190:424
7.190:443
7.190:465
7.194:498
7.194:571
7.194:621
7.194:623
7.194:603
7.194:577
7.210:577
7.210:546
7.210:523
7.210:502
7.215:489
7.215:487
7.215:444
7.215:403
7.215:397
7.216:412
7.216:437
7.216:452
7.216:474
7.216:486
7.218:504
7.219:532
7.219:599
7.219:650
7.219:648
7.219:626
7.219:594
7.219:568
7.220:550
7.222:542
7.222:529
7.222:528
7.222:484
7.222:440
7.222:427
7.222:431
7.239:450
7.243:461
7.243:482
7.243:498
7.243:515
7.243:544
7.244:615
7.244:667
7.244:671
7.244:648
7.247:613
7.247:579
7.247:552
7.247:534
7.247:518
7.247:513
7.247:461
7.247:409
7.247:386
7.247:381
7.251:394
7.251:411
7.251:438
7.251:450
7.251:465
7.251:488
7.251:552
7.251:607
7.251:613
7.251:592
7.272:592
7.272:561
7.272:530
7.272:499
7.272:472
7.272:446
7.272:448
7.272:416
7.272:374
7.272:359
7.275:365
7.275:381
7.275:388
7.275:403
7.275:415
7.276:439
7.276:468
7.276:519
7.276:578
7.280:587
7.280:576
7.280:549
7.280:522
7.280:488
7.280:468
7.280:453
7.280:453
7.280:424
7.280:375
7.284:359
7.300:363
7.300:379
7.300:385
7.300:407
7.301:419
7.301:433
7.304:459
7.304:511
7.304:580
7.304:599
7.304:584
7.304:561
7.304:538
7.304:506
7.304:487
7.304:471
7.308:469
7.308:438
7.308:386
7.308:359
7.308:363
7.308:382
7.309:398
7.309:419
7.309:433
7.313:443
7.313:457
7.313:490
7.313:550
7.313:567
7.328:567
7.328:561
7.328:542
7.328:518
7.329:495
7.333:480
7.333:468
7.333:466
7.333:437
7.333:384
7.333:360
7.333:367
7.333:382
7.333:390
7.333:403
7.337:418
7.337:435
7.337:460
7.337:507
7.337:579
7.337:604
7.337:594
7.337:569
7.337:546
7.337:515
7.341:496
7.341:482
7.341:478
7.341:454
7.341:395
7.357:361
7.357:365
7.362:372
7.362:382
7.362:397
7.362:405
7.362:418
7.362:438
7.362:473
7.362:548
7.362:582
7.362:581
7.366:559
7.366:527
7.366:491
7.366:474
7.366:461
7.366:457
7.366:444
7.367:386
7.367:348
7.369:343
7.370:351
7.370:359
7.370:364
7.371:373
7.371:388
7.371:414
7.371:453
7.371:540
7.386:540
7.391:589
7.391:601
7.391:605
7.391:613
7.391:611
7.391:616
7.391:636
7.392:657
7.392:674
7.392:664
7.395:671
7.395:708
7.395:758
7.396:831
7.396:899
7.396:964
7.396:989
7.396:989
7.396:987
7.399:986
7.399:985
7.399:984
7.399:984
7.399:983
7.399:983
7.400:983
7.400:983
7.400:983
7.400:983
7.419:984
7.419:984
7.419:986
7.419:986
7.419:987
7.419:988
7.419:990
7.419:922
7.423:823
7.423:752
7.423:714
7.423:618
7.423:500
7.423:398
7.423:318
7.423:268
7.424:243
7.428:243
7.428:254
7.428:279
7.428:255
7.428:228
7.428:226
7.429:241
7.429:254
7.429:269
7.429:295
7.431:321
7.431:345
7.431:379
7.447:379
7.447:456
7.448:502
7.448:510
7.448:493
7.448:469
7.448:443
7.453:406
7.454:383
7.454:368
7.454:366
7.454:327
7.454:285
7.455:271
7.455:278
7.455:293
7.456:302
7.456:319
7.456:330
7.456:351
7.456:373
7.456:434
7.457:483
7.457:495
7.457:486
7.457:456
7.460:434
7.460:413
7.460:396
7.460:389
7.476:385
7.476:342
7.476:300
7.476:284
7.480:294
7.480:315
7.480:331
7.480:354
7.480:368
7.480:386
7.480:409
7.481:474
7.481:523
7.484:523
7.484:490
7.484:454
7.484:430
7.485:403
7.485:389
7.485:391
7.485:396
7.486:349
7.486:305
7.488:295
7.488:303
7.488:323
7.488:341
7.488:366
7.488:384
7.488:404
7.505:404
7.505:426
7.505:480
7.509:528
7.509:542
7.509:530
7.509:504
7.509:483
7.509:454
7.509:436
7.510:427
7.510:434
7.513:400
7.513:357
7.513:333
7.513:330
7.513:348
7.513:365
7.513:395
7.513:413
7.513:436
7.514:456
7.518:505
7.518:570
7.518:582
7.518:569
7.518:541
7.518:518
7.518:489
7.518:474
7.537:467
7.537:473
7.537:437
7.537:389
7.538:372
7.538:377
7.538:392
7.538:403
7.538:421
7.542:440
7.542:457
7.542:483
7.542:537
7.542:598
7.542:610
7.542:596
7.542:574
7.542:562
7.542:537
7.546:511
7.546:490
7.546:494
7.546:469
7.546:425
7.546:403
7.546:404
7.546:420
7.546:440
7.550:460
7.550:477
7.566:477
7.566:489
7.566:508
7.566:555
7.566:619
7.567:637
7.567:628
7.567:594
7.570:556
7.570:527
7.570:510
7.571:496
7.571:504
7.571:484
7.571:437
7.571:417
7.571:415
7.571:430
7.574:452
7.574:474
7.574:491
7.574:504
7.574:524
7.574:558
7.574:623
7.574:642
7.576:635
7.579:611
7.579:595
7.579:570
7.595:553
7.595:537
7.595:531
7.595:515
7.595:468
7.600:444
7.600:440
7.600:448
7.600:462
7.600:479
7.600:497
7.600:521
7.601:552
7.601:599
7.601:669
7.604:693
7.604:683
7.604:653
7.604:627
7.604:598
7.604:579
7.604:570
7.604:568
7.604:549
7.608:506
7.608:472
7.608:469
7.608:483
7.608:503
7.608:527
7.624:527
7.624:545
7.624:556
7.624:577
7.628:612
7.628:687
7.628:712
7.628:699
7.628:670
7.628:646
7.628:622
7.628:603
7.628:591
7.628:587
7.631:574
7.631:524
7.632:490
7.632:481
7.632:489
7.632:496
7.632:510
7.632:532
7.632:545
7.636:565
7.636:598
7.636:670
7.636:690
7.636:682
7.636:657
7.637:627
7.652:598
7.657:575
7.657:558
7.657:539
7.657:528
7.657:479
7.657:443
7.657:433
7.657:436
7.658:444
7.661:445
7.661:453
7.661:463
7.661:485
7.661:515
7.661:590
7.661:629
7.661:615
7.662:583
7.662:543
7.665:506
7.665:480
7.665:458
7.666:454
7.666:454
7.666:401
7.666:353
7.666:337
7.666:349
7.669:368
7.685:368
7.686:370
7.686:386
7.686:396
7.686:412
7.686:434
7.686:491
7.686:522
7.686:514
7.690:492
7.690:458
7.690:431
7.690:408
7.690:395
7.690:378
7.690:371
7.690:325
7.690:285
7.690:272
7.694:277
7.694:288
7.694:306
7.694:330
7.694:341
7.694:358
7.694:383
7.694:447
7.694:497
7.694:500
7.697:482
7.713:451
7.713:420
7.713:397
7.713:384
7.713:371
7.713:370
7.718:326
7.718:285
7.718:263
7.718:262
7.718:270
7.718:281
7.718:309
7.718:327
7.718:345
7.720:365
7.722:432
7.722:484
7.722:493
7.722:481
7.722:449
7.722:420
7.722:398
7.722:383
7.722:370
7.726:367
7.726:322
7.726:285
7.726:282
7.726:288
7.742:288
7.742:301
7.742:314
7.742:337
7.742:350
7.747:369
7.747:393
7.747:455
7.747:505
7.747:515
7.747:503
7.747:473
7.747:444
7.747:419
7.747:407
7.751:393
7.751:396
7.751:356
7.751:307
7.751:280
7.751:279
7.751:293
7.751:306
7.751:340
7.755:368
7.755:388
7.755:408
7.755:468
7.755:529
7.755:543
7.771:527
7.771:501
7.775:479
7.775:455
7.775:435
7.775:421
7.775:418
7.775:383
7.776:343
7.776:324
7.776:321
7.776:337
7.780:352
7.780:384
7.780:399
7.780:410
7.780:430
7.780:475
7.780:528
7.780:538
7.780:530
7.783:504
7.783:480
7.783:451
7.783:437
7.783:423
7.783:426
7.783:401
7.783:358
7.783:337
7.799:337
7.804:342
7.804:359
7.804:368
7.804:394
7.804:417
7.804:436
7.804:461
7.804:513
7.804:577
7.804:590
7.808:569
7.808:527
7.808:498
7.808:466
7.808:443
7.808:432
7.808:430
7.808:407
7.808:353
7.812:323
7.812:324
7.812:341
7.812:362
7.812:390
7.812:409
7.812:427
7.812:452
7.812:497
7.812:567
7.832:592
7.832:585
7.832:557
7.832:525
7.832:492
7.832:475
7.832:459
7.832:460
7.837:440
7.837:388
7.837:359
7.837:354
7.837:362
7.837:377
7.837:395
7.837:415
7.837:439
7.841:463
7.841:501
7.841:576
7.841:599
7.841:591
7.841:566
7.841:537
7.841:508
7.841:492
7.842:483
7.845:479
7.845:458
7.845:412
7.861:412
7.861:380
7.861:369
7.861:378
7.861:389
7.861:409
7.861:427
7.866:441
7.866:473
7.866:503
7.866:561
7.866:585
7.866:576
7.866:558
7.866:540
7.866:524
7.870:497
7.870:474
7.870:472
7.871:463
7.871:416
7.871:390
7.871:383
7.871:392
7.871:412
7.871:428
7.874:445
7.874:459
7.874:480
7.874:511
7.889:577
7.890:598
7.890:584
7.890:553
7.894:526
7.894:502
7.894:488
7.894:475
7.894:468
7.894:457
7.894:405
7.895:374
7.895:377
7.898:388
7.898:400
7.898:408
7.899:417
7.899:427
7.899:446
7.899:474
7.899:542
7.899:575
7.899:575
7.902:558
7.902:535
7.902:507
7.902:484
7.902:466
7.902:456
7.903:451
7.918:451
7.918:396
7.918:357
7.922:352
7.922:364
7.922:389
7.922:403
7.922:421
7.922:435
7.922:459
7.922:487
7.922:553
7.927:593
7.927:592
7.927:569
7.927:541
7.927:515
7.927:487
7.927:469
7.927:463
7.927:465
7.927:414
7.931:372
7.931:365
7.931:368
7.931:383
7.931:397
7.931:420
7.931:438
7.931:458
7.951:488
7.951:553
7.951:595
7.951:598
7.951:583
7.952:555
7.952:527
7.952:505
7.952:496
7.956:484
7.956:477
7.956:431
7.956:388
7.956:377
7.956:388
7.956:406
7.956:420
7.956:445
7.956:453
7.960:473
7.960:503
7.960:571
7.960:610
7.960:607
7.960:583
7.960:553
7.960:518
7.960:482
7.964:479
7.964:484
7.980:484
7.980:488
7.980:440
7.980:393
7.980:378
7.980:384
7.980:396
7.980:407
7.984:424
7.984:429
7.984:439
7.984:454
7.984:505
7.984:559
7.985:569
7.985:548
7.985:515
7.985:494
7.987:476
7.988:466
7.988:464
7.988:468
7.988:427
7.988:383
7.988:370
7.988:369
7.988:389
7.992:404
7.992:430
7.992:447
8.008:465
8.008:487
8.009:542
8.009:603
8.009:620
8.013:604
8.013:571
8.013:547
8.013:518
8.013:495
8.013:481
8.013:482
8.013:434
8.013:382
8.017:368
8.017:372
8.017:388
8.017:402
8.017:425
8.017:442
8.017:461
8.017:485
8.017:542
8.017:608
8.021:627
8.021:616
8.021:585
8.021:557
8.021:527
8.021:513
8.036:513
8.036:501
8.036:501
8.036:466
8.042:413
8.042:387
8.042:378
8.042:394
8.042:404
8.042:427
8.042:448
8.042:467
8.042:495
8.042:553
8.045:621
8.045:636
8.045:620
8.045:585
8.045:559
8.045:530
8.045:520
8.045:511
8.045:517
8.050:490
8.050:439
8.050:408
8.050:408
8.050:425
8.050:435
8.050:454
8.066:476
8.070:495
8.070:517
8.070:565
8.070:634
8.070:651
8.070:641
8.070:614
8.070:586
8.070:553
8.074:533
8.075:514
8.075:510
8.075:480
8.075:429
8.075:405
8.075:404
8.075:412
8.075:424
8.075:446
8.079:464
8.079:483
8.079:508
8.079:548
8.079:615
8.079:627
8.079:614
8.079:585
8.079:557
8.082:522
8.099:522
8.099:497
8.099:469
8.099:456
8.099:427
8.099:378
8.099:355
8.099:348
8.099:355
8.102:371
8.103:389
8.103:403
8.103:421
8.103:448
8.103:485
8.103:554
8.103:580
8.103:577
8.104:557
8.107:534
8.107:501
8.107:478
8.107:468
8.107:467
8.107:453
8.107:402
8.107:371
8.108:369
8.108:386
8.110:407
8.127:432
8.127:451
8.127:460
8.128:482
8.128:515
8.128:581
8.132:607
8.132:603
8.132:569
8.132:532
8.132:493
8.132:471
8.132:453
8.132:441
8.132:427
8.132:380
8.135:349
8.135:351
8.136:366
8.136:386
8.136:397
8.136:413
8.136:433
8.136:462
8.136:490
8.140:553
8.140:583
8.140:578
8.140:552
8.140:524
8.156:524
8.156:492
8.156:470
8.156:450
8.156:436
8.161:424
8.161:373
8.161:339
8.161:334
8.161:351
8.161:372
8.161:384
8.161:398
8.161:413
8.161:435
8.165:471
8.165:545
8.165:588
8.165:591
8.165:570
8.165:542
8.165:516
8.165:489
8.165:460
8.168:436
8.169:429
8.169:390
8.169:361
8.169:361
8.169:369
8.184:397
8.184:408
8.189:422
8.189:435
8.189:454
8.189:477
8.189:540
8.189:584
8.189:592
8.189:569
8.189:540
8.189:512
8.192:490
8.192:471
8.192:455
8.192:450
8.192:407
8.192:369
8.192:357
8.192:365
8.192:376
8.197:380
8.197:397
8.197:412
8.197:437
8.197:473
8.197:550
8.197:611
8.197:631
8.197:622
8.212:622
8.218:620
8.218:620
8.218:612
8.218:621
8.218:640
8.218:673
8.218:669
8.219:669
8.219:698
8.219:745
8.222:806
8.222:873
8.222:952
8.222:989
8.222:989
8.222:988
8.222:987
8.222:985
8.222:985
8.226:985
8.226:984
8.226:984
8.226:984
8.226:984
8.226:984
8.226:984
8.226:985
8.226:986
8.226:987
8.246:989
8.246:989
8.246:973
8.246:906
8.246:820
8.246:747
8.246:679
8.246:630
8.250:552
8.250:458
8.250:383
8.250:321
8.250:286
8.250:265
8.250:266
8.250:267
8.250:268
8.254:229
8.254:193
8.254:185
8.254:192
8.254:213
8.254:228
8.254:251
8.254:277
8.254:308
8.255:335
8.257:403
8.258:477
8.258:499
8.274:499
8.274:494
8.274:473
8.274:453
8.274:429
8.274:412
8.274:397
8.279:400
8.279:368
8.279:326
8.279:308
8.279:306
8.279:317
8.279:325
8.279:344
8.279:347
8.283:360
8.283:386
8.283:439
8.283:498
8.283:512
8.283:502
8.283:482
8.283:465
8.283:437
8.283:419
8.287:407
8.287:411
8.287:386
8.287:346
8.302:324
8.303:324
8.303:343
8.308:354
8.308:377
8.308:391
8.308:407
8.308:431
8.308:473
8.308:520
8.308:522
8.308:501
8.308:474
8.312:462
8.312:439
8.312:422
8.312:414
8.312:422
8.312:403
8.312:357
8.312:327
8.312:316
8.312:320
8.315:333
8.315:359
8.315:377
8.315:395
8.315:423
8.315:465
8.315:531
8.332:531
8.332:548
8.332:535
8.336:513
8.336:491
8.336:465
8.336:452
8.336:441
8.336:439
8.336:418
8.336:372
8.336:349
8.341:351
8.341:365
8.341:380
8.341:399
8.341:418
8.341:436
8.341:461
8.341:500
8.341:574
8.341:597
8.345:593
8.345:567
8.345:539
8.345:510
8.345:490
8.345:477
8.345:473
8.345:452
8.365:400
8.365:368
8.365:365
8.365:375
8.365:397
8.365:419
8.365:444
8.365:462
8.365:489
8.369:525
8.369:592
8.369:615
8.369:606
8.369:577
8.369:546
8.369:514
8.369:498
8.369:491
8.373:492
8.373:485
8.373:438
8.373:408
8.373:405
8.373:411
8.373:431
8.373:452
8.373:467
8.373:480
8.377:503
8.377:531
8.393:531
8.393:603
8.393:640
8.393:642
8.393:625
8.393:598
8.393:567
8.393:546
8.398:530
8.398:530
8.398:527
8.398:476
8.398:431
8.398:412
8.398:416
8.398:439
8.398:458
8.398:484
8.401:507
8.402:533
8.402:562
8.402:632
8.402:663
8.402:661
8.402:643
8.402:622
8.402:595
8.406:568
8.406:549
8.406:542
8.421:539
8.421:494
8.422:464
8.422:458
8.422:469
8.427:490
8.427:506
8.427:523
8.427:540
8.427:565
8.427:595
8.427:667
8.427:710
8.427:709
8.431:688
8.431:657
8.431:631
8.431:611
8.431:601
8.431:601
8.431:602
8.431:551
8.431:505
8.431:494
8.435:496
8.435:507
8.435:512
8.435:528
8.435:539
8.435:560
8.450:560
8.451:591
8.451:659
8.451:699
8.455:706
8.455:688
8.455:659
8.455:634
8.455:613
8.455:598
8.455:585
8.455:583
8.456:540
8.456:496
8.459:478
8.459:479
8.459:491
8.459:503
8.459:518
8.459:527
8.459:552
8.459:575
8.459:638
8.463:687
8.463:688
8.463:666
8.463:635
8.463:605
8.463:581
8.463:566
8.479:551
8.483:544
8.484:498
8.484:449
8.484:428
8.485:428
8.485:440
8.485:441
8.485:453
8.485:464
8.488:479
8.488:502
8.488:562
8.488:608
8.488:610
8.488:593
8.488:562
8.488:533
8.488:500
8.489:478
8.492:461
8.492:457
8.492:413
8.492:363
8.492:343
8.492:342
8.492:350
8.492:357
8.493:367
8.496:373
8.513:373
8.513:387
8.513:407
8.513:465
8.513:522
8.513:530
8.513:515
8.513:485
8.513:454
8.517:424
8.517:405
8.517:388
8.517:384
8.517:337
8.517:284
8.517:255
8.517:243
8.517:256
8.518:273
8.521:296
8.521:313
8.521:331
8.521:357
8.521:417
8.521:476
8.521:485
8.521:472
8.521:445
8.522:419
8.525:386
8.540:364
8.540:344
8.540:341
8.540:306
8.540:263
8.540:247
8.545:252
8.545:262
8.545:273
8.545:298
8.545:311
8.545:327
8.545:356
8.545:409
8.545:467
8.545:478
8.549:467
8.549:445
8.549:424
8.549:392
8.549:369
8.549:348
8.549:347
8.549:328
8.550:297
8.552:283
8.553:277
8.553:295
8.553:312
8.553:333
8.569:333
8.569:347
8.569:360
8.569:390
8.569:437
8.574:507
8.574:524
8.574:508
8.574:475
8.574:450
8.574:421
8.574:401
8.575:378
8.575:371
8.575:351
8.578:309
8.578:288
8.578:292
8.578:307
8.578:320
8.578:347
8.578:367
8.578:384
8.579:409
8.582:451
8.582:520
8.582:539
8.582:526
8.582:496
8.582:477
8.597:441
8.597:418
8.602:403
8.602:392
8.602:368
8.602:319
8.602:296
8.602:302
8.602:323
8.602:344
8.602:368
8.603:388
8.606:408
8.606:426
8.606:458
8.606:525
8.606:547
8.606:531
8.606:499
8.606:471
8.606:438
8.611:419
8.611:410
8.611:410
8.611:398
8.611:351
8.611:330
8.611:327
8.611:336
8.611:352
8.626:352
8.631:369
8.631:385
8.631:407
8.631:437
8.631:474
8.631:543
8.631:572
8.631:572
8.631:553
8.631:529
8.635:495
8.635:474
8.635:461
8.635:450
8.635:432
8.635:375
8.635:336
8.635:320
8.635:327
8.640:351
8.640:380
8.640:406
8.640:421
8.640:443
8.640:477
8.640:552
8.640:578
8.640:576
8.640:556
8.660:530
8.660:502
8.660:480
8.660:461
8.660:452
8.660:448
8.660:400
8.660:362
8.664:356
8.664:367
8.664:393
8.664:411
8.664:429
8.664:446
8.664:470
8.664:498
8.664:565
8.668:605
8.668:603
8.668:580
8.669:545
8.669:509
8.669:480
8.669:465
8.669:459
8.669:456
8.669:411
8.671:376
8.671:367
8.671:368
8.688:368
8.688:379
8.688:395
8.689:417
8.689:436
8.689:459
8.689:483
8.692:547
8.692:590
8.692:592
8.692:574
8.692:548
8.692:524
8.692:502
8.692:484
8.692:468
8.697:463
8.697:414
8.697:376
8.697:362
8.697:372
8.697:394
8.698:407
8.698:429
8.698:441
8.698:465
8.701:490
8.702:559
8.702:600
8.702:601
8.717:580
8.717:549
8.717:520
8.721:496
8.721:488
8.721:480
8.721:473
8.721:432
8.721:395
8.721:382
8.721:378
8.721:388
8.721:394
8.725:410
8.725:419
8.725:430
8.725:457
8.725:524
8.725:570
8.725:578
8.725:561
8.725:534
8.725:511
8.729:486
8.729:472
8.729:461
8.729:465
8.729:427
8.729:384
8.729:368
8.745:368
8.745:378
8.745:400
8.749:412
8.749:430
8.750:439
8.750:449
8.750:470
8.750:537
8.750:586
8.750:588
8.750:566
8.754:533
8.754:509
8.754:490
8.754:476
8.754:467
8.754:468
8.754:424
8.754:378
8.754:356
8.754:359
8.758:376
8.758:392
8.758:415
8.758:428
8.758:447
8.758:470
8.758:529
8.758:590
8.778:602
8.778:581
8.778:555
8.778:526
8.778:496
8.778:480
8.778:469
8.778:474
8.778:440
8.783:396
8.783:377
8.783:373
8.783:389
8.783:404
8.783:426
8.783:436
8.783:445
8.783:459
8.787:520
8.787:581
8.787:591
8.787:578
8.787:549
8.787:522
8.787:489
8.787:473
8.787:462
8.787:467
8.791:438
8.791:395
8.806:395
8.807:381
8.807:380
8.807:395
8.807:405
8.807:424
8.807:433
8.807:453
8.812:482
8.812:537
8.812:599
8.812:616
8.812:601
8.812:565
8.812:538
8.812:505
8.812:481
8.812:465
8.815:466
8.815:448
8.815:408
8.815:387
8.815:381
8.815:389
8.815:398
8.815:426
8.815:447
8.819:471
8.819:497
8.819:538
8.835:598
8.835:607
8.835:590
8.835:556
8.835:526
8.840:489
8.840:465
8.840:451
8.840:451
8.840:431
8.840:392
8.840:373
8.840:373
8.840:388
8.844:406
8.844:430
8.844:445
8.844:462
8.844:485
8.845:522
8.845:581
8.845:596
8.845:584
8.845:561
8.848:539
8.848:508
8.848:489
8.848:475
8.848:474
8.848:453
8.864:453
8.864:404
8.864:376
8.864:380
8.869:394
8.869:410
8.869:432
8.869:451
8.869:467
8.869:492
8.870:532
8.870:601
8.870:623
8.873:613
8.873:584
8.873:553
8.873:515
8.873:495
8.873:482
8.873:480
8.873:469
8.874:421
8.874:396
8.877:400
8.877:422
8.877:442
8.877:461
8.877:476
8.877:495
8.877:522
8.893:558
8.897:627
8.897:650
8.897:643
8.897:627
8.897:604
8.897:568
8.897:542
8.898:522
8.898:511
8.901:500
8.901:451
8.902:417
8.902:418
8.902:430
8.902:449
8.902:469
8.902:487
8.902:503
8.902:521
8.906:551
8.906:623
8.906:653
8.906:649
8.906:619
8.906:585
8.906:560
8.906:543
8.906:526
8.909:514
8.926:514
8.926:503
8.926:454
8.926:417
8.926:411
8.926:418
8.926:426
8.926:433
8.926:446
8.930:460
8.930:480
8.930:502
8.930:562
8.930:589
8.930:582
8.930:558
8.931:527
8.931:496
8.931:473
8.934:462
8.935:451
8.935:445
8.935:399
8.935:360
8.935:359
8.935:370
8.935:387
8.935:397
8.938:417
8.938:429
8.954:449
8.954:480
8.954:553
8.954:594
8.954:589
8.954:563
8.959:527
8.959:498
8.959:481
8.959:476
8.959:468
8.959:466
8.959:418
8.959:374
8.959:362
8.959:366
8.962:381
8.962:394
8.962:410
8.962:420
8.962:440
8.962:468
8.962:536
8.962:579
8.962:584
8.967:563
8.967:529
8.967:497
8.967:476
8.967:466
8.983:466
8.983:461
8.983:462
8.983:416
8.983:375
8.988:362
8.988:366
8.988:386
8.988:400
8.988:420
8.988:435
8.988:459
8.988:489
8.988:559
8.988:604
8.992:603
8.992:579
8.992:546
8.992:521
8.992:490
8.992:461
8.992:440
8.992:438
8.992:397
8.996:359
8.996:345
8.996:348
8.996:359
8.996:376
8.996:401
9.011:416
9.012:431
9.016:452
9.016:525
9.016:578
9.016:589
9.016:573
9.016:542
9.016:518
9.016:496
9.016:482
9.016:469
9.019:471
9.020:434
9.020:390
9.020:370
9.020:370
9.020:384
9.020:391
9.020:416
9.020:431
9.024:448
9.024:472
9.024:532
9.024:583
9.024:589
9.024:566
9.024:531
9.025:501
9.025:467
9.040:467
9.045:447
9.045:431
9.045:437
9.045:405
9.045:368
9.045:358
9.045:378
9.045:411
9.046:441
9.046:473
9.049:501
9.049:539
9.049:597
9.049:685
9.049:779
9.049:828
9.049:858
9.049:885
9.049:917
9.052:947
9.052:985
9.052:989
9.052:989
9.052:989
9.052:989
9.052:988
9.053:988
9.053:987
9.053:986
9.072:985
9.072:984
9.074:984
9.074:983
9.074:982
9.074:981
9.074:982
9.078:982
9.078:983
9.078:985
9.078:986
9.078:987
9.078:989
9.078:955
9.078:807
9.078:657
9.078:516
9.082:375
9.082:275
9.082:205
9.082:179
9.082:173
9.082:193
9.082:236
9.082:305
9.082:389
9.082:421
9.084:424
9.086:407
9.086:386
9.101:386
9.102:361
9.102:349
9.102:339
9.102:339
9.102:319
9.102:284
9.106:270
9.106:276
9.106:292
9.106:305
9.106:328
9.106:344
9.106:359
9.107:383
9.107:426
9.110:494
9.110:511
9.110:500
9.110:471
9.110:443
9.110:409
9.110:390
9.111:372
9.111:361
9.111:333
9.114:284
9.114:254
9.114:248
9.115:257
9.130:276
9.130:299
9.130:316
9.135:333
9.135:356
9.135:405
9.135:481
9.135:507
9.136:499
9.136:474
9.136:450
9.136:426
9.136:410
9.139:398
9.139:392
9.139:370
9.139:324
9.139:297
9.139:295
9.139:306
9.139:319
9.140:333
9.140:344
9.142:353
9.142:368
9.142:412
9.142:493
9.142:514
9.144:509
9.144:485
9.159:485
9.159:465
9.163:439
9.163:422
9.163:410
9.163:402
9.163:390
9.163:337
9.164:306
9.164:307
9.164:325
9.164:348
9.168:365
9.169:389
9.169:408
9.169:434
9.169:467
9.170:538
9.170:570
9.170:569
9.170:547
9.170:522
9.172:497
9.172:481
9.172:469
9.172:463
9.172:456
9.172:411
9.172:373
9.172:364
9.192:364
9.192:376
9.192:379
9.192:383
9.192:392
9.192:410
9.192:442
9.192:512
9.192:552
9.196:556
9.196:542
9.196:521
9.196:497
9.196:478
9.196:462
9.196:451
9.196:443
9.196:399
9.201:366
9.201:363
9.201:377
9.202:398
9.202:412
9.202:437
9.202:452
9.202:476
9.202:505
9.202:575
9.204:610
9.204:605
9.220:605
9.220:581
9.220:550
9.220:527
9.220:505
9.220:495
9.220:491
9.220:487
9.224:434
9.224:392
9.224:384
9.224:392
9.225:410
9.225:424
9.225:444
9.225:458
9.225:482
9.229:513
9.229:585
9.229:630
9.229:631
9.229:608
9.229:580
9.229:553
9.229:528
9.229:514
9.229:508
9.233:513
9.233:472
9.233:432
9.249:416
9.249:424
9.249:443
9.249:455
9.250:480
9.253:495
9.253:516
9.253:542
9.253:608
9.253:655
9.253:655
9.253:632
9.253:607
9.253:586
9.258:564
9.258:551
9.258:544
9.258:545
9.258:502
9.258:464
9.258:456
9.258:464
9.258:481
9.258:493
9.262:519
9.262:536
9.262:560
9.262:587
9.262:651
9.262:701
9.278:701
9.278:711
9.278:695
9.278:663
9.282:636
9.282:613
9.282:599
9.282:586
9.282:586
9.282:541
9.282:494
9.282:473
9.282:471
9.286:487
9.286:497
9.286:512
9.286:525
9.286:542
9.286:557
9.286:614
9.286:664
9.286:673
9.286:655
9.291:627
9.291:605
9.291:578
9.291:555
9.291:540
9.291:539
9.291:496
9.306:452
9.311:431
9.311:432
9.311:445
9.311:458
9.311:475
9.311:479
9.311:503
9.311:532
9.311:588
9.315:639
9.315:646
9.315:629
9.315:602
9.315:573
9.315:539
9.315:522
9.315:505
9.315:494
9.315:453
9.319:404
9.319:381
9.319:376
9.319:388
9.319:395
9.319:412
9.319:424
9.319:440
9.319:463
9.323:515
9.340:515
9.340:572
9.340:583
9.340:562
9.340:529
9.340:504
9.340:471
9.340:451
9.340:435
9.344:433
9.344:398
9.344:347
9.344:319
9.344:307
9.344:309
9.344:314
9.344:337
9.344:354
9.344:371
9.348:393
9.348:438
9.348:499
9.348:513
9.348:495
9.348:458
9.348:427
9.348:398
9.348:381
9.351:364
9.351:359
9.368:331
9.368:282
9.368:255
9.368:257
9.368:279
9.368:295
9.373:317
9.373:333
9.373:345
9.373:367
9.373:408
9.373:474
9.373:490
9.373:478
9.373:450
9.373:423
9.376:395
9.376:380
9.376:368
9.376:365
9.376:339
9.376:295
9.376:273
9.376:273
9.376:281
9.380:301
9.380:326
9.380:344
9.380:358
9.380:382
9.396:382
9.396:424
9.396:495
9.396:515
9.396:508
9.401:491
9.401:471
9.401:443
9.402:426
9.402:411
9.402:404
9.402:383
9.402:326
9.402:289
9.402:279
9.405:285
9.405:295
9.405:312
9.405:332
9.405:353
9.405:380
9.405:419
9.405:494
9.405:526
9.409:523
9.409:498
9.409:477
9.409:449
9.409:430
9.409:419
9.424:414
9.424:396
9.430:346
9.430:316
9.430:314
9.430:326
9.430:345
9.430:363
9.430:384
9.430:401
9.430:422
9.431:456
9.433:520
9.433:543
9.434:532
9.434:501
9.434:473
9.434:442
9.434:428
9.434:416
