0.000:482
0.000:528
0.000:573
0.000:600
0.000:604
0.000:593
0.000:568
0.000:531
0.000:492
0.000:457
0.000:425
0.001:381
0.001:333
0.001:305
0.001:298
0.001:313
0.001:342
0.003:380
0.003:420
0.003:457
0.004:490
0.004:536
0.004:582
0.005:610
0.005:614
0.005:598
0.005:570
0.005:534
0.005:500
0.005:500
0.005:465
0.006:435
0.006:388
0.006:341
0.007:314
0.007:310
0.007:323
0.007:354
0.008:393
0.008:433
0.008:471
0.008:504
0.008:550
0.008:593
0.009:617
0.009:619
0.009:603
0.009:575
0.009:538
0.009:500
0.009:464
0.010:433
0.010:386
0.010:343
0.010:317
0.011:316
0.011:332
0.011:361
0.011:398
0.011:437
0.012:477
0.012:510
0.012:559
0.012:601
0.012:625
0.013:626
0.013:611
0.013:579
0.013:541
0.014:503
0.014:469
0.014:437
0.015:387
0.015:343
0.015:320
0.015:321
0.015:335
0.015:367
0.016:405
0.016:445
0.016:480
0.016:515
0.016:562
0.016:604
0.016:625
0.018:629
0.018:613
0.018:582
0.019:544
0.019:544
0.020:507
0.020:474
0.020:438
0.021:386
0.021:344
0.022:322
0.022:323
0.022:340
0.022:371
0.022:411
0.023:450
0.023:487
0.023:522
0.023:570
0.023:613
0.023:634
0.023:631
0.024:611
0.024:575
0.024:537
0.024:504
0.025:473
0.025:439
0.025:389
0.026:348
0.026:328
0.027:329
0.027:348
0.027:380
0.028:420
0.028:456
0.029:491
0.029:527
0.029:575
0.030:613
0.030:634
0.030:633
0.030:612
0.030:580
0.031:543
0.031:508
0.032:476
0.032:437
0.032:385
0.032:344
0.032:326
0.033:328
0.033:346
0.033:379
0.033:418
0.033:458
0.034:494
0.034:532
0.034:579
0.034:618
0.034:634
0.034:629
0.035:609
0.035:576
0.035:576
0.035:540
0.035:504
0.036:473
0.036:434
0.036:384
0.036:345
0.036:327
0.036:333
0.037:354
0.037:388
0.038:425
0.039:462
0.039:496
0.039:533
0.039:582
0.039:618
0.039:635
0.040:629
0.040:607
0.040:575
0.040:538
0.041:501
0.041:467
0.041:430
0.041:378
0.041:340
0.041:323
0.042:331
0.042:354
0.042:388
0.042:428
0.042:467
0.043:502
0.043:541
0.043:591
0.043:625
0.043:639
0.044:632
0.044:608
0.044:573
0.044:535
0.044:498
0.044:465
0.045:423
0.045:372
0.045:339
0.045:325
0.045:330
0.046:354
0.046:387
0.046:428
0.046:467
0.046:498
0.046:539
0.046:590
0.046:623
0.047:634
0.047:626
0.047:604
0.048:604
0.048:568
0.048:531
0.048:495
0.048:462
0.048:417
0.049:366
0.049:335
0.049:322
0.049:332
0.049:357
0.050:394
0.050:434
0.050:473
0.050:504
0.050:545
0.050:595
0.051:627
0.051:641
0.051:632
0.051:606
0.051:573
0.052:533
0.052:497
0.052:466
0.052:422
0.052:371
0.052:339
0.053:328
0.053:337
0.053:363
0.053:400
0.053:440
0.054:478
0.055:511
0.055:552
0.055:601
0.055:630
0.055:639
0.055:628
0.056:603
0.056:569
0.056:535
0.056:500
0.056:469
0.056:427
0.057:380
0.057:348
0.057:334
0.057:340
0.058:364
0.058:401
0.058:442
0.058:479
0.058:510
0.058:555
0.059:603
0.059:632
0.059:643
0.059:633
0.059:633
0.060:608
0.060:573
0.060:537
0.060:506
0.060:475
0.060:430
0.061:382
0.061:353
0.061:344
0.061:355
0.061:381
0.062:420
0.062:464
0.062:502
0.062:535
0.063:581
0.063:629
0.063:656
0.063:659
0.063:643
0.064:616
0.064:581
0.064:543
0.064:509
0.064:476
0.065:431
0.065:383
0.065:356
0.065:350
0.065:366
0.065:390
0.066:424
0.066:462
0.066:497
0.066:529
0.066:573
0.067:620
0.067:647
0.067:651
0.067:635
0.067:605
0.067:571
0.068:534
0.068:499
0.068:467
0.068:419
0.068:370
0.069:340
0.069:334
0.069:347
0.069:378
0.069:409
0.069:445
0.070:482
0.070:514
0.070:559
0.070:602
0.071:626
0.072:626
0.072:626
0.072:610
0.072:582
0.072:547
0.072:507
0.073:472
0.073:440
0.073:391
0.073:345
0.074:321
0.074:319
0.074:335
0.074:361
0.075:398
0.075:440
0.075:478
0.075:512
0.075:559
0.075:601
0.076:624
0.076:624
0.076:608
0.076:578
0.076:541
0.077:505
0.077:474
0.077:442
0.077:392
0.077:346
0.077:320
0.078:318
0.078:334
0.078:364
0.078:402
0.078:444
0.079:479
0.079:513
0.079:563
0.079:605
0.079:624
0.080:623
0.080:606
0.080:575
0.080:538
0.080:500
0.080:466
0.081:432
0.081:383
0.081:339
0.081:314
0.081:316
0.082:335
0.082:368
0.082:406
0.082:447
0.082:483
0.082:517
0.083:566
0.083:603
0.083:624
0.083:624
0.083:625
0.084:608
0.084:577
0.084:539
0.084:499
0.084:468
0.084:433
0.085:382
0.085:339
0.085:319
0.085:324
0.085:344
0.086:377
0.086:415
0.086:451
0.086:484
0.086:517
0.086:566
0.087:604
0.087:624
0.087:621
0.088:603
0.089:571
0.089:534
0.089:499
0.089:467
0.090:433
0.090:381
0.090:338
0.090:318
0.090:321
0.091:340
0.091:376
0.091:415
0.091:453
0.092:485
0.092:522
0.092:569
0.092:607
0.092:624
0.092:619
0.093:597
0.093:565
0.093:530
0.093:500
0.094:478
0.094:450
0.094:410
0.094:388
0.094:381
0.095:396
0.095:431
0.095:478
0.095:531
0.095:587
0.095:641
0.096:700
0.096:770
0.096:829
0.096:829
0.096:879
0.097:901
0.097:904
0.097:890
0.097:873
0.097:857
0.097:841
0.098:814
0.098:773
0.098:751
0.098:749
0.098:761
0.099:794
0.099:843
0.099:886
0.099:906
0.099:916
0.099:933
0.100:954
0.100:945
0.100:905
0.100:845
0.100:785
0.101:714
0.101:639
0.101:583
0.101:538
0.101:483
0.101:405
0.102:337
0.102:298
0.102:291
0.102:302
0.102:336
0.102:389
0.103:445
0.103:492
0.103:539
0.103:591
0.103:627
0.104:648
0.105:643
0.105:624
0.105:601
0.105:571
0.105:544
0.105:514
0.105:472
0.105:417
0.105:380
0.105:357
0.106:357
0.106:372
0.106:400
0.106:436
0.106:473
0.106:503
0.106:539
0.106:578
0.106:578
0.106:596
0.106:595
0.107:578
0.107:549
0.108:509
0.108:466
0.108:430
0.108:398
0.108:354
0.108:306
0.109:275
0.109:261
0.109:272
0.109:299
0.110:334
0.110:372
0.110:411
0.110:445
0.110:489
0.111:538
0.111:570
0.111:580
0.111:569
0.111:543
0.111:509
0.112:472
0.112:437
0.112:407
0.112:365
0.112:315
0.113:287
0.113:277
0.113:288
0.113:314
0.113:351
0.113:394
0.114:435
0.114:468
0.114:509
0.114:556
0.114:586
0.114:598
0.115:586
0.115:560
0.115:526
0.115:489
0.115:454
0.116:424
0.116:377
0.116:326
0.116:298
0.116:290
0.116:305
0.117:336
0.117:372
0.117:414
0.117:452
0.117:485
0.118:528
0.118:528
0.118:576
0.118:604
0.118:614
0.118:601
0.119:574
0.119:539
0.119:500
0.119:466
0.119:433
0.120:389
0.120:343
0.120:316
0.121:309
0.121:323
0.121:352
0.121:390
0.122:431
0.122:467
0.122:500
0.122:544
0.122:591
0.122:619
0.122:626
0.122:612
0.122:585
0.124:550
0.124:515
0.124:480
0.124:448
0.125:399
0.125:352
0.125:328
0.125:325
0.125:337
0.125:368
0.126:407
0.126:446
0.126:484
0.126:516
0.126:562
0.127:608
0.127:634
0.127:637
0.127:620
0.127:592
0.128:560
0.128:523
0.128:491
0.128:459
0.128:409
0.129:365
0.129:341
0.129:342
0.129:357
0.129:386
0.130:423
0.130:464
0.130:501
0.130:535
0.130:535
0.131:584
0.131:627
0.131:649
0.131:652
0.131:634
0.131:606
0.132:572
0.132:534
0.132:502
0.132:468
0.132:416
0.133:373
0.133:350
0.133:348
0.133:366
0.133:399
0.134:438
0.134:479
0.134:517
0.134:552
0.134:600
0.135:643
0.135:665
0.135:666
0.135:650
0.135:619
0.135:583
0.136:545
0.136:511
0.136:477
0.136:428
0.136:383
0.137:361
0.137:364
0.137:382
0.139:414
0.139:452
0.139:491
0.139:527
0.139:561
0.139:608
0.140:649
0.140:671
0.140:670
0.140:652
0.140:621
0.140:585
0.141:545
0.141:513
0.141:478
0.141:429
0.141:388
0.141:367
0.141:367
0.141:382
0.141:412
0.141:446
0.142:481
0.142:511
0.142:511
0.142:543
0.142:586
0.142:621
0.143:640
0.143:638
0.143:622
0.143:593
0.143:560
0.144:524
0.144:492
0.144:456
0.144:407
0.144:367
0.144:347
0.145:348
0.145:363
0.145:391
0.145:423
0.145:455
0.146:486
0.146:515
0.146:559
0.146:592
0.146:609
0.146:605
0.147:584
0.147:552
0.147:516
0.147:482
0.147:451
0.148:416
0.148:366
0.148:330
0.148:310
0.148:312
0.148:329
0.149:357
0.149:390
0.149:425
0.149:453
0.149:486
0.150:528
0.150:563
0.150:579
0.150:575
0.150:554
0.150:525
0.151:492
0.151:458
0.151:428
0.151:391
0.151:343
0.152:309
0.152:290
0.152:290
0.152:307
0.152:339
0.152:376
0.153:410
0.153:410
0.153:443
0.153:476
0.155:520
0.155:553
0.155:567
0.156:564
0.156:546
0.156:514
0.156:478
0.157:446
0.157:418
0.157:385
0.157:339
0.158:304
0.158:287
0.158:290
0.158:312
0.158:342
0.158:375
0.159:410
0.159:441
0.159:479
0.159:525
0.159:559
0.160:573
0.160:566
0.160:548
0.160:517
0.160:485
0.160:454
0.161:425
0.161:388
0.161:340
0.161:308
0.161:295
0.162:301
0.162:323
0.162:354
0.162:390
0.162:424
0.162:454
0.163:491
0.163:537
0.163:568
0.163:581
0.163:575
0.164:555
0.164:526
0.164:493
0.164:460
0.164:433
0.164:396
0.165:350
0.165:319
0.165:305
0.165:313
0.165:335
0.166:368
0.166:404
0.166:404
0.166:439
0.166:468
0.166:505
0.166:550
0.166:578
0.167:589
0.167:581
0.167:561
0.167:533
0.167:498
0.168:466
0.168:443
0.168:402
0.168:352
0.169:321
0.169:311
0.169:321
0.169:346
0.169:381
0.170:418
0.170:454
0.170:480
0.170:518
0.170:562
0.172:592
0.172:602
0.172:593
0.172:569
0.172:538
0.173:507
0.173:475
0.173:446
0.173:405
0.174:359
0.174:330
0.174:321
0.174:331
0.175:355
0.175:386
0.175:422
0.175:455
0.175:485
0.176:526
0.176:573
0.176:601
0.176:608
0.176:595
0.176:572
0.177:542
0.177:509
0.177:478
0.177:453
0.177:410
0.178:366
0.178:338
0.178:330
0.178:339
0.178:365
0.178:396
0.179:396
0.179:431
0.179:465
0.179:494
0.179:536
0.180:580
0.180:605
0.180:612
0.180:601
0.180:575
0.180:545
0.181:513
0.181:482
0.181:454
0.181:409
0.181:364
0.182:337
0.182:331
0.182:344
0.182:370
0.182:401
0.182:438
0.183:471
0.183:500
0.183:543
0.183:586
0.183:610
0.184:615
0.184:604
0.184:581
0.184:550
0.184:517
0.185:484
0.185:456
0.185:411
0.185:367
0.185:342
0.185:336
0.186:348
0.186:376
0.186:409
0.186:447
0.186:478
0.187:509
0.188:551
0.188:593
0.188:616
0.188:621
0.188:610
0.188:583
0.189:550
0.189:517
0.189:485
0.189:454
0.189:410
0.189:368
0.189:342
0.189:339
0.190:353
0.190:380
0.190:380
0.191:414
0.191:448
0.191:480
0.191:511
0.191:555
0.191:596
0.192:619
0.192:622
0.192:609
0.192:582
0.192:548
0.192:515
0.193:484
0.193:452
0.193:406
0.193:366
0.193:342
0.194:340
0.194:351
0.194:379
0.194:414
0.194:449
0.194:483
0.195:512
0.195:558
0.195:598
0.195:620
0.195:620
0.196:602
0.196:575
0.196:543
0.196:510
0.196:482
0.196:449
0.197:400
0.197:363
0.197:343
0.197:341
0.197:355
0.198:383
0.198:418
0.198:453
0.198:483
0.198:515
0.199:561
0.199:597
0.199:619
0.199:620
0.199:607
0.199:578
0.200:543
0.200:512
0.200:483
0.200:449
0.200:403
0.201:366
0.201:345
0.201:344
0.201:360
0.201:360
0.201:388
0.202:419
0.202:452
0.202:481
0.202:513
0.202:559
0.203:594
0.203:615
0.203:613
0.203:597
0.204:569
0.205:537
0.205:505
0.205:477
0.205:443
0.206:396
0.206:361
0.206:343
0.206:345
0.206:361
0.206:391
0.206:424
0.207:455
0.207:483
0.207:517
0.208:565
0.208:600
0.208:614
0.208:612
0.208:598
0.209:571
0.209:537
0.209:505
0.209:475
0.209:438
0.210:391
0.210:358
0.210:341
0.210:346
0.210:364
0.210:393
0.211:428
0.211:463
0.211:490
0.211:521
0.211:567
0.212:600
0.212:614
0.212:609
0.212:594
0.212:566
0.212:532
0.213:500
0.213:473
0.213:435
0.213:388
0.213:357
0.214:344
0.214:349
0.214:349
0.214:368
0.214:398
0.215:430
0.215:461
0.215:490
0.215:527
0.215:572
0.215:605
0.216:621
0.216:619
0.216:601
0.216:572
0.216:541
0.216:511
0.217:482
0.217:443
0.217:395
0.217:360
0.217:346
0.218:352
0.218:372
0.218:403
0.218:439
0.218:472
0.218:501
0.219:535
0.219:580
0.219:611
0.220:623
0.220:616
0.220:596
0.220:565
0.220:531
0.221:497
0.221:468
0.221:427
0.222:377
0.222:346
0.222:335
0.222:347
0.222:375
0.222:410
0.222:451
0.222:491
0.222:525
0.223:568
0.223:619
0.223:650
0.223:663
0.223:655
0.224:629
0.224:592
0.224:553
0.224:517
0.224:485
0.224:438
0.225:385
0.225:353
0.225:340
0.225:340
0.225:351
0.226:379
0.226:417
0.226:458
0.226:497
0.226:533
0.227:577
0.227:624
0.227:655
0.227:664
0.227:652
0.227:621
0.228:582
0.228:540
0.228:505
0.228:468
0.229:419
0.229:370
0.229:341
0.229:335
0.229:348
0.229:374
0.230:413
0.230:456
0.230:493
0.230:524
0.230:565
0.231:612
0.231:639
0.231:644
0.231:629
0.231:596
0.232:557
0.232:514
0.232:479
0.232:446
0.232:398
0.233:346
0.233:315
0.233:309
0.233:323
0.233:355
0.234:393
0.234:436
0.234:475
0.234:508
0.234:553
0.235:602
0.235:630
0.235:635
0.235:619
0.236:592
0.236:554
0.236:513
0.236:476
0.236:442
0.236:392
0.237:346
0.237:319
0.238:319
0.238:311
0.238:325
0.238:356
0.238:395
0.238:434
0.239:471
0.239:506
0.239:554
0.239:601
0.239:627
0.240:629
0.240:612
0.240:581
0.240:545
0.241:507
0.241:473
0.241:437
0.241:386
0.241:338
0.242:311
0.242:309
0.242:327
0.242:360
0.242:399
0.242:440
0.243:476
0.243:510
0.243:558
0.243:603
0.243:628
0.244:630
0.244:611
0.244:579
0.244:540
0.244:503
0.245:470
0.245:436
0.245:385
0.245:336
0.245:313
0.245:314
0.246:333
0.246:363
0.246:404
0.246:444
0.246:480
0.247:510
0.247:563
0.247:610
0.247:630
0.247:628
0.247:610
0.248:577
0.248:537
0.248:497
0.248:463
0.248:429
0.249:378
0.249:334
0.249:334
0.249:312
0.249:313
0.250:333
0.250:367
0.250:405
0.250:447
0.251:485
0.251:522
0.251:570
0.251:613
0.251:637
0.251:630
0.252:606
0.252:573
0.252:536
0.252:500
0.252:463
0.253:429
0.253:376
0.253:331
0.253:309
0.253:311
0.254:330
0.254:363
0.254:403
0.254:444
0.254:488
0.255:533
0.255:594
0.255:640
0.255:668
0.255:682
0.255:674
0.256:653
0.256:628
0.256:603
0.256:584
0.256:566
0.256:535
0.256:513
0.256:511
0.256:541
0.256:594
0.257:658
0.257:722
0.257:785
0.257:843
0.257:900
0.258:968
0.258:990
0.258:989
0.258:989
0.258:989
0.259:990
0.259:989
0.259:964
0.259:934
0.259:874
0.259:795
0.260:795
0.260:732
0.260:680
0.260:637
0.260:603
0.261:590
0.261:593
0.261:597
0.261:594
0.261:610
0.262:649
0.262:671
0.262:660
0.262:623
0.262:579
0.263:532
0.263:488
0.263:453
0.263:430
0.263:403
0.263:368
0.264:338
0.264:323
0.264:333
0.264:365
0.264:406
0.265:455
0.265:506
0.265:549
0.266:598
0.266:651
0.266:686
0.266:697
0.266:683
0.266:650
0.267:604
0.267:557
0.267:513
0.267:476
0.267:431
0.268:373
0.268:331
0.268:307
0.268:300
0.268:311
0.268:340
0.269:377
0.269:414
0.269:445
0.269:483
0.269:533
0.270:566
0.270:581
0.270:571
0.271:549
0.271:514
0.271:476
0.272:440
0.272:408
0.272:364
0.272:364
0.272:313
0.272:278
0.272:263
0.272:272
0.272:298
0.272:336
0.272:377
0.272:416
0.272:452
0.272:495
0.273:544
0.273:577
0.273:590
0.273:581
0.274:556
0.274:519
0.274:480
0.274:444
0.274:414
0.274:369
0.275:318
0.275:286
0.275:276
0.275:288
0.275:317
0.276:356
0.276:401
0.276:440
0.276:473
0.276:516
0.276:568
0.277:598
0.277:606
0.277:594
0.277:567
0.277:535
0.278:496
0.278:457
0.278:427
0.278:385
0.278:333
0.278:304
0.279:293
0.279:305
0.279:333
0.279:369
0.279:412
0.280:453
0.280:488
0.280:534
0.280:584
0.280:613
0.280:622
0.281:611
0.281:584
0.281:547
0.281:508
0.281:472
0.282:439
0.282:439
0.282:391
0.282:340
0.282:311
0.283:303
0.283:315
0.283:345
0.283:386
0.283:428
0.283:468
0.284:502
0.284:549
0.284:599
0.284:633
0.284:640
0.285:627
0.285:599
0.285:562
0.285:522
0.285:485
0.285:451
0.286:402
0.286:352
0.286:324
0.286:317
0.286:332
0.287:362
0.288:402
0.288:447
0.288:487
0.288:520
0.289:569
0.289:619
0.289:649
0.289:654
0.289:635
0.290:606
0.290:574
0.290:536
0.290:501
0.291:466
0.291:415
0.291:366
0.291:339
0.291:334
0.292:350
0.292:383
0.292:424
0.292:465
0.292:503
0.293:538
0.293:591
0.293:638
0.293:664
0.293:666
0.294:651
0.294:620
0.294:582
0.294:544
0.294:510
0.294:510
0.295:477
0.295:427
0.295:379
0.295:353
0.295:351
0.296:370
0.296:403
0.296:441
0.296:483
0.296:524
0.296:559
0.296:607
0.297:652
0.297:676
0.297:679
0.297:661
0.297:629
0.297:590
0.298:550
0.298:517
0.298:482
0.298:430
0.298:384
0.299:360
0.299:358
0.299:375
0.299:407
0.299:447
0.299:488
0.300:527
0.300:561
0.300:611
0.300:657
0.300:678
0.301:676
0.301:657
0.301:624
0.301:586
0.301:544
0.301:505
0.302:468
0.302:414
0.302:367
0.302:341
0.302:341
0.303:360
0.303:392
0.304:432
0.305:472
0.305:509
0.305:544
0.306:595
0.306:636
0.306:654
0.306:650
0.306:629
0.307:596
0.307:557
0.307:516
0.308:516
0.308:480
0.308:440
0.308:386
0.308:340
0.309:313
0.309:311
0.309:331
0.309:364
0.309:402
0.310:442
0.310:478
0.310:510
0.310:558
0.310:599
0.310:616
0.311:608
0.311:585
0.311:551
0.311:511
0.312:470
0.312:433
0.312:392
0.312:339
0.312:297
0.314:276
0.314:277
0.314:295
0.315:331
0.315:371
0.315:410
0.315:446
0.315:483
0.315:533
0.315:573
0.316:590
0.316:586
0.316:561
0.316:525
0.316:486
0.316:448
0.316:413
0.317:373
0.317:319
0.317:281
0.317:261
0.317:266
0.317:287
0.317:324
0.318:365
0.318:405
0.318:440
0.318:477
0.318:529
0.318:569
0.318:587
0.318:579
0.318:557
0.319:523
0.319:482
0.319:482
0.319:443
0.319:410
0.319:372
0.320:317
0.320:280
0.320:266
0.320:271
0.320:292
0.320:329
0.320:373
0.321:414
0.321:449
0.321:491
0.321:543
0.321:578
0.321:595
0.322:588
0.322:565
0.322:530
0.322:491
0.322:452
0.322:418
0.322:375
0.324:320
0.324:289
0.324:275
0.324:282
0.324:305
0.324:343
0.324:388
0.325:428
0.325:464
0.325:506
0.325:558
0.325:590
0.325:605
0.326:597
0.326:571
0.326:537
0.326:500
0.326:464
0.327:430
0.327:387
0.327:336
0.327:303
0.327:291
0.328:299
0.328:320
0.328:353
0.328:390
0.328:430
0.328:460
0.329:498
0.329:547
0.329:581
0.329:594
0.330:588
0.330:566
0.330:535
0.330:535
0.330:504
0.330:471
0.331:442
0.331:402
0.331:357
0.331:328
0.331:318
0.332:324
0.332:345
0.332:376
0.332:411
0.332:442
0.332:472
0.333:511
0.333:555
0.333:585
0.333:597
0.333:592
0.334:568
0.334:537
0.334:505
0.334:475
0.334:450
0.334:411
0.334:365
0.334:338
0.334:326
0.334:333
0.334:356
0.336:387
0.336:423
0.336:456
0.336:480
0.336:520
0.336:566
0.337:595
0.337:604
0.338:594
0.338:573
0.338:545
0.338:511
0.339:480
0.339:455
0.339:413
0.339:368
0.339:341
0.339:334
0.339:343
0.340:367
0.340:400
0.340:434
0.341:468
0.341:497
0.341:535
0.341:575
0.342:600
0.342:609
0.342:598
0.342:576
0.342:576
0.343:545
0.343:515
0.343:487
0.343:460
0.343:417
0.344:372
0.344:344
0.344:337
0.344:346
0.344:370
0.344:402
0.344:436
0.344:468
0.344:498
0.344:540
0.344:582
0.345:608
0.345:616
0.345:606
0.345:584
0.345:554
0.346:520
0.346:489
0.346:460
0.346:415
0.346:372
0.346:348
0.347:342
0.347:352
0.347:378
0.347:408
0.347:440
0.347:474
0.348:500
0.348:543
0.348:583
0.348:607
0.348:615
0.348:604
0.348:578
0.348:549
0.348:518
0.349:489
0.349:460
0.349:416
0.349:372
0.349:349
0.350:342
0.350:353
0.350:379
0.350:413
0.351:445
0.351:476
0.351:506
0.351:550
0.351:593
0.351:617
0.351:619
0.351:606
0.353:606
0.353:583
0.353:551
0.353:517
0.353:485
0.353:455
0.353:412
0.353:369
0.353:345
0.353:340
0.353:353
0.355:379
0.355:413
0.355:446
0.355:475
0.355:505
0.356:549
0.356:589
0.356:611
0.356:612
0.356:599
0.356:572
0.356:541
0.356:512
0.356:484
0.356:453
0.357:406
0.357:365
0.357:344
0.357:343
0.357:358
0.357:383
0.358:414
0.358:449
0.358:481
0.358:508
0.359:550
0.359:587
0.359:607
0.359:608
0.359:595
0.360:569
0.360:540
0.360:508
0.360:477
0.360:445
0.360:398
0.360:358
0.360:337
0.360:338
0.361:353
0.361:381
0.361:414
0.361:450
0.361:481
0.361:509
0.362:555
0.362:594
0.362:613
0.362:613
0.362:613
0.362:595
0.362:567
0.362:535
0.364:506
0.364:478
0.364:446
0.364:394
0.364:349
0.365:323
0.365:326
0.365:343
0.365:375
0.365:414
0.365:455
0.366:493
0.366:530
0.366:583
0.366:621
0.366:640
0.367:635
0.367:613
0.367:582
0.367:543
0.367:504
0.367:471
0.368:430
0.368:377
0.368:335
0.368:316
0.368:320
0.369:342
0.369:378
0.369:417
0.369:457
0.369:492
0.369:531
0.370:585
0.370:623
0.370:640
0.370:631
0.370:610
0.370:576
0.371:537
0.371:500
0.371:468
0.371:426
0.371:370
0.371:330
0.371:314
0.372:320
0.372:341
0.372:380
0.372:422
0.374:465
0.374:503
0.374:544
0.374:594
0.374:629
0.374:646
0.374:646
0.374:639
0.375:614
0.375:578
0.375:539
0.375:501
0.376:467
0.376:425
0.376:370
0.376:332
0.376:320
0.376:329
0.377:353
0.377:389
0.377:431
0.377:471
0.377:504
0.378:545
0.378:597
0.378:635
0.378:651
0.378:646
0.378:623
0.379:589
0.379:550
0.379:512
0.379:481
0.379:435
0.380:380
0.380:344
0.380:331
0.380:340
0.380:365
0.381:403
0.381:445
0.381:488
0.382:524
0.382:567
0.382:618
0.382:653
0.382:668
0.382:662
0.382:634
0.382:594
0.382:555
0.382:519
0.382:486
0.382:440
0.382:386
0.382:351
0.382:338
0.382:347
0.382:373
0.382:410
0.383:452
0.383:492
0.383:524
0.383:567
0.383:619
0.384:652
0.384:652
0.384:659
0.384:646
0.384:617
0.384:580
0.385:540
0.385:502
0.385:471
0.385:424
0.385:371
0.386:335
0.386:322
0.387:334
0.387:362
0.387:399
0.387:440
0.387:478
0.388:510
0.388:553
0.388:600
0.388:627
0.388:638
0.388:624
0.390:594
0.390:555
0.390:517
0.390:482
0.390:449
0.390:400
0.390:347
0.390:318
0.390:306
0.390:317
0.392:347
0.392:387
0.392:430
0.392:471
0.392:505
0.392:549
0.392:599
0.392:628
0.392:636
0.392:623
0.394:594
0.394:558
0.394:519
0.394:483
0.394:448
0.395:396
0.395:342
0.395:312
0.395:306
0.395:320
0.395:350
0.396:390
0.396:434
0.396:474
0.396:505
0.396:552
0.397:601
0.397:601
0.397:630
0.397:635
0.397:618
0.397:589
0.398:552
0.398:510
0.398:474
0.398:439
0.398:390
0.399:341
0.399:313
0.399:307
0.399:320
0.399:350
0.399:391
0.400:432
0.400:471
0.400:504
0.400:553
0.400:601
0.401:629
0.401:632
0.401:615
0.401:584
0.401:545
0.401:506
0.402:471
0.402:438
0.402:385
0.402:336
0.402:312
0.402:309
0.402:326
0.402:358
0.402:399
0.402:437
0.402:474
0.405:509
0.405:562
0.405:606
0.405:631
0.405:633
0.406:616
0.406:585
0.406:547
0.406:508
0.406:471
0.406:436
0.407:384
0.407:337
0.407:311
0.408:309
0.408:325
0.408:360
0.408:400
0.408:441
0.408:480
0.409:514
0.409:567
0.409:567
0.409:612
0.409:632
0.409:632
0.410:613
0.410:579
0.410:540
0.410:501
0.410:464
0.411:429
0.411:376
0.411:335
0.411:319
0.411:329
0.412:357
0.412:405
0.412:463
0.412:519
0.412:569
0.412:621
0.412:683
0.412:742
0.412:786
0.413:805
0.413:805
0.413:792
0.413:779
0.413:772
0.413:764
0.414:752
0.414:720
0.414:696
0.414:690
0.414:704
0.415:732
0.415:773
0.415:824
0.415:874
0.415:918
0.415:963
0.416:989
0.416:989
0.416:989
0.416:990
0.416:982
0.417:907
0.417:818
0.417:726
0.417:646
0.417:574
0.417:482
0.418:410
0.418:376
0.418:370
0.418:373
0.418:377
0.418:392
0.419:420
0.419:449
0.419:483
0.419:483
0.419:538
0.420:590
0.422:624
0.422:636
0.422:623
0.422:590
0.423:557
0.423:528
0.423:502
0.423:470
0.423:423
0.423:391
0.424:380
0.424:389
0.424:406
0.424:437
0.424:473
0.425:507
0.425:532
0.425:560
0.425:607
0.425:637
0.426:652
0.426:645
0.426:619
0.426:575
0.426:523
0.426:470
0.427:426
0.427:384
0.427:327
0.427:285
0.427:265
0.428:270
0.428:293
0.428:330
0.428:370
0.428:410
0.429:445
0.429:484
0.429:533
0.429:571
0.429:587
0.429:579
0.430:560
0.430:525
0.430:486
0.430:447
0.430:415
0.430:376
0.430:322
0.430:288
0.430:273
0.432:282
0.432:308
0.432:343
0.432:385
0.432:425
0.433:460
0.433:460
0.433:496
0.433:547
0.433:581
0.433:595
0.434:590
0.434:569
0.434:533
0.434:494
0.434:459
0.435:427
0.435:387
0.435:336
0.435:300
0.435:285
0.435:294
0.436:320
0.436:356
0.436:400
0.436:438
0.437:472
0.437:512
0.438:563
0.438:597
0.438:611
0.440:604
0.440:580
0.440:544
0.440:507
0.441:471
0.441:441
0.442:400
0.442:347
0.442:315
0.442:305
0.442:314
0.442:337
0.442:376
0.443:414
0.443:452
0.443:487
0.443:529
0.443:579
0.443:613
0.444:627
0.444:618
0.444:591
0.444:556
0.444:519
0.445:486
0.445:457
0.445:413
0.445:359
0.445:334
0.445:327
0.446:339
0.446:365
0.446:401
0.446:440
0.446:477
0.447:477
0.447:508
0.447:551
0.447:600
0.447:631
0.447:641
0.448:630
0.448:602
0.448:569
0.448:532
0.448:500
0.449:471
0.449:426
0.449:376
0.449:346
0.449:338
0.449:349
0.450:376
0.450:414
0.450:455
0.450:496
0.450:529
0.450:573
0.450:618
0.450:646
0.450:653
0.452:640
0.452:614
0.452:581
0.452:545
0.452:509
0.452:479
0.453:432
0.453:383
0.453:354
0.455:348
0.455:362
0.455:393
0.455:432
0.455:472
0.456:511
0.456:545
0.457:593
0.457:640
0.457:668
0.457:674
0.457:658
0.458:628
0.458:591
0.458:554
0.458:520
0.458:490
0.459:445
0.459:395
0.459:367
0.459:363
0.459:380
0.459:411
0.460:449
0.460:491
0.460:491
0.460:528
0.460:558
0.461:604
0.461:649
0.461:678
0.461:682
0.461:666
0.461:636
0.462:600
0.462:562
0.462:529
0.462:496
0.462:447
0.462:400
0.462:373
0.462:368
0.463:382
0.463:412
0.463:449
0.463:489
0.463:526
0.463:558
0.464:604
0.464:647
0.464:671
0.464:672
0.464:654
0.464:622
0.465:583
0.465:546
0.465:510
0.465:473
0.465:419
0.466:368
0.466:341
0.466:338
0.466:355
0.466:385
0.466:419
0.467:460
0.467:495
0.467:525
0.467:570
0.467:611
0.468:633
0.468:632
0.468:611
0.468:575
0.468:536
0.468:498
0.469:460
0.469:425
0.469:376
0.469:330
0.469:303
0.470:299
0.471:315
0.471:344
0.472:380
0.472:380
0.472:415
0.472:450
0.472:484
0.472:529
0.472:569
0.472:589
0.473:588
0.473:570
0.473:536
0.473:493
0.473:454
0.473:421
0.473:388
0.474:337
0.474:290
0.474:268
0.474:271
0.475:291
0.475:323
0.475:360
0.475:399
0.475:435
0.476:472
0.476:517
0.476:557
0.476:575
0.476:568
0.476:549
0.477:517
0.477:478
0.477:438
0.477:407
0.477:371
0.478:320
0.478:280
0.478:260
0.478:264
0.478:286
0.479:319
0.479:357
0.479:398
0.479:431
0.479:470
0.479:520
0.480:559
0.480:580
0.480:578
0.480:558
0.480:521
0.480:483
0.480:450
0.480:418
0.480:378
0.481:327
0.481:292
0.481:276
0.481:279
0.481:299
0.482:331
0.482:331
0.482:371
0.482:412
0.482:449
0.482:485
0.482:534
0.482:574
0.484:591
0.484:586
0.485:565
0.485:530
0.485:493
0.485:460
0.485:427
0.486:385
0.486:334
0.486:302
0.486:283
0.486:288
0.488:311
0.488:347
0.488:388
0.489:428
0.489:461
0.489:499
0.489:549
0.489:584
0.490:600
0.490:592
0.490:573
0.490:41
0.490:512
0.490:509
0.490:480
0.492:459
0.492:437
0.492:423
0.492:414
0.492:414
0.492:421
0.493:431
0.493:427
0.493:428
0.493:450
0.493:471
0.493:492
0.494:507
0.494:515
0.494:514
0.494:509
0.494:503
0.495:508
0.495:508
0.495:505
0.495:483
0.495:461
0.495:437
0.496:424
0.496:417
0.496:420
0.496:430
0.496:445
0.497:452
0.497:465
0.497:496
0.497:528
0.497:561
0.497:583
0.498:597
0.498:609
0.498:626
0.498:639
0.498:668
0.499:684
0.499:684
0.499:687
0.499:691
0.499:706
0.499:725
0.500:756
0.500:799
0.500:841
0.500:866
0.501:891
0.501:933
0.501:969
0.501:990
0.501:989
0.502:990
0.502:989
0.502:989
0.502:989
0.502:989
0.502:989
0.502:990
0.502:939
0.503:844
0.503:744
0.503:665
0.504:607
0.505:566
0.505:526
0.505:481
0.505:460
0.505:455
0.506:447
0.506:435
0.506:419
0.506:407
0.506:405
0.507:411
0.507:417
0.507:417
0.507:437
0.508:444
0.508:429
0.508:418
0.508:416
0.508:415
0.508:411
0.509:411
0.509:421
0.509:436
0.509:437
0.509:450
0.510:482
0.510:520
0.510:553
0.510:572
0.510:580
0.510:575
0.510:562
0.510:542
0.512:534
0.512:514
0.512:483
0.512:453
0.512:427
0.513:411
0.513:403
0.513:398
0.513:394
0.513:395
0.513:380
0.514:386
0.514:409
0.514:430
0.514:450
0.514:464
0.515:469
0.515:468
0.515:463
0.515:460
0.515:468
0.516:463
0.516:442
0.516:417
0.516:397
0.516:385
0.517:380
0.517:381
0.517:389
0.517:398
0.517:393
0.518:402
0.518:426
0.518:447
0.518:469
0.518:481
0.518:483
0.519:483
0.519:479
0.519:479
0.519:478
0.519:486
0.520:479
0.520:456
0.520:433
0.521:416
0.521:402
0.521:401
0.522:404
0.522:413
0.522:418
0.522:414
0.522:427
0.522:451
0.522:469
0.522:488
0.522:506
0.522:507
0.522:504
0.522:500
0.522:493
0.524:505
0.524:496
0.524:470
0.524:447
0.524:431
0.524:419
0.525:417
0.525:420
0.525:428
0.525:434
0.525:430
0.525:441
0.526:466
0.526:490
0.526:510
0.526:524
0.526:530
0.527:527
0.527:519
0.527:517
0.527:526
0.527:516
0.528:494
0.528:473
0.528:456
0.528:441
0.528:437
0.528:440
0.529:445
0.529:452
0.529:444
0.529:453
0.529:479
0.530:506
0.530:524
0.530:535
0.530:537
0.530:535
0.530:535
0.530:531
0.531:534
0.531:542
0.531:525
0.531:501
0.531:479
0.532:463
0.532:452
0.532:449
0.532:452
0.532:460
0.532:466
0.533:460
0.533:472
0.533:494
0.533:518
0.533:535
0.534:550
0.534:553
0.534:550
0.534:544
0.534:543
0.535:551
0.535:537
0.535:516
0.535:492
0.535:473
0.535:461
0.536:461
0.536:465
0.536:473
0.537:476
0.537:468
0.537:483
0.538:507
0.538:534
0.539:551
0.539:559
0.539:564
0.539:561
0.540:552
0.540:554
0.540:564
0.540:551
0.540:529
0.540:502
0.542:484
0.542:475
0.542:475
0.542:478
0.542:488
0.543:493
0.543:483
0.543:499
0.543:521
0.543:548
0.543:562
0.544:569
0.544:570
0.544:570
0.544:566
0.544:561
0.545:560
0.545:566
0.545:548
0.545:526
0.545:502
0.546:485
0.546:474
0.546:473
0.546:475
0.546:483
0.546:485
0.547:479
0.547:496
0.547:517
0.547:538
0.547:552
0.548:566
0.548:567
0.548:559
0.548:552
0.548:551
0.548:553
0.549:537
0.549:513
0.549:484
0.549:468
0.549:456
0.550:452
0.550:451
0.550:459
0.550:460
0.550:455
0.550:471
0.551:492
0.551:512
0.551:527
0.551:534
0.551:532
0.552:526
0.552:516
0.552:517
0.552:518
0.552:497
0.552:472
0.552:445
0.553:429
0.553:416
0.553:411
0.553:414
0.554:421
0.554:421
0.554:415
0.555:430
0.555:443
0.555:462
0.555:478
0.555:489
0.555:489
0.555:489
0.556:479
0.556:469
0.556:470
0.556:473
0.557:453
0.557:431
0.557:407
0.557:390
0.557:381
0.557:381
0.558:380
0.558:388
0.558:389
0.558:385
0.558:402
0.559:423
0.559:442
0.559:452
0.559:462
0.559:464
0.559:457
0.560:450
0.560:458
0.560:461
0.560:439
0.560:417
0.560:394
0.560:377
0.560:364
0.562:361
0.562:368
0.562:379
0.562:378
0.562:377
0.563:396
0.563:420
0.563:443
0.563:457
0.563:467
0.563:469
0.563:464
0.563:458
0.564:464
0.564:461
0.564:438
0.564:416
0.564:396
0.564:381
0.565:373
0.565:373
0.565:380
0.565:391
0.565:388
0.566:387
0.566:409
0.566:432
0.566:453
0.566:466
0.566:466
0.567:476
0.567:478
0.567:471
0.567:465
0.567:473
0.568:469
0.568:448
0.568:429
0.568:408
0.568:393
0.568:384
0.569:383
0.569:390
0.569:398
0.569:396
0.569:400
0.570:423
0.570:444
0.571:467
0.571:485
0.572:493
0.572:493
0.572:488
0.572:481
0.573:488
0.573:488
0.573:464
0.573:438
0.573:419
0.576:405
0.576:397
0.576:399
0.576:408
0.576:417
0.577:411
0.577:412
0.578:434
0.580:456
0.580:478
0.580:492
0.580:499
0.581:501
0.581:496
0.581:492
0.582:504
0.582:502
0.585:477
0.585:451
0.585:431
0.585:419
0.586:416
0.586:413
0.586:419
0.586:429
0.586:425
0.587:430
0.588:451
0.589:473
0.589:494
0.605:494
0.605:510
0.605:517
0.606:517
0.606:511
0.606:506
0.606:515
0.609:511
0.609:487
0.609:462
0.610:442
0.610:429
0.610:422
0.610:425
0.610:432
0.610:439
0.613:431
0.613:434
0.613:454
0.613:480
0.614:501
0.614:516
0.614:520
0.614:520
0.614:516
0.614:509
0.617:516
0.617:514
0.617:491
0.617:466
0.634:446
0.634:433
0.634:424
0.638:428
0.638:431
0.638:439
0.638:436
0.638:443
0.638:466
0.638:486
0.638:506
0.638:521
0.638:527
0.642:525
0.642:521
0.642:513
0.643:516
0.643:511
0.643:488
0.643:466
0.643:444
0.643:430
0.643:426
0.645:430
0.646:437
0.646:446
0.646:440
0.647:446
0.647:467
0.647:491
0.662:491
0.662:513
0.663:528
0.666:534
0.666:532
0.666:526
0.667:521
0.667:531
0.667:526
0.667:502
0.667:477
0.668:458
0.670:443
0.670:438
0.670:437
0.670:446
0.670:454
0.672:447
0.672:453
0.672:481
0.672:502
0.673:520
0.674:532
0.675:540
0.675:541
0.675:534
0.676:527
0.676:538
0.676:530
0.676:502
0.695:481
0.695:462
0.696:447
0.696:442
0.696:445
0.696:455
0.697:469
0.697:467
0.697:473
0.699:497
0.699:521
0.699:540
0.700:553
0.700:558
0.700:558
0.700:551
0.700:549
0.702:559
0.704:549
0.704:525
0.704:501
0.704:482
0.705:469
0.705:466
0.705:466
0.706:471
0.706:476
0.707:469
0.707:480
0.707:504
0.724:504
0.724:524
0.724:543
0.725:553
0.725:556
0.725:553
0.725:546
0.725:540
0.728:547
0.728:537
0.728:507
0.728:479
0.728:463
0.729:446
0.729:440
0.729:443
0.729:449
0.730:453
0.731:445
0.731:455
0.732:476
0.732:500
0.732:521
0.732:530
0.732:533
0.734:529
0.734:519
0.736:514
0.736:520
0.736:505
0.752:480
0.752:454
0.753:435
0.753:421
0.753:417
0.756:418
0.757:424
0.757:429
0.757:420
0.758:432
0.758:455
0.758:479
0.758:498
0.758:510
0.760:512
0.760:508
0.760:500
0.760:497
0.760:506
0.760:492
0.762:470
0.762:447
0.762:429
0.762:415
0.764:411
0.764:409
0.764:419
0.764:427
0.766:415
0.766:429
0.781:429
0.781:454
0.781:478
0.781:499
0.785:511
0.785:511
0.786:507
0.786:499
0.786:495
0.787:502
0.787:486
0.787:463
0.787:441
0.789:427
0.790:415
0.790:415
0.790:416
0.790:421
0.790:426
0.790:420
0.790:435
0.791:459
0.791:482
0.792:495
0.792:507
0.792:511
0.794:505
0.794:497
0.794:499
0.794:507
0.809:487
0.814:464
0.814:443
0.814:426
0.814:413
0.814:411
0.815:413
0.815:423
0.815:427
0.815:418
0.818:428
0.818:449
0.818:474
0.819:494
0.819:510
0.819:512
0.820:509
0.820:504
0.820:504
0.820:512
0.822:495
0.822:471
0.822:444
0.822:428
0.823:418
0.823:413
0.824:416
0.824:425
0.824:429
0.826:428
0.843:428
0.843:445
0.843:467
0.843:491
0.843:504
0.843:515
0.844:515
0.844:511
0.844:501
0.847:506
0.847:515
0.847:500
0.847:483
0.848:467
0.848:463
0.848:470
0.849:483
0.849:500
0.849:520
0.851:535
0.851:548
0.851:586
0.851:627
0.851:671
0.852:709
0.852:744
0.852:769
0.852:794
0.854:822
0.854:871
0.871:911
0.871:916
0.871:913
0.871:916
0.871:923
0.871:929
0.875:944
0.875:976
0.875:990
0.875:990
0.875:989
0.876:989
0.876:989
0.876:988
0.876:989
0.876:989
0.879:974
0.879:890
0.879:802
0.879:742
0.879:687
0.880:612
0.880:544
0.880:491
0.880:451
0.883:396
0.883:340
0.883:308
0.883:300
0.883:290
0.899:290
0.900:291
0.900:325
0.900:365
0.900:409
0.904:442
0.904:465
0.904:469
0.904:474
0.904:478
0.905:494
0.905:508
0.905:500
0.905:496
0.905:490
0.908:486
0.909:479
0.909:474
0.909:472
0.910:468
0.910:450
0.910:433
0.910:442
0.911:455
0.912:473
0.912:485
0.912:490
0.912:488
0.913:475
0.913:460
0.928:461
0.928:460
0.933:435
0.933:411
0.933:386
0.934:369
0.934:360
0.934:361
0.934:368
0.935:376
0.935:373
0.935:375
0.938:398
0.938:422
0.938:447
0.938:464
0.938:475
0.938:477
0.939:471
0.939:465
0.939:469
0.941:468
0.941:445
0.941:425
0.941:405
0.941:390
0.941:383
0.941:387
0.941:391
0.942:400
0.957:400
0.962:400
0.962:397
0.962:418
0.962:444
0.962:466
0.962:482
0.962:490
0.962:492
0.962:487
0.964:482
0.966:492
0.966:492
0.966:466
0.966:442
0.967:419
0.967:409
0.967:404
0.967:403
0.968:409
0.971:416
0.971:415
0.971:418
0.972:443
0.972:463
0.972:484
0.972:500
0.972:510
0.972:510
0.972:502
0.989:499
0.991:508
0.991:508
0.991:485
0.991:461
0.991:437
0.992:423
0.992:420
0.993:422
0.993:431
0.995:438
0.995:430
0.995:429
0.995:454
0.995:480
0.995:503
0.996:519
0.998:524
0.998:525
0.999:522
0.999:515
0.999:520
1.000:521
1.000:497
1.000:470
1.000:448
1.001:436
1.002:432
1.002:435
1.002:443
1.019:443
1.019:454
1.019:451
1.019:453
1.019:477
1.019:503
1.021:518
1.022:529
1.023:535
1.023:532
1.023:525
1.023:522
1.023:534
1.023:530
1.023:506
1.025:481
1.027:463
1.027:447
1.027:440
1.027:443
1.028:449
1.028:456
1.028:450
1.028:456
1.028:478
1.029:508
1.030:530
1.030:543
1.030:549
1.031:552
1.047:546
1.047:540
1.047:549
1.051:541
1.051:518
1.051:496
1.051:478
1.053:465
1.053:458
1.053:457
1.054:464
1.055:471
1.055:462
1.056:471
1.056:498
1.056:523
1.056:542
1.056:558
1.057:566
1.057:564
1.057:554
1.057:545
1.060:555
1.060:549
1.060:523
1.060:496
1.061:476
1.061:466
1.061:465
1.061:468
1.075:468
1.075:477
1.080:485
1.080:477
1.080:485
1.080:507
1.080:526
1.081:542
1.081:555
1.081:560
1.081:559
1.081:554
1.084:547
1.084:554
1.084:543
1.084:518
1.085:498
1.085:482
1.085:462
1.085:455
1.085:457
1.086:466
1.088:473
1.088:462
1.088:464
1.088:485
1.088:513
1.088:534
1.088:545
1.088:546
1.109:542
1.109:536
1.109:533
1.109:540
1.110:524
1.110:493
1.110:468
1.110:449
1.110:433
1.112:435
1.112:440
1.112:445
1.112:447
1.113:433
1.113:440
1.113:464
1.113:488
1.113:504
1.117:511
1.117:511
1.117:508
1.117:500
1.118:496
1.118:502
1.118:489
1.118:466
1.118:436
1.118:414
1.120:400
1.120:392
1.137:392
1.137:389
1.137:394
1.137:400
1.137:391
1.138:404
1.138:428
1.138:451
1.141:471
1.141:483
1.141:479
1.141:473
1.143:463
1.143:460
1.143:470
1.143:458
1.143:430
1.146:403
1.146:388
1.146:377
1.146:376
1.147:377
1.147:382
1.147:384
1.147:377
1.147:391
1.148:418
1.150:443
1.150:457
1.150:466
1.166:468
1.166:469
1.166:463
1.167:456
1.167:461
1.170:445
1.171:423
1.171:399
1.171:381
1.172:365
1.172:363
1.172:368
1.172:381
1.172:382
1.174:369
1.174:382
1.174:409
1.174:435
1.175:459
1.175:474
1.175:475
1.175:471
1.175:464
1.176:468
1.178:472
1.178:453
1.178:430
1.178:404
1.179:393
1.179:388
1.194:388
1.194:387
1.194:385
1.194:390
1.199:389
1.199:385
1.199:405
1.199:434
1.199:462
1.200:479
1.200:488
1.200:485
1.200:477
1.203:468
1.203:470
1.203:478
1.204:467
1.204:446
1.204:421
1.204:404
1.204:391
1.204:390
1.205:396
1.207:403
1.207:406
1.207:401
1.207:419
1.207:443
1.207:471
1.207:489
1.223:504
1.228:509
1.228:500
1.228:493
1.228:496
1.228:499
1.228:477
1.229:453
1.229:429
1.229:410
1.232:400
1.232:402
1.232:410
1.232:423
1.232:418
1.232:411
1.232:434
1.232:463
1.232:489
1.233:501
1.236:513
1.236:520
1.237:504
1.237:493
1.237:498
1.237:509
1.237:494
1.237:471
1.238:444
1.239:424
1.256:424
1.256:411
1.256:411
1.257:413
1.257:418
1.257:424
1.257:431
1.257:455
1.258:479
1.260:499
1.260:509
1.260:511
1.261:513
1.262:515
1.262:509
1.262:508
1.262:508
1.262:488
1.263:465
1.264:445
1.264:428
1.264:417
1.264:417
1.265:415
1.265:428
1.265:433
1.265:432
1.265:457
1.268:481
1.268:503
1.284:521
1.285:533
1.285:526
1.285:515
1.285:502
1.285:499
1.288:506
1.289:488
1.289:465
1.289:441
1.289:428
1.290:421
1.290:424
1.290:429
1.290:438
1.290:440
1.293:437
1.293:453
1.293:473
1.294:495
1.294:506
1.294:522
1.294:523
1.294:513
1.294:513
1.297:527
1.297:518
1.297:483
1.297:453
1.298:428
1.313:428
1.313:426
1.313:429
1.313:430
1.313:437
1.318:447
1.318:441
1.318:440
1.318:457
1.319:471
1.319:484
1.319:501
1.319:535
1.320:541
1.321:528
1.322:518
1.322:519
1.323:518
1.323:503
1.323:481
1.324:458
1.324:439
1.324:424
1.325:423
1.326:431
1.326:441
1.326:440
1.326:445
1.327:473
1.327:507
1.341:536
1.341:558
1.346:571
1.346:577
1.346:570
1.346:556
1.347:560
1.347:557
1.347:532
1.347:506
1.347:486
1.348:477
1.349:472
1.350:470
1.350:469
1.350:476
1.350:471
1.350:473
1.351:498
1.351:517
1.351:539
1.353:557
1.355:566
1.355:560
1.355:546
1.355:536
1.355:538
1.355:532
1.355:510
1.355:490
1.370:490
1.375:477
1.375:458
1.375:441
1.375:435
1.375:441
1.375:457
1.376:457
1.376:453
1.376:468
1.376:486
1.378:511
1.378:525
1.379:522
1.379:516
1.379:509
1.379:504
1.379:510
1.380:505
1.380:479
1.382:458
1.382:427
1.384:406
1.384:391
1.384:386
1.384:393
1.384:408
1.385:406
1.385:408
1.385:434
1.403:456
1.404:469
1.404:485
1.404:498
1.404:504
1.404:503
1.404:499
1.408:506
1.408:501
1.408:473
1.409:447
1.409:428
1.409:420
1.409:413
1.409:407
1.410:414
1.410:414
1.412:406
1.412:419
1.412:449
1.412:466
1.413:490
1.413:504
1.413:511
1.413:508
1.413:499
1.413:490
1.416:502
1.416:502
1.416:479
1.431:479
1.432:456
1.432:431
1.432:418
1.432:415
1.432:413
1.433:415
1.437:419
1.437:413
1.437:420
1.437:442
1.437:461
1.437:477
1.437:495
1.437:503
1.438:507
1.441:507
1.441:503
1.441:505
1.441:493
1.441:468
1.442:442
1.442:421
1.442:406
1.442:397
1.442:399
1.444:406
1.445:427
1.445:427
1.445:436
1.460:462
1.460:490
1.460:506
1.465:513
1.465:518
1.465:512
1.465:501
1.466:498
1.466:512
1.466:505
1.466:476
1.466:450
1.466:423
1.470:408
1.470:411
1.470:420
1.470:424
1.470:427
1.472:418
1.472:433
1.472:456
1.472:475
1.473:488
1.473:504
1.473:512
1.473:521
1.474:530
1.474:531
1.474:532
1.474:514
1.490:514
1.490:498
1.494:483
1.494:477
1.494:479
1.494:488
1.494:496
1.495:514
1.495:531
1.495:533
1.495:560
1.495:603
1.499:650
1.499:684
1.499:721
1.499:765
1.499:802
1.500:827
1.500:854
1.500:892
1.500:913
1.500:927
1.502:937
1.502:935
1.502:930
1.502:935
1.502:962
1.503:990
1.503:990
1.503:990
1.522:990
1.522:989
1.522:989
1.522:989
1.522:990
1.522:951
1.522:867
1.523:790
1.523:733
1.527:682
1.527:616
1.527:548
1.527:498
1.528:446
1.528:397
1.528:350
1.528:318
1.528:315
1.531:307
1.531:299
1.531:319
1.531:356
1.531:405
1.531:445
1.531:465
1.531:469
1.532:479
1.532:489
1.534:498
1.534:514
1.550:514
1.550:510
1.550:502
1.552:496
1.552:502
1.552:489
1.552:477
1.552:474
1.555:478
1.555:469
1.555:442
1.555:447
1.556:467
1.556:478
1.556:486
1.556:499
1.556:507
1.559:501
1.559:482
1.559:462
1.559:468
1.560:451
1.560:426
1.560:404
1.560:387
1.560:378
1.560:374
1.562:383
1.562:389
1.563:394
1.579:388
1.580:397
1.580:411
1.580:425
1.580:448
1.583:470
1.583:477
1.584:466
1.584:459
1.584:462
1.584:466
1.584:447
1.584:430
1.585:407
1.587:394
1.588:389
1.588:390
1.588:390
1.588:400
1.588:414
1.588:412
1.589:422
1.589:439
1.589:457
1.591:467
1.591:480
1.592:492
1.592:503
1.592:498
1.592:494
1.608:494
1.608:497
1.608:484
1.608:463
1.612:438
1.612:418
1.612:405
1.612:394
1.614:398
1.614:410
1.614:414
1.614:410
1.614:426
1.617:450
1.617:478
1.617:493
1.617:511
1.617:519
1.618:524
1.618:514
1.618:508
1.618:525
1.618:518
1.621:488
1.621:451
1.621:437
1.621:428
1.621:426
1.621:431
1.622:433
1.637:436
1.641:431
1.641:442
1.641:461
1.641:487
1.642:515
1.642:534
1.642:527
1.642:516
1.642:506
1.645:514
1.645:527
1.645:520
1.645:502
1.646:475
1.646:447
1.646:433
1.646:439
1.646:446
1.647:463
1.649:467
1.649:464
1.649:463
1.649:466
1.649:498
1.650:520
1.650:534
1.650:539
1.650:530
1.652:531
1.669:531
1.669:541
1.671:545
1.671:536
1.671:509
1.671:482
1.671:473
1.671:476
1.671:477
1.674:474
1.674:478
1.674:473
1.674:465
1.675:488
1.675:512
1.675:538
1.675:550
1.675:557
1.675:571
1.678:570
1.678:556
1.678:551
1.678:547
1.679:529
1.679:507
1.679:487
1.679:483
1.679:479
1.682:468
1.682:460
1.698:473
1.698:486
1.699:493
1.699:510
1.699:537
1.699:568
1.703:586
1.703:581
1.705:568
1.705:558
1.705:548
1.705:554
1.706:549
1.706:512
1.706:493
1.706:483
1.707:483
1.707:470
1.707:464
1.707:477
1.707:487
1.707:473
1.708:469
1.708:488
1.708:504
1.710:534
1.710:554
1.710:556
1.710:550
1.711:545
1.727:545
1.727:536
1.727:536
1.727:540
1.728:523
1.731:496
1.731:472
1.731:453
1.731:455
1.732:470
1.732:502
1.732:521
1.732:509
1.733:503
1.733:522
1.735:549
1.737:576
1.737:582
1.737:574
1.737:565
1.737:556
1.738:543
1.738:543
1.738:540
1.739:520
1.739:503
1.739:477
1.739:457
1.740:439
1.740:436
1.755:448
1.755:450
1.760:443
1.760:438
1.760:463
1.760:491
1.760:507
1.761:509
1.761:517
1.761:519
1.761:512
1.763:492
1.764:473
1.764:468
1.764:451
1.764:441
1.764:423
1.764:407
1.764:399
1.764:381
1.764:376
1.768:383
1.768:389
1.768:400
1.769:414
1.769:431
1.770:450
1.770:472
1.770:482
1.770:482
1.784:482
1.788:482
1.788:470
1.788:460
1.788:457
1.789:438
1.789:417
1.789:390
1.789:360
1.789:346
1.790:341
1.792:350
1.792:360
1.792:357
1.793:361
1.793:390
1.793:421
1.793:441
1.794:451
1.794:454
1.797:451
1.797:454
1.797:445
1.797:444
1.798:439
1.798:419
1.798:404
1.798:397
1.798:382
1.799:378
1.817:384
1.817:392
1.817:386
1.817:372
1.818:389
1.818:408
1.818:424
1.821:442
1.821:449
1.821:453
1.821:455
1.821:449
1.822:454
1.822:461
1.822:451
1.822:426
1.822:402
1.825:384
1.825:359
1.825:357
1.825:373
1.826:387
1.826:392
1.826:394
1.826:399
1.826:421
1.829:456
1.829:474
1.829:480
1.829:477
1.845:477
1.845:483
1.845:488
1.845:488
1.846:505
1.846:486
1.846:446
1.849:422
1.849:403
1.849:401
1.850:400
1.850:394
1.850:395
1.850:405
1.850:396
1.851:404
1.854:432
1.854:444
1.854:455
1.854:465
1.855:474
1.855:478
1.855:464
1.855:462
1.855:480
1.855:485
1.858:466
1.858:442
1.858:426
1.858:418
1.874:422
1.874:416
1.874:412
1.878:428
1.879:431
1.879:438
1.879:467
1.879:484
1.880:497
1.880:509
1.880:510
1.880:509
1.880:494
1.882:479
1.882:495
1.882:494
1.882:464
1.882:436
1.882:418
1.882:404
1.884:389
1.884:382
1.887:386
1.887:409
1.887:430
1.887:458
1.887:480
1.887:493
1.887:501
1.888:516
1.903:516
1.903:527
1.907:522
1.907:520
1.907:530
1.907:541
1.908:522
1.908:486
1.908:453
1.908:429
1.908:419
1.908:428
1.912:441
1.912:441
1.912:436
1.912:432
1.912:452
1.913:487
1.913:500
1.913:499
1.913:499
1.913:519
1.915:525
1.915:520
1.916:514
1.916:536
1.916:536
1.916:519
1.916:487
1.917:449
1.935:434
1.935:442
1.937:443
1.937:434
1.937:418
1.937:423
1.937:466
1.937:509
1.938:536
1.940:543
1.940:539
1.940:543
1.940:548
1.941:538
1.941:528
1.941:539
1.941:534
1.941:504
1.944:475
1.944:456
1.944:443
1.944:443
1.944:445
1.945:447
1.945:452
1.945:451
1.945:466
1.946:495
1.948:526
1.948:552
1.964:552
1.964:558
1.965:562
1.965:562
1.965:552
1.965:546
1.965:552
1.965:549
1.969:527
1.970:502
1.970:476
1.970:458
1.970:449
1.970:455
1.970:464
1.970:463
1.971:456
1.972:472
1.972:493
1.972:512
1.972:522
1.972:531
1.973:525
1.973:524
1.973:532
1.973:547
1.973:551
1.977:527
1.977:488
1.978:467
1.992:447
1.993:435
1.993:438
1.993:433
1.993:434
1.997:438
1.997:429
1.997:442
1.997:478
1.998:496
1.998:501
1.998:510
1.998:513
1.998:517
2.002:530
2.002:517
2.002:510
2.003:493
2.003:463
2.003:429
2.003:420
2.003:412
2.003:408
2.003:412
2.005:420
2.005:430
2.005:423
2.006:427
2.006:451
2.006:478
2.021:478
2.021:489
2.021:500
2.021:502
2.026:513
2.026:503
2.026:497
2.026:505
2.026:494
2.026:474
2.026:451
2.026:423
2.027:403
2.030:397
2.030:397
2.030:416
2.030:427
2.030:417
2.031:429
2.031:463
2.031:478
2.031:482
2.031:502
2.034:498
2.034:482
2.034:470
2.034:482
2.034:491
2.035:468
2.035:455
2.050:443
2.055:422
2.055:398
2.055:398
2.055:397
2.055:402
2.056:419
2.056:435
2.056:466
2.056:481
2.059:486
2.059:501
2.059:521
2.059:524
2.060:508
2.060:494
2.060:502
2.060:514
2.060:491
2.061:466
2.062:438
2.062:419
2.062:412
2.062:413
2.062:411
2.062:419
2.063:420
2.063:423
2.063:437
2.067:453
2.083:453
2.083:475
2.083:500
2.083:508
2.084:509
2.084:503
2.084:499
2.084:497
2.084:513
2.087:502
2.087:483
2.087:445
2.087:434
2.087:435
2.087:414
2.087:413
2.087:420
2.087:433
2.087:434
2.092:456
2.092:484
2.092:499
2.092:498
2.092:516
2.093:527
2.093:533
2.093:528
2.093:551
2.095:564
2.095:542
2.112:526
2.112:499
2.112:500
2.112:520
2.113:536
2.113:559
2.116:598
2.116:603
2.116:615
2.116:664
2.117:711
2.117:756
2.117:795
2.117:821
2.117:844
2.118:880
2.120:909
2.120:946
2.120:969
2.120:945
2.120:921
2.120:909
2.120:883
2.120:872
2.122:894
2.124:903
2.124:907
2.124:892
2.124:867
2.125:845
2.140:845
2.141:808
2.141:772
2.141:740
2.141:707
2.145:665
2.145:606
2.145:557
2.145:532
2.146:501
2.146:472
2.146:437
2.146:395
2.146:352
2.147:330
2.149:321
2.149:343
2.149:367
2.149:374
2.149:392
2.149:431
2.150:456
2.150:492
2.150:505
2.153:501
2.153:506
2.153:511
2.154:518
2.154:540
2.154:545
2.169:531
2.169:514
2.174:508
2.174:498
2.174:491
2.174:477
2.174:488
2.175:500
2.175:478
2.175:450
2.175:444
2.178:451
2.178:483
2.178:501
2.178:508
2.179:513
2.179:499
2.179:489
2.179:479
2.179:475
2.179:453
2.182:430
2.182:406
2.182:390
2.182:386
2.183:400
2.183:411
2.183:412
2.183:403
2.183:412
2.197:412
2.202:435
2.203:452
2.203:469
2.203:485
2.203:488
2.203:473
2.203:472
2.205:476
2.205:492
2.205:497
2.206:473
2.206:448
2.206:421
2.207:401
2.207:394
2.207:397
2.207:400
2.207:402
2.208:395
2.210:409
2.210:440
2.210:459
2.210:479
2.211:496
2.211:515
2.211:531
2.211:529
2.211:505
2.212:519
2.230:535
2.230:500
2.230:466
2.231:438
2.231:418
2.232:416
2.232:421
2.235:426
2.235:437
2.236:433
2.236:436
2.236:453
2.236:474
2.236:502
2.238:521
2.238:526
2.238:534
2.239:531
2.239:523
2.239:529
2.239:527
2.240:507
2.240:491
2.240:468
2.240:447
2.240:440
2.242:433
2.242:443
2.242:463
2.242:457
2.259:457
2.259:458
2.260:478
2.260:504
2.260:525
2.260:541
2.262:546
2.263:545
2.263:542
2.263:537
2.263:543
2.264:542
2.264:516
2.264:493
2.264:479
2.264:461
2.268:456
2.268:458
2.268:451
2.269:455
2.269:458
2.269:480
2.270:512
2.270:534
2.270:548
2.270:559
2.272:565
2.272:562
2.272:555
2.272:543
2.287:553
2.288:547
2.288:529
2.292:507
2.292:489
2.292:479
2.292:468
2.292:461
2.293:473
2.293:485
2.293:471
2.293:471
2.293:492
2.296:514
2.296:535
2.296:564
2.296:581
2.297:580
2.297:573
2.297:570
2.297:574
2.297:576
2.300:561
2.300:535
2.301:510
2.301:491
2.302:479
2.302:483
2.302:492
2.302:497
2.316:497
2.316:489
2.321:506
2.321:530
2.321:543
2.321:572
2.322:596
2.322:594
2.322:588
2.322:578
2.322:582
2.322:605
2.325:603
2.325:580
2.325:549
2.325:516
2.326:490
2.326:476
2.326:487
2.326:515
2.326:525
2.329:511
2.329:511
2.329:532
2.329:553
2.330:572
2.330:589
2.330:598
2.330:594
2.330:571
2.349:567
2.349:576
2.349:570
2.349:546
2.350:520
2.350:499
2.350:483
2.350:475
2.350:477
2.353:486
2.353:496
2.354:481
2.354:485
2.354:518
2.354:541
2.354:557
2.355:563
2.355:560
2.358:548
2.358:542
2.358:547
2.358:558
2.359:533
2.359:487
2.359:460
2.359:445
2.359:435
2.360:420
2.362:420
2.362:421
2.378:421
2.378:421
2.378:415
2.379:427
2.379:447
2.379:468
2.379:475
2.379:480
2.382:490
2.382:500
2.382:500
2.383:488
2.383:496
2.383:475
2.383:442
2.384:413
2.384:390
2.386:380
2.386:373
2.386:372
2.386:377
2.388:376
2.388:377
2.388:402
2.389:430
2.389:444
2.389:451
2.390:463
2.390:474
2.390:470
2.407:459
2.407:452
2.407:455
2.407:438
2.408:423
2.410:406
2.410:380
2.410:358
2.412:351
2.412:358
2.412:359
2.412:357
2.412:349
2.412:364
2.415:385
2.415:408
2.415:425
2.415:445
2.416:452
2.416:447
2.416:440
2.416:439
2.416:451
2.417:437
2.419:407
2.419:372
2.419:348
2.419:339
2.419:348
2.420:359
2.436:359
2.436:377
2.436:382
2.436:371
2.439:392
2.439:419
2.440:444
2.440:461
2.440:476
2.440:472
2.442:459
2.442:448
2.442:441
2.444:438
2.444:412
2.444:393
2.444:381
2.445:362
2.445:356
2.445:360
2.445:373
2.445:390
2.445:403
2.448:397
2.448:399
2.448:426
2.448:460
2.449:485
2.449:499
2.449:491
2.463:476
2.468:461
2.469:465
2.469:479
2.469:459
2.469:445
2.469:431
2.470:409
2.470:395
2.470:388
2.473:381
2.473:381
2.473:385
2.473:395
2.473:416
2.474:432
2.474:448
2.474:468
2.474:482
2.474:495
2.476:504
2.476:505
2.476:505
2.477:513
2.477:489
2.477:467
2.477:422
2.477:397
2.477:391
2.480:398
2.497:398
2.497:414
2.497:428
2.497:417
2.497:411
2.497:425
2.497:444
2.497:467
2.498:483
2.501:514
2.502:513
2.502:483
2.502:472
2.502:484
2.502:504
2.502:491
2.502:469
2.502:451
2.503:428
2.504:405
2.505:404
2.505:417
2.505:430
2.505:435
2.505:425
2.506:421
2.506:450
2.507:478
2.509:501
2.509:517
2.525:514
2.525:510
2.525:499
2.525:511
2.525:509
2.525:478
2.530:452
2.530:434
2.530:425
2.530:408
2.531:406
2.531:426
2.531:452
2.531:466
2.531:474
2.534:493
2.534:523
2.534:545
2.534:537
2.535:543
2.535:551
2.536:544
2.536:541
2.536:533
2.536:526
2.538:497
2.538:479
2.539:462
2.539:448
2.540:442
2.554:442
2.554:449
2.554:465
2.555:469
2.555:460
2.558:456
2.559:487
2.559:513
2.559:531
2.559:537
2.559:546
2.560:526
2.560:525
2.560:531
2.560:539
2.562:553
2.562:532
2.562:507
2.562:488
2.562:471
2.563:452
2.563:450
2.563:460
2.563:478
2.566:478
2.566:484
2.566:497
2.566:498
2.567:517
2.567:533
2.582:535
2.582:545
2.586:548
2.587:552
2.587:555
2.587:537
2.587:503
2.588:473
2.588:452
2.589:429
2.589:424
2.591:431
2.591:426
2.592:423
2.592:437
2.592:463
2.592:476
2.592:470
2.593:480
2.593:490
2.593:517
2.595:532
2.595:522
2.595:513
2.595:503
2.595:515
2.595:494
2.595:449
2.596:421
2.596:418
2.610:418
2.616:421
2.616:420
2.616:407
2.616:398
2.617:393
2.617:402
2.617:426
2.617:447
2.617:464
2.619:481
2.619:499
2.620:515
2.620:505
2.620:483
2.620:481
2.620:482
2.621:468
2.621:442
2.621:419
2.624:405
2.624:397
2.624:395
2.624:415
2.625:426
2.625:422
2.625:417
2.625:443
2.625:462
2.626:493
2.644:511
2.644:500
2.644:500
2.644:511
2.645:517
2.645:516
2.645:505
2.648:480
2.648:439
2.648:408
2.649:400
2.649:411
2.650:407
2.650:417
2.650:429
2.650:411
2.650:418
2.652:427
2.653:443
2.653:471
2.653:490
2.654:494
2.654:486
2.654:482
2.654:481
2.654:490
2.656:501
2.656:481
2.657:448
2.657:415
2.672:415
2.672:429
2.672:420
2.672:394
2.673:388
2.673:403
2.677:412
2.677:423
2.677:440
2.677:458
2.677:482
2.678:502
2.678:504
2.678:499
2.678:499
2.678:495
2.680:512
2.682:496
2.682:458
2.682:434
2.682:426
2.683:413
2.683:403
2.683:411
2.683:422
2.685:417
2.686:413
2.686:433
2.686:446
2.686:455
2.700:482
2.702:506
2.702:518
2.706:513
2.706:501
2.706:507
2.707:520
2.707:529
2.707:514
2.708:490
2.708:480
2.708:495
2.708:523
2.710:543
2.710:555
2.710:562
2.710:565
2.710:599
2.710:644
2.711:681
2.711:708
2.711:755
2.714:793
2.714:813
2.714:822
2.714:852
2.714:888
2.714:907
2.715:914
2.715:903
2.729:903
2.730:887
2.734:869
2.735:865
2.735:861
2.735:873
2.735:880
2.735:866
2.736:851
2.736:865
2.736:864
2.736:835
2.738:783
2.738:708
2.739:653
2.739:597
2.740:545
2.740:514
2.740:502
2.740:475
2.740:433
2.742:382
2.742:334
2.742:294
2.742:308
2.742:357
2.742:381
2.742:374
2.742:386
2.743:416
2.762:442
2.762:456
2.762:476
2.762:494
2.763:502
2.763:503
2.763:504
2.763:517
2.763:502
2.766:490
2.767:467
2.767:463
2.767:455
2.767:464
2.767:474
2.768:500
2.768:518
2.769:508
2.772:501
2.772:493
2.772:488
2.773:494
2.773:507
2.773:508
2.773:499
2.774:490
2.774:483
2.774:490
2.775:458
2.775:426
2.792:426
2.792:408
2.792:393
2.792:389
2.792:391
2.792:379
2.792:381
2.792:395
2.796:403
2.796:427
2.796:442
2.796:439
2.797:450
2.797:471
2.797:491
2.797:497
2.797:475
2.800:463
2.800:481
2.800:484
2.800:466
2.801:429
2.801:399
2.801:387
2.802:398
2.802:398
2.802:400
2.803:397
2.803:384
2.804:395
2.820:433
2.820:469
2.820:491
2.820:504
2.820:492
2.824:488
2.824:486
2.824:493
2.825:502
2.825:479
2.825:466
2.825:445
2.825:428
2.826:412
2.828:420
2.828:426
2.828:430
2.828:423
2.829:413
2.829:426
2.829:449
2.829:499
2.829:509
2.829:503
2.832:496
2.832:498
2.832:504
2.832:508
2.832:525
2.833:512
2.849:512
2.849:488
2.849:462
2.849:442
2.853:430
2.854:410
2.854:406
2.854:430
2.855:435
2.855:419
2.855:432
2.856:468
2.856:516
2.857:540
2.857:539
2.857:530
2.857:538
2.857:549
2.858:544
2.858:537
2.858:512
2.858:490
2.858:471
2.860:445
2.860:436
2.862:438
2.862:451
2.862:457
2.862:469
2.862:468
2.882:482
2.882:496
2.882:520
2.882:541
2.883:565
2.883:563
2.883:551
2.883:536
2.883:530
2.883:543
2.886:540
2.886:519
2.886:492
2.887:473
2.887:453
2.887:448
2.888:462
2.888:471
2.888:472
2.888:472
2.890:488
2.890:504
2.890:528
2.890:540
2.890:560
2.891:564
2.891:553
2.891:536
2.891:538
2.893:556
2.910:556
2.911:550
2.911:529
2.911:500
2.911:485
2.911:471
2.912:464
2.912:475
2.912:488
2.914:494
2.914:487
2.914:496
2.915:513
2.915:545
2.915:575
2.915:599
2.916:599
2.916:596
2.916:591
2.918:586
2.918:585
2.920:561
2.920:536
2.920:504
2.920:471
2.921:451
2.921:446
2.921:466
2.922:496
2.922:522
2.939:526
2.940:523
2.940:526
2.940:550
2.940:565
2.940:574
2.942:581
2.942:577
2.943:569
2.943:576
2.943:565
2.943:537
2.943:511
2.944:496
2.944:484
2.947:472
2.947:463
2.947:470
2.947:475
2.948:462
2.948:468
2.948:490
2.948:507
2.948:522
2.948:540
2.952:547
2.952:541
2.952:536
2.953:529
2.953:532
2.967:532
2.967:528
2.968:506
2.968:483
2.968:468
2.972:456
2.972:440
2.972:424
2.972:419
2.973:426
2.973:424
2.973:422
2.973:427
2.973:443
2.973:464
2.975:472
2.975:475
2.975:481
2.976:487
2.976:487
2.976:493
2.976:482
2.976:451
2.977:432
2.980:405
2.980:373
2.980:357
2.980:368
2.980:384
2.980:386
2.996:381
2.996:370
3.001:372
3.001:399
3.001:433
3.002:454
3.002:465
3.002:468
3.002:453
3.003:433
3.003:422
3.004:421
3.004:400
3.005:371
3.006:350
3.006:340
3.006:336
3.006:335
3.006:333
3.007:343
3.007:345
3.008:362
3.008:391
3.009:429
3.009:450
3.009:456
3.009:462
3.009:469
3.010:465
3.010:453
3.025:453
3.029:453
3.029:453
3.029:428
3.029:406
3.030:377
3.030:362
3.030:347
3.030:346
3.030:356
3.033:367
3.033:365
3.033:356
3.033:375
3.034:407
3.035:429
3.035:444
3.035:457
3.035:453
3.035:444
3.037:451
3.037:472
3.037:471
3.038:442
3.038:415
3.039:395
3.039:377
3.039:363
3.039:358
3.040:362
3.058:378
3.058:376
3.058:376
3.058:393
3.059:423
3.059:446
3.059:468
3.062:483
3.062:481
3.062:473
3.062:471
3.063:474
3.063:465
3.063:436
3.063:410
3.063:404
3.063:392
3.066:381
3.066:371
3.066:366
3.066:370
3.067:369
3.067:379
3.067:421
3.067:448
3.067:460
3.069:473
3.069:474
3.070:476
3.070:470
3.086:470
3.086:462
3.086:474
3.086:467
3.087:456
3.087:433
3.090:410
3.090:390
3.090:393
3.090:402
3.092:419
3.092:426
3.092:409
3.092:403
3.092:430
3.093:471
3.095:496
3.095:500
3.095:488
3.095:486
3.095:484
3.096:491
3.096:508
3.096:493
3.096:467
3.099:445
3.099:419
3.099:397
3.100:396
3.100:407
3.115:416
3.115:421
3.115:421
3.119:427
3.120:454
3.120:475
3.120:499
3.120:525
3.120:535
3.120:517
3.122:487
3.122:485
3.122:502
3.123:498
3.124:486
3.124:456
3.124:449
3.124:442
3.124:436
3.125:434
3.125:435
3.125:451
3.127:468
3.127:479
3.127:501
3.127:514
3.127:525
3.128:510
3.128:521
3.128:538
3.143:538
3.143:531
3.148:527
3.148:548
3.148:547
3.148:524
3.148:495
3.149:470
3.149:446
3.149:436
3.149:441
3.149:449
3.152:452
3.152:445
3.152:447
3.153:464
3.153:500
3.153:530
3.153:553
3.154:551
3.154:534
3.156:526
3.156:535
3.156:556
3.156:556
3.156:522
3.156:477
3.156:461
3.156:460
3.156:449
3.176:438
3.177:452
3.177:457
3.177:448
3.177:448
3.177:466
3.177:480
3.178:497
3.178:528
3.180:539
3.180:526
3.180:504
3.180:505
3.181:522
3.181:514
3.181:487
3.181:453
3.181:435
3.186:429
3.186:423
3.187:420
3.187:430
3.187:437
3.187:418
3.188:435
3.188:469
3.188:497
3.188:502
3.189:508
3.189:506
3.205:506
3.205:502
3.205:488
3.206:473
3.206:468
3.206:465
3.206:455
3.206:435
3.209:406
3.209:394
3.209:388
3.209:400
3.209:427
3.210:440
3.210:422
3.210:410
3.210:428
3.213:452
3.213:474
3.213:496
3.213:507
3.214:510
3.214:505
3.214:491
3.214:495
3.214:478
3.215:446
3.217:411
3.218:394
3.218:402
3.234:398
3.234:396
3.234:408
3.234:406
3.238:397
3.239:411
3.239:441
3.239:464
3.239:472
3.240:493
3.240:509
3.240:493
3.240:473
3.240:477
3.242:502
3.242:504
3.242:463
3.243:410
3.243:392
3.243:402
3.243:406
3.244:411
3.244:421
3.244:414
3.246:401
3.246:398
3.246:401
3.246:439
3.246:484
3.246:485
3.262:485
3.262:466
3.263:481
3.263:501
3.266:519
3.267:526
3.267:497
3.267:452
3.267:431
3.267:420
3.269:386
3.269:370
3.269:380
3.270:403
3.270:406
3.270:394
3.271:405
3.271:430
3.271:463
3.271:490
3.271:497
3.273:487
3.273:481
3.275:486
3.275:504
3.275:512
3.275:488
3.276:460
3.276:448
3.276:436
3.295:407
3.295:391
3.295:377
3.295:391
3.295:409
3.296:425
3.296:451
3.296:463
3.296:484
3.296:504
3.299:529
3.299:557
3.300:562
3.300:558
3.300:591
3.300:633
3.302:638
3.302:654
3.302:667
3.303:667
3.304:653
3.304:668
3.305:708
3.305:750
3.305:777
3.305:799
3.306:821
3.306:849
3.306:896
3.307:939
3.324:939
3.324:945
3.324:935
3.325:936
3.325:930
3.325:938
3.325:962
3.325:951
3.326:917
3.328:866
3.328:810
3.328:743
3.328:677
3.329:615
3.329:581
3.329:539
3.329:500
3.329:487
3.330:489
3.332:489
3.332:471
3.332:448
3.333:421
3.333:401
3.333:392
3.333:393
3.333:389
3.333:382
3.337:378
3.337:391
3.352:389
3.352:385
3.352:402
3.353:420
3.353:415
3.353:415
3.356:401
3.356:430
3.356:452
3.356:494
3.358:537
3.358:566
3.358:567
3.358:551
3.358:541
3.361:554
3.361:558
3.361:543
3.361:523
3.362:479
3.362:450
3.362:432
3.362:435
3.362:426
3.362:422
3.365:408
3.365:402
3.365:398
3.365:403
3.365:415
3.381:415
3.381:437
3.382:461
3.382:476
3.382:463
3.386:437
3.386:445
3.386:467
3.386:458
3.386:427
3.387:398
3.387:387
3.387:392
3.387:393
3.387:399
3.390:388
3.390:365
3.390:354
3.390:385
3.391:425
3.391:450
3.391:460
3.391:474
3.391:482
3.393:466
3.393:438
3.393:446
3.393:472
3.394:485
3.394:482
3.409:454
3.410:442
3.414:434
3.414:414
3.414:385
3.414:389
3.415:393
3.415:414
3.415:443
3.415:461
3.415:461
3.418:465
3.419:469
3.419:462
3.419:461
3.419:466
3.420:501
3.420:519
3.420:502
3.420:476
3.420:444
3.422:424
3.423:413
3.423:405
3.423:410
3.423:421
3.423:424
3.423:436
3.423:464
3.423:490
3.438:490
3.443:509
3.443:517
3.443:526
3.443:515
3.443:477
3.443:477
3.443:498
3.444:503
3.444:488
3.447:479
3.447:470
3.447:463
3.447:442
3.448:431
3.448:441
3.448:440
3.448:438
3.448:448
3.448:456
3.451:471
3.451:487
3.451:506
3.451:513
3.453:519
3.453:549
3.453:549
3.453:543
3.453:532
3.455:509
3.470:505
3.472:489
3.472:464
3.472:437
3.472:426
3.472:420
3.473:413
3.475:424
3.476:460
3.476:502
3.476:507
3.476:529
3.476:545
3.477:540
3.477:548
3.477:545
3.477:534
3.479:538
3.480:546
3.480:532
3.480:509
3.480:498
3.480:481
3.481:448
3.481:427
3.481:403
3.483:412
3.483:429
3.483:461
3.485:512
3.499:512
3.499:540
3.500:553
3.500:577
3.501:578
3.501:572
3.504:569
3.504:572
3.504:579
3.504:576
3.505:567
3.505:547
3.505:507
3.505:473
3.505:473
3.506:461
3.508:453
3.508:477
3.508:478
3.508:499
3.509:531
3.509:561
3.509:574
3.509:590
3.509:592
3.512:591
3.512:581
3.512:559
3.512:574
3.512:562
3.528:536
3.528:509
3.529:482
3.533:450
3.533:462
3.533:471
3.533:477
3.533:494
3.533:486
3.534:493
3.534:508
3.534:530
3.535:548
3.537:556
3.537:559
3.537:567
3.537:578
3.537:557
3.538:552
3.538:539
3.538:506
3.538:480
3.541:460
3.541:445
3.541:438
3.542:426
3.542:414
3.542:422
3.542:440
3.542:449
3.557:449
3.557:479
3.561:479
3.561:485
3.561:485
3.562:500
3.562:513
3.562:534
3.562:529
3.562:533
3.562:515
3.562:478
3.566:442
3.566:433
3.566:426
3.566:428
3.566:416
3.566:409
3.567:407
3.568:386
3.568:384
3.569:406
3.570:427
3.570:442
3.570:460
3.570:489
3.570:489
3.570:453
3.570:445
3.571:456
3.590:455
3.590:441
3.591:425
3.591:404
3.591:373
3.591:351
3.591:336
3.591:346
3.592:363
3.594:362
3.594:378
3.594:392
3.594:405
3.594:420
3.594:428
3.595:439
3.595:437
3.595:439
3.598:450
3.598:476
3.598:459
3.598:417
3.599:367
3.599:351
3.599:348
3.599:346
3.599:337
3.600:349
3.602:363
3.602:362
3.618:362
3.619:394
3.619:426
3.619:424
3.619:433
3.619:444
3.620:438
3.620:440
3.622:443
3.622:449
3.622:479
3.623:484
3.623:442
3.623:393
3.623:373
3.623:364
3.624:350
3.627:359
3.627:360
3.627:372
3.627:361
3.627:367
3.628:405
3.628:413
3.628:443
3.628:441
3.629:442
3.631:452
3.631:463
3.631:468
3.646:477
3.647:458
3.647:439
3.647:419
3.651:402
3.652:372
3.652:360
3.652:378
3.652:390
3.652:393
3.653:379
3.653:392
3.653:403
3.653:442
3.656:472
3.656:492
3.657:504
3.657:503
3.657:477
3.657:476
3.657:491
3.657:480
3.658:451
3.659:423
3.659:409
3.659:412
3.659:420
3.660:417
3.660:402
3.660:399
3.676:399
3.676:396
3.676:416
3.676:430
3.680:451
3.680:467
3.680:455
3.680:437
3.680:452
3.680:474
3.680:490
3.682:489
3.682:481
3.684:470
3.685:470
3.685:451
3.685:417
3.685:399
3.685:400
3.686:412
3.686:412
3.686:409
3.686:422
3.688:456
3.688:490
3.688:502
3.688:505
3.688:518
3.688:510
3.688:503
3.709:506
3.709:522
3.709:514
3.709:487
3.710:455
3.710:443
3.710:445
3.710:454
3.710:448
3.710:429
3.712:421
3.712:435
3.712:458
3.713:479
3.713:503
3.713:511
3.713:511
3.713:540
3.714:545
3.717:508
3.718:497
3.718:532
3.718:532
3.719:516
3.719:496
3.719:456
3.719:436
3.719:452
3.719:449
3.720:463
3.737:463
3.738:486
3.738:497
3.738:501
3.738:485
3.738:495
3.738:509
3.739:520
3.739:520
3.742:539
3.742:549
3.742:546
3.742:552
3.743:525
3.743:499
3.743:481
3.743:460
3.743:460
3.743:443
3.745:447
3.745:466
3.746:467
3.746:434
3.746:434
3.746:451
3.746:500
3.747:523
3.747:537
3.750:543
3.750:529
3.765:519
3.766:532
3.766:531
3.766:501
3.766:472
3.767:474
3.770:489
3.770:477
3.770:461
3.771:469
3.771:482
3.771:458
3.771:419
3.771:442
3.771:463
3.774:482
3.774:507
3.774:508
3.774:511
3.774:498
3.775:480
3.775:497
3.775:529
3.775:494
3.775:446
3.778:426
3.778:411
3.778:419
3.778:440
3.779:449
3.794:449
3.794:438
3.795:423
3.795:401
3.795:404
3.799:413
3.799:431
3.799:447
3.799:488
3.799:524
3.799:520
3.800:489
3.801:470
3.802:492
3.802:471
3.803:461
3.803:451
3.803:423
3.803:404
3.803:422
3.804:457
3.804:429
3.804:372
3.804:366
3.807:423
3.807:470
3.807:470
3.807:467
3.807:468
3.807:476
3.823:502
3.823:510
3.827:506
3.827:489
3.827:468
3.827:472
3.827:457
3.827:442
3.827:430
3.827:433
3.827:407
3.832:400
3.832:395
3.832:402
3.832:426
3.833:468
3.833:496
3.833:494
3.833:467
3.833:451
3.833:480
3.835:484
3.836:490
3.836:495
3.836:490
3.836:474
3.836:442
3.837:416
3.837:401
3.837:408
3.852:408
3.857:425
3.857:433
3.857:423
3.857:402
3.857:414
3.858:434
3.858:448
3.858:482
3.858:514
3.860:517
3.860:515
3.860:511
3.860:512
3.860:526
3.860:502
3.861:478
3.861:427
3.861:420
3.861:435
3.864:410
3.864:397
3.864:442
3.864:458
3.865:445
3.865:467
3.865:474
3.865:486
3.865:515
3.868:553
3.884:557
3.884:562
3.884:574
3.884:608
3.885:621
3.885:606
3.885:613
3.889:632
3.889:654
3.889:645
3.889:665
3.889:686
3.890:703
3.890:726
3.890:799
3.890:877
3.890:893
3.892:908
3.892:914
3.894:920
3.894:948
3.894:957
3.894:948
3.894:968
3.894:974
3.895:940
3.897:910
3.897:880
3.898:804
3.898:715
3.913:715
3.913:648
3.914:616
3.914:589
3.914:538
3.914:507
3.917:489
3.918:472
3.918:478
3.918:483
3.918:497
3.919:506
3.919:476
3.919:437
3.919:442
3.919:433
3.922:414
3.922:398
3.922:399
3.922:405
3.922:409
3.922:416
3.922:422
3.922:419
3.922:389
3.926:408
3.926:465
3.926:495
3.926:525
3.927:562
3.942:556
3.942:534
3.942:543
3.946:548
3.946:585
3.946:591
3.946:527
3.947:483
3.947:458
3.947:414
3.947:393
3.947:400
3.948:408
3.950:421
3.950:420
3.951:429
3.951:450
3.951:439
3.952:450
3.952:480
3.952:462
3.952:455
3.954:451
3.954:453
3.954:481
3.954:476
3.955:450
3.955:432
3.955:426
3.955:412
3.971:412
3.971:383
3.975:382
3.975:387
3.975:394
3.975:401
3.976:424
3.976:455
3.976:462
3.976:471
3.976:495
3.977:503
3.979:499
3.979:482
3.979:502
3.979:521
3.979:499
3.979:460
3.980:430
3.980:423
3.980:404
3.982:412
3.982:415
3.983:416
3.983:402
3.983:388
3.983:388
3.985:429
3.985:458
3.985:471
4.003:491
4.004:507
4.004:534
4.004:522
4.004:498
4.004:496
4.005:504
4.005:497
4.008:473
4.008:430
4.008:394
4.008:388
4.009:422
4.009:444
4.009:433
4.009:414
4.009:429
4.009:468
4.012:493
4.012:493
4.012:499
4.013:534
4.013:559
4.013:554
4.013:538
4.013:539
4.014:498
4.014:478
4.016:468
4.016:446
4.032:446
4.032:430
4.032:442
4.032:447
4.033:452
4.033:446
4.033:442
4.034:437
4.037:487
4.037:523
4.037:532
4.037:522
4.037:520
4.037:547
4.038:559
4.038:550
4.038:555
4.041:546
4.041:522
4.041:488
4.041:456
4.041:434
4.041:419
4.041:402
4.041:427
4.042:468
4.042:474
4.044:479
4.044:501
4.044:519
4.061:521
4.061:546
4.061:553
4.061:563
4.065:547
4.065:548
4.065:566
4.065:548
4.066:530
4.066:540
4.066:534
4.066:508
4.067:490
4.067:487
4.069:475
4.069:470
4.069:455
4.069:465
4.070:505
4.070:527
4.070:527
4.070:536
4.070:545
4.072:541
4.072:543
4.073:580
4.073:620
4.073:619
4.073:597
4.073:552
4.089:552
4.089:526
4.089:508
4.094:519
4.094:528
4.094:516
4.094:483
4.095:455
4.095:480
4.095:526
4.095:556
4.095:564
4.095:563
4.098:566
4.098:595
4.098:604
4.098:613
4.099:610
4.099:565
4.099:518
4.099:473
4.099:457
4.100:448
4.101:449
4.101:463
4.101:498
4.102:535
4.102:530
4.102:526
4.102:517
4.122:527
4.122:548
4.122:561
4.123:585
4.123:587
4.123:572
4.123:577
4.123:591
4.123:564
4.125:530
4.127:518
4.127:498
4.127:459
4.127:422
4.128:403
4.128:438
4.128:447
4.128:428
4.128:462
4.131:498
4.131:507
4.131:508
4.131:516
4.131:533
4.131:548
4.131:534
4.132:537
4.132:533
4.132:476
4.135:438
4.150:438
4.150:409
4.150:405
4.150:419
4.152:430
4.152:415
4.152:423
4.152:435
4.152:409
4.155:420
4.156:431
4.156:443
4.156:441
4.156:456
4.156:478
4.156:473
4.156:458
4.156:453
4.159:465
4.159:456
4.159:401
4.159:351
4.160:340
4.160:349
4.160:369
4.160:365
4.160:369
4.161:368
4.163:334
4.163:364
4.179:412
4.179:458
4.179:500
4.180:505
4.180:506
4.180:478
4.183:408
4.183:408
4.183:417
4.185:428
4.185:401
4.185:402
4.185:394
4.185:360
4.185:356
4.188:363
4.188:392
4.188:388
4.189:380
4.189:392
4.189:404
4.189:409
4.189:433
4.190:457
4.190:467
4.192:468
4.192:458
4.192:425
4.192:417
4.192:418
4.208:418
4.208:461
4.208:430
4.209:393
4.209:380
4.213:380
4.213:376
4.213:390
4.213:399
4.214:381
4.214:384
4.214:405
4.214:445
4.214:485
4.217:478
4.217:463
4.218:458
4.218:450
4.218:442
4.218:446
4.219:466
4.219:455
4.219:423
4.219:396
4.221:386
4.221:408
4.221:413
4.221:401
4.221:383
4.221:388
4.236:410
4.237:435
4.240:437
4.240:454
4.241:469
4.241:454
4.241:460
4.241:490
4.241:499
4.243:503
4.243:492
4.245:478
4.245:446
4.245:438
4.245:399
4.246:362
4.246:357
4.246:383
4.246:386
4.246:376
4.246:391
4.248:432
4.249:480
4.249:495
4.250:518
4.250:547
4.250:553
4.250:545
4.250:523
4.251:477
4.265:477
4.270:455
4.270:467
4.270:456
4.271:456
4.271:472
4.271:461
4.271:430
4.271:411
4.271:410
4.274:407
4.274:414
4.274:423
4.274:456
4.275:491
4.275:542
4.275:539
4.275:531
4.275:537
4.276:538
4.278:540
4.278:513
4.278:510
4.278:492
4.279:446
4.279:438
4.279:421
4.279:433
4.279:449
4.282:445
4.298:493
4.299:518
4.299:512
4.299:503
4.299:511
4.299:526
4.299:539
4.302:558
4.302:576
4.302:557
4.303:532
4.303:501
4.303:479
4.303:459
4.303:435
4.304:428
4.304:435
4.306:441
4.306:450
4.306:463
4.306:472
4.307:471
4.307:484
4.307:550
4.307:551
4.307:539
4.311:535
4.311:559
4.311:568
4.311:571
4.326:571
4.327:543
4.327:507
4.327:486
4.327:469
4.327:432
4.331:440
4.331:451
4.331:460
4.331:458
4.332:436
4.332:424
4.332:454
4.332:504
4.333:538
4.333:534
4.335:510
4.335:538
4.336:549
4.336:541
4.336:545
4.336:535
4.336:501
4.337:480
4.337:446
4.339:442
4.339:457
4.339:446
4.339:443
4.340:401
4.355:402
4.355:428
4.356:464
4.360:475
4.360:484
4.361:517
4.361:525
4.361:506
4.361:506
4.362:499
4.362:497
4.362:488
4.364:471
4.364:471
4.364:455
4.364:415
4.365:414
4.365:426
4.365:430
4.365:422
4.365:408
4.366:405
4.368:411
4.368:464
4.368:508
4.368:496
4.368:486
4.368:484
4.368:490
4.369:497
4.384:497
4.384:514
4.389:509
4.389:477
4.389:448
4.389:420
4.390:425
4.390:438
4.390:423
4.390:413
4.390:432
4.391:428
4.392:404
4.392:424
4.392:468
4.393:473
4.393:495
4.393:501
4.393:496
4.393:491
4.394:498
4.397:536
4.397:526
4.397:487
4.397:455
4.398:432
4.398:411
4.398:392
4.398:394
4.398:424
4.417:422
4.417:401
4.417:401
4.418:409
4.418:432
4.418:473
4.418:531
4.418:553
4.422:552
4.422:510
4.422:486
4.422:512
4.422:517
4.423:472
4.423:454
4.423:456
4.424:449
4.424:418
4.425:412
4.425:423
4.425:447
4.425:416
4.426:434
4.426:455
4.426:460
4.426:493
4.426:507
4.427:525
4.429:540
4.429:562
4.446:562
4.446:565
4.446:543
4.446:519
4.446:504
4.447:485
4.447:477
4.447:471
4.450:491
4.450:500
4.450:531
4.451:521
4.451:524
4.451:566
4.451:640
4.451:689
4.452:723
4.453:727
4.454:746
4.454:774
4.454:795
4.454:828
4.455:841
4.455:839
4.455:840
4.455:835
4.455:838
4.458:834
4.458:830
4.458:818
4.474:811
4.475:801
4.475:771
4.475:778
4.479:810
4.479:806
4.479:765
4.479:726
4.480:683
4.480:630
4.480:601
4.480:572
4.480:540
4.481:506
4.482:455
4.483:439
4.484:426
4.484:405
4.484:392
4.485:378
4.485:385
4.485:413
4.485:390
4.487:391
4.487:409
4.487:438
4.487:493
4.488:528
4.488:523
4.488:525
4.502:525
4.502:510
4.502:508
4.507:536
4.507:534
4.507:486
4.507:466
4.508:459
4.508:448
4.508:440
4.508:449
4.508:466
4.508:491
4.511:478
4.511:505
4.511:510
4.512:518
4.512:527
4.512:530
4.512:526
4.512:529
4.512:520
4.514:517
4.515:525
4.515:521
4.515:497
4.515:438
4.515:416
4.516:410
4.516:417
4.536:415
4.536:409
4.536:417
4.536:378
4.536:388
4.537:427
4.537:462
4.537:482
4.537:487
4.538:474
4.539:466
4.540:459
4.540:461
4.540:472
4.541:447
4.542:434
4.542:445
4.542:463
4.542:463
4.544:433
4.544:437
4.544:439
4.544:429
4.544:405
4.545:412
4.545:441
4.545:461
4.545:489
4.545:473
4.548:475
4.564:475
4.565:480
4.565:473
4.565:496
4.565:507
4.565:494
4.566:481
4.566:441
4.566:416
4.569:417
4.569:449
4.569:432
4.570:416
4.570:409
4.570:414
4.571:447
4.571:498
4.571:516
4.572:509
4.572:500
4.572:510
4.572:496
4.573:494
4.573:493
4.573:518
4.573:508
4.573:524
4.573:534
4.577:502
4.577:446
4.593:430
4.593:429
4.593:434
4.593:423
4.594:411
4.594:427
4.597:450
4.597:480
4.598:515
4.598:538
4.598:517
4.599:497
4.599:499
4.599:540
4.600:583
4.602:554
4.602:494
4.602:472
4.602:486
4.602:456
4.603:444
4.603:463
4.603:493
4.603:493
4.603:468
4.605:480
4.605:492
4.605:531
4.605:572
4.606:542
4.622:542
4.622:499
4.622:492
4.622:515
4.622:529
4.626:537
4.626:514
4.626:489
4.627:480
4.627:469
4.627:465
4.627:482
4.627:503
4.627:501
4.630:479
4.630:467
4.630:460
4.630:506
4.630:566
4.631:570
4.631:565
4.631:580
4.631:583
4.631:570
4.633:574
4.633:566
4.633:541
4.633:528
4.633:546
4.633:551
4.649:518
4.649:496
4.655:492
4.655:494
4.655:494
4.655:496
4.655:529
4.656:555
4.656:558
4.656:569
4.656:627
4.659:661
4.659:638
4.659:586
4.659:578
4.660:572
4.660:534
4.660:536
4.660:543
4.660:530
4.660:519
4.662:496
4.662:466
4.662:478
4.662:479
4.662:474
4.662:480
4.663:523
4.663:568
4.663:586
4.678:586
4.683:611
4.683:617
4.684:578
4.684:536
4.684:545
4.684:580
4.684:602
4.684:611
4.684:553
4.688:495
4.688:490
4.688:499
4.688:499
4.688:475
4.688:446
4.689:438
4.689:479
4.689:534
4.689:558
4.692:559
4.692:544
4.692:533
4.692:543
4.693:522
4.693:517
4.693:517
4.693:512
4.693:511
4.695:471
4.712:433
4.712:422
4.712:426
4.713:442
4.713:451
4.713:431
4.713:423
4.716:457
4.717:442
4.717:427
4.718:452
4.718:486
4.718:519
4.718:506
4.718:478
4.718:501
4.719:516
4.720:476
4.720:428
4.720:399
4.720:379
4.720:347
4.720:374
4.720:408
4.720:409
4.722:367
4.724:355
4.724:376
4.724:395
4.724:429
4.741:429
4.741:435
4.741:438
4.741:447
4.741:443
4.742:439
4.745:469
4.745:485
4.745:447
4.745:429
4.746:420
4.746:378
4.746:375
4.746:366
4.746:366
4.747:395
4.749:399
4.749:376
4.749:390
4.749:431
4.750:459
4.750:476
4.750:465
4.750:473
4.750:477
4.753:449
4.753:408
4.753:404
4.753:413
4.753:412
4.769:397
4.769:376
4.770:376
4.773:363
4.773:355
4.773:367
4.773:394
4.774:406
4.774:410
4.774:425
4.774:457
4.774:457
4.778:478
4.778:494
4.778:501
4.778:480
4.779:487
4.779:471
4.779:437
4.779:420
4.779:377
4.779:340
4.781:357
4.781:374
4.781:384
4.782:401
4.782:416
4.782:422
4.783:421
4.783:423
4.797:423
4.798:477
4.802:480
4.802:471
4.802:483
4.802:505
4.802:497
4.803:472
4.803:474
4.803:484
4.803:485
4.803:461
4.806:412
4.806:365
4.806:367
4.806:394
4.806:439
4.807:428
4.807:426
4.807:443
4.807:447
4.810:477
4.810:526
4.810:537
4.811:499
4.811:478
4.811:473
4.811:501
4.811:532
4.812:493
4.830:472
4.830:443
4.830:417
4.830:400
4.832:438
4.832:477
4.832:491
4.832:459
4.835:429
4.835:433
4.835:439
4.835:463
4.836:486
4.836:480
4.836:476
4.836:473
4.836:490
4.837:513
4.839:504
4.839:494
4.839:490
4.839:483
4.840:471
4.840:442
4.840:452
4.840:477
4.840:497
4.842:515
4.842:498
4.842:463
4.860:463
4.860:468
4.860:539
4.860:569
4.860:558
4.860:530
4.861:526
4.863:559
4.863:586
4.863:543
4.863:485
4.864:488
4.864:507
4.864:485
4.864:451
4.864:445
4.865:446
4.866:475
4.868:493
4.868:511
4.868:505
4.868:513
4.868:533
4.869:541
4.869:520
4.869:513
4.869:513
4.871:515
4.871:534
4.871:533
4.887:514
4.888:504
4.888:485
4.888:467
4.892:467
4.893:453
4.893:436
4.893:421
4.893:426
4.894:436
4.894:473
4.894:546
4.894:590
4.894:560
4.896:524
4.897:529
4.897:541
4.897:562
4.897:578
4.897:514
4.897:451
4.898:443
4.898:446
4.900:442
4.900:425
4.900:420
4.901:441
4.901:470
4.901:468
4.901:457
4.917:457
4.917:436
4.917:440
4.921:468
4.921:528
4.921:556
4.921:511
4.921:489
4.921:495
4.922:504
4.922:525
4.922:509
4.922:480
4.925:472
4.925:466
4.925:411
4.925:357
4.926:377
4.926:432
4.926:445
4.926:443
4.926:466
4.929:508
4.929:531
4.929:535
4.929:506
4.930:472
4.930:503
4.930:507
4.930:534
4.950:526
4.951:491
4.951:439
4.952:391
4.952:394
4.952:416
4.952:429
4.953:442
4.953:434
4.953:420
4.953:424
4.954:436
4.954:438
4.954:476
4.954:510
4.954:511
4.955:511
4.955:487
4.955:498
4.958:534
4.958:529
4.958:506
4.958:486
4.959:464
4.959:447
4.959:410
4.959:392
4.959:399
4.959:427
4.962:427
4.978:427
4.978:435
4.978:460
4.978:493
4.979:502
4.979:515
4.979:511
4.979:496
4.979:468
4.982:470
4.982:494
4.984:484
4.984:452
4.984:464
4.984:448
4.984:413
4.984:403
4.985:434
4.986:446
4.987:460
4.987:444
4.987:431
4.987:446
4.987:472
4.988:516
4.988:523
4.988:524
4.988:518
4.990:528
4.990:537
5.006:540
5.007:518
5.007:506
5.007:480
5.007:469
5.007:494
5.010:508
5.010:518
5.010:549
5.011:525
5.011:529
5.011:572
5.011:592
5.011:652
5.012:695
5.015:727
5.015:742
5.015:769
5.016:773
5.016:780
5.016:814
5.016:832
5.016:828
5.016:817
5.016:795
5.019:762
5.019:745
5.019:759
5.020:800
5.020:817
5.035:817
5.035:795
5.035:770
5.035:770
5.035:793
5.040:789
5.040:732
5.040:675
5.040:613
5.041:554
5.041:557
5.041:596
5.041:603
5.041:523
5.044:438
5.044:426
5.044:406
5.044:386
5.044:368
5.045:389
5.045:423
5.045:412
5.045:440
5.045:448
5.048:457
5.048:485
5.048:504
5.048:521
5.049:518
5.049:522
5.063:528
5.063:540
5.068:515
5.069:503
5.069:496
5.069:496
5.069:504
5.069:515
5.069:494
5.070:491
5.070:505
5.072:498
5.072:541
5.072:579
5.073:563
5.073:499
5.073:491
5.073:509
5.073:528
5.074:561
5.074:573
5.076:560
5.076:507
5.076:455
5.076:451
5.076:433
5.077:392
5.077:384
5.077:383
5.077:390
5.092:390
5.097:386
5.097:404
5.097:432
5.097:443
5.097:477
5.098:482
5.098:469
5.098:480
5.098:501
5.100:479
5.101:482
5.101:502
5.102:486
5.102:466
5.102:436
5.102:424
5.103:417
5.103:419
5.103:419
5.105:425
5.105:420
5.105:417
5.105:431
5.106:474
5.106:520
5.106:529
5.106:512
5.106:510
5.109:509
5.125:497
5.125:484
5.126:505
5.126:492
5.126:470
5.126:448
5.126:424
5.130:411
5.130:415
5.130:435
5.130:446
5.131:418
5.131:422
5.131:424
5.131:427
5.131:475
5.133:497
5.133:519
5.135:520
5.135:531
5.135:543
5.135:549
5.135:555
5.135:528
5.136:501
5.136:484
5.138:445
5.138:430
5.138:444
5.138:461
5.154:461
5.154:487
5.154:490
5.154:485
5.155:493
5.155:499
5.159:485
5.159:482
5.159:492
5.159:501
5.159:513
5.160:514
5.160:532
5.160:557
5.160:533
5.160:517
5.162:500
5.162:478
5.162:460
5.163:460
5.163:451
5.163:435
5.163:450
5.163:457
5.164:481
5.166:495
5.167:512
5.167:542
5.167:570
5.167:555
5.183:530
5.184:519
5.184:520
5.187:528
5.187:505
5.187:504
5.187:495
5.188:467
5.188:455
5.188:459
5.188:478
5.188:481
5.190:476
5.190:455
5.190:464
5.192:491
5.192:530
5.192:535
5.192:596
5.193:626
5.193:599
5.193:583
5.195:580
5.195:585
5.195:579
5.195:562
5.195:545
5.196:531
5.196:532
5.196:536
5.210:536
5.210:537
5.216:508
5.217:460
5.217:464
5.217:495
5.218:526
5.218:564
5.218:585
5.218:598
5.219:597
5.219:586
5.220:565
5.220:567
5.220:556
5.220:552
5.220:559
5.220:529
5.221:497
5.221:486
5.221:481
5.224:497
5.224:515
5.224:533
5.224:551
5.225:537
5.225:523
5.225:542
5.225:582
5.225:623
5.244:612
5.244:599
5.244:577
5.244:557
5.245:564
5.245:542
5.245:528
5.245:494
5.248:483
5.248:463
5.249:453
5.249:459
5.249:467
5.250:476
5.250:477
5.250:500
5.250:508
5.250:519
5.252:542
5.252:532
5.253:533
5.253:519
5.253:545
5.253:566
5.253:556
5.253:543
5.253:500
5.256:453
5.256:461
5.257:448
5.272:448
5.272:432
5.273:425
5.273:457
5.273:461
5.273:435
5.273:443
5.276:471
5.276:465
5.277:480
5.277:491
5.277:494
5.277:490
5.277:464
5.278:477
5.278:488
5.278:467
5.280:441
5.281:426
5.281:423
5.282:381
5.282:337
5.282:345
5.282:373
5.282:373
5.283:331
5.283:365
5.285:396
5.285:417
5.285:445
5.301:471
5.301:480
5.301:473
5.301:458
5.305:461
5.306:431
5.306:415
5.306:414
5.306:418
5.306:394
5.307:370
5.307:370
5.307:389
5.307:372
5.310:350
5.310:366
5.310:446
5.310:479
5.310:473
5.310:476
5.310:464
5.311:461
5.311:465
5.313:427
5.313:414
5.313:430
5.314:435
5.314:402
5.314:361
5.314:344
5.330:344
5.330:355
5.330:381
5.334:383
5.335:403
5.335:405
5.335:391
5.336:398
5.336:415
5.336:462
5.337:500
5.337:494
5.337:479
5.339:481
5.339:485
5.339:505
5.339:448
5.340:431
5.340:406
5.340:377
5.341:356
5.341:350
5.342:350
5.342:382
5.342:419
5.342:421
5.342:422
5.343:461
5.343:476
5.343:488
5.362:522
5.362:510
5.362:492
5.362:465
5.362:465
5.362:498
5.363:506
5.363:484
5.363:436
5.364:425
5.366:428
5.367:432
5.367:421
5.367:401
5.367:405
5.367:428
5.368:441
5.368:460
5.368:467
5.371:446
5.371:477
5.372:514
5.372:537
5.372:528
5.372:483
5.373:468
5.373:478
5.373:490
5.373:481
5.375:454
5.392:454
5.392:436
5.392:429
5.392:449
5.392:430
5.393:420
5.393:399
5.393:383
5.393:414
5.396:458
5.396:476
5.396:486
5.396:506
5.397:509
5.397:483
5.397:530
5.398:588
5.398:599
5.399:564
5.400:524
5.400:489
5.400:460
5.401:451
5.401:442
5.401:431
5.401:427
5.401:411
5.401:409
5.404:444
5.404:486
5.420:516
5.420:514
5.420:503
5.420:521
5.420:533
5.420:543
5.424:563
5.424:541
5.424:537
5.424:535
5.424:501
5.425:462
5.425:439
5.425:440
5.425:448
5.428:467
5.428:468
5.428:513
5.428:546
5.429:535
5.429:539
5.429:574
5.429:561
5.429:539
5.429:523
5.432:528
5.433:536
5.433:516
5.433:487
5.433:476
5.449:476
5.449:455
5.449:446
5.450:451
5.450:462
5.453:489
5.453:482
5.453:459
5.454:475
5.454:496
5.454:509
5.454:521
5.454:526
5.455:517
5.457:530
5.457:557
5.457:571
5.458:593
5.458:579
5.458:511
5.459:450
5.459:424
5.459:424
5.459:417
5.460:429
5.460:453
5.462:446
5.462:393
5.462:400
5.462:445
5.477:498
5.481:519
5.481:523
5.481:515
5.482:527
5.482:523
5.482:504
5.482:521
5.484:513
5.484:463
5.484:402
5.486:384
5.486:380
5.487:413
5.487:451
5.487:423
5.488:398
5.488:408
5.488:428
5.488:453
5.489:490
5.490:501
5.490:517
5.491:534
5.491:529
5.491:502
5.492:520
5.492:537
5.492:515
5.492:469
5.506:469
5.510:449
5.510:426
5.510:396
5.510:388
5.510:400
5.510:438
5.510:466
5.512:445
5.512:434
5.514:449
5.514:476
5.515:498
5.515:491
5.515:473
5.516:485
5.516:519
5.517:548
5.517:571
5.517:552
5.518:476
5.519:392
5.519:365
5.519:395
5.519:405
5.519:398
5.520:394
5.520:416
5.520:402
5.521:414
5.539:455
5.539:491
5.539:515
5.539:515
5.539:534
5.540:528
5.540:493
5.543:470
5.543:509
5.544:549
5.544:520
5.544:449
5.544:420
5.544:410
5.544:418
5.545:437
5.547:437
5.547:444
5.548:421
5.548:411
5.548:447
5.548:476
5.548:474
5.548:491
5.549:503
5.549:506
5.550:505
5.551:522
5.551:562
5.551:566
5.567:566
5.567:577
5.568:555
5.568:536
5.568:527
5.568:547
5.572:576
5.572:594
5.572:621
5.573:658
5.573:706
5.573:742
5.574:762
5.574:776
5.574:784
5.575:800
5.576:822
5.576:833
5.576:862
5.577:885
5.577:857
5.577:805
5.578:764
5.578:766
5.578:781
5.580:744
5.580:711
5.580:706
5.581:699
5.581:656
5.596:643
5.596:623
5.596:583
5.600:570
5.600:584
5.600:574
5.601:544
5.601:507
5.601:499
5.602:517
5.602:477
5.602:435
5.604:399
5.605:399
5.605:406
5.605:406
5.605:407
5.606:400
5.606:415
5.606:402
5.607:417
5.607:462
5.608:494
5.609:523
5.609:567
5.609:568
5.609:576
5.610:565
5.610:545
5.610:541
5.624:541
5.624:522
5.629:520
5.629:518
5.629:520
5.630:507
5.630:500
5.630:497
5.630:504
5.630:494
5.632:482
5.633:497
5.633:504
5.633:509
5.633:511
5.634:521
5.634:536
5.634:521
5.634:480
5.634:472
5.635:485
5.637:496
5.637:462
5.637:442
5.638:423
5.638:389
5.638:399
5.638:401
5.638:407
5.639:422
5.658:423
5.658:414
5.658:416
5.658:461
5.659:490
5.659:503
5.659:503
5.659:471
5.662:475
5.662:496
5.662:497
5.662:450
5.663:441
5.663:442
5.663:420
5.663:397
5.663:401
5.663:414
5.665:412
5.666:409
5.666:399
5.666:400
5.666:416
5.666:457
5.667:475
5.667:481
5.667:494
5.669:505
5.669:513
5.670:519
5.686:519
5.686:532
5.686:523
5.686:522
5.686:476
5.688:429
5.688:428
5.690:438
5.690:446
5.690:445
5.690:433
5.690:430
5.691:453
5.691:466
5.691:478
5.692:500
5.692:533
5.694:531
5.694:543
5.695:531
5.695:514
5.695:499
5.695:478
5.695:456
5.696:433
5.696:433
5.698:431
5.699:440
5.699:442
5.699:460
5.714:473
5.715:474
5.715:496
5.715:494
5.718:486
5.719:518
5.719:558
5.719:540
5.719:528
5.719:531
5.719:530
5.720:532
5.720:511
5.720:487
5.723:472
5.723:468
5.723:444
5.723:457
5.723:478
5.723:500
5.723:476
5.723:454
5.723:477
5.727:496
5.727:510
5.728:517
5.728:530
5.728:540
5.728:556
5.729:556
5.743:556
5.743:562
5.743:568
5.747:542
5.747:512
5.748:487
5.748:492
5.749:486
5.749:477
5.749:470
5.749:460
5.749:468
5.749:474
5.751:486
5.751:518
5.751:558
5.753:599
5.753:596
5.753:567
5.753:559
5.753:561
5.753:572
5.756:586
5.756:578
5.757:553
5.757:508
5.757:478
5.757:470
5.758:476
5.758:481
5.776:487
5.777:466
5.777:462
5.777:491
5.777:520
5.778:560
5.778:588
5.778:593
5.779:596
5.779:593
5.780:597
5.780:602
5.782:601
5.782:585
5.782:559
5.782:531
5.782:512
5.783:518
5.783:513
5.785:512
5.785:507
5.785:490
5.785:478
5.786:499
5.786:521
5.786:546
5.787:562
5.787:563
5.787:561
5.788:551
5.805:551
5.805:544
5.806:558
5.806:563
5.806:539
5.806:514
5.806:495
5.806:487
5.807:477
5.809:451
5.809:456
5.810:487
5.810:484
5.810:485
5.810:508
5.810:515
5.810:521
5.810:539
5.812:558
5.812:554
5.812:538
5.814:524
5.814:524
5.814:510
5.815:475
5.815:454
5.816:431
5.816:413
5.817:397
5.817:391
5.834:406
5.834:414
5.835:408
5.835:420
5.835:440
5.838:445
5.838:468
5.838:484
5.839:488
5.839:494
5.839:488
5.840:469
5.840:467
5.840:464
5.841:435
5.842:407
5.842:396
5.842:384
5.843:375
5.843:372
5.843:389
5.843:388
5.843:381
5.844:391
5.844:414
5.845:424
5.846:422
5.846:437
5.846:453
5.847:465
5.862:465
5.862:452
5.862:438
5.862:439
5.862:442
5.866:430
5.866:403
5.866:369
5.866:339
5.867:343
5.867:353
5.867:363
5.867:364
5.867:349
5.871:363
5.871:397
5.871:432
5.871:466
5.872:491
5.872:495
5.872:491
5.872:482
5.872:469
5.873:472
5.874:457
5.875:430
5.875:410
5.875:391
5.875:375
5.875:368
5.891:370
5.896:373
5.896:377
5.896:375
5.896:387
5.896:415
5.897:440
5.897:473
5.897:484
5.897:490
5.897:499
5.899:487
5.900:477
5.900:488
5.900:486
5.900:459
5.900:426
5.900:404
5.900:400
5.900:394
5.903:388
5.904:387
5.904:393
5.904:398
5.904:414
5.904:438
5.905:461
5.905:480
5.905:493
5.905:497
5.919:497
5.924:507
5.924:504
5.924:495
5.925:499
5.925:487
5.925:474
5.925:442
5.925:420
5.926:408
5.928:403
5.928:405
5.928:411
5.928:409
5.928:401
5.929:409
5.929:425
5.929:437
5.929:456
5.929:476
5.931:487
5.931:485
5.931:492
5.931:497
5.933:516
5.933:521
5.933:501
5.933:478
5.933:451
5.936:436
5.952:432
5.953:435
5.953:443
5.953:443
5.953:436
5.953:447
5.953:466
5.957:495
5.957:505
5.957:515
5.957:524
5.958:523
5.958:515
5.958:520
5.958:542
5.958:539
5.961:511
5.962:485
5.962:474
5.962:453
5.962:445
5.962:455
5.962:472
5.962:483
5.962:474
5.962:479
5.966:499
5.966:518
5.966:534
5.966:543
5.981:543
5.982:551
5.982:549
5.982:535
5.982:526
5.982:526
5.985:523
5.985:514
5.985:484
5.985:462
5.986:452
5.986:451
5.986:457
5.986:466
5.986:473
5.986:462
5.989:467
5.989:489
5.989:517
5.989:537
5.989:538
5.990:542
5.990:558
5.990:547
5.990:527
5.993:536
5.993:523
5.993:507
5.993:480
5.993:463
6.009:450
6.010:447
6.010:453
6.014:456
6.014:451
6.014:434
6.015:447
6.016:473
6.016:503
6.016:524
6.016:535
6.016:542
6.018:541
6.018:533
6.018:522
6.018:528
6.018:515
6.019:489
6.019:455
6.019:427
6.019:416
6.019:413
6.022:413
6.022:426
6.022:432
6.022:428
6.023:441
6.023:459
6.023:475
6.023:490
6.038:490
6.038:515
6.043:525
6.043:517
6.043:513
6.044:508
6.044:519
6.044:509
6.044:483
6.044:452
6.045:430
6.047:416
6.047:412
6.047:415
6.047:420
6.048:422
6.048:415
6.048:429
6.048:456
6.049:479
6.049:499
6.051:518
6.051:521
6.051:510
6.051:502
6.051:508
6.052:516
6.052:504
6.052:488
6.052:461
6.070:443
6.070:422
6.072:422
6.072:423
6.072:432
6.072:437
6.072:426
6.072:434
6.076:445
6.076:472
6.076:499
6.076:507
6.076:502
6.076:490
6.077:485
6.077:488
6.077:499
6.077:487
6.080:469
6.080:448
6.080:436
6.080:422
6.081:418
6.081:421
6.081:428
6.081:433
6.081:429
6.083:444
6.083:471
6.083:498
6.100:498
6.100:510
6.100:517
6.100:515
6.100:508
6.100:496
6.100:496
6.104:509
6.104:487
6.104:460
6.104:434
6.105:414
6.105:401
6.105:404
6.105:419
6.105:440
6.105:449
6.108:446
6.108:466
6.108:502
6.108:536
6.109:565
6.109:592
6.109:602
6.109:602
6.109:608
6.112:626
6.112:651
6.112:647
6.112:637
6.128:634
6.128:634
6.128:640
6.129:663
6.133:683
6.133:711
6.133:743
6.134:758
6.134:791
6.134:824
6.134:852
6.134:866
6.134:871
6.135:861
6.137:847
6.137:845
6.137:861
6.137:862
6.137:835
6.138:796
6.138:742
6.138:680
6.138:609
6.141:559
6.141:532
6.141:511
6.141:489
6.141:455
6.142:454
6.142:467
6.156:467
6.156:492
6.156:507
6.162:499
6.162:483
6.162:471
6.162:467
6.163:477
6.163:489
6.163:466
6.163:452
6.163:436
6.163:429
6.166:424
6.166:431
6.166:434
6.166:430
6.166:426
6.167:421
6.167:435
6.167:459
6.167:494
6.170:529
6.170:558
6.170:565
6.170:567
6.170:574
6.170:586
6.171:603
6.171:576
6.190:540
6.190:502
6.190:478
6.190:463
6.191:456
6.191:455
6.191:448
6.191:435
6.191:418
6.192:427
6.194:446
6.194:468
6.194:479
6.194:485
6.194:485
6.195:483
6.195:475
6.195:476
6.195:484
6.198:470
6.199:449
6.199:419
6.199:406
6.199:395
6.201:402
6.201:410
6.201:412
6.201:413
6.201:408
6.202:426
6.219:426
6.219:447
6.219:467
6.219:476
6.219:481
6.219:483
6.220:481
6.220:477
6.220:483
6.223:489
6.223:468
6.223:449
6.223:434
6.223:423
6.223:411
6.224:406
6.224:416
6.224:430
6.227:421
6.227:416
6.227:441
6.227:458
6.228:474
6.228:494
6.228:510
6.228:513
6.228:508
6.229:506
6.231:518
6.231:519
6.247:493
6.247:474
6.247:452
6.247:431
6.248:415
6.252:412
6.252:414
6.252:419
6.252:412
6.252:408
6.253:427
6.253:450
6.253:477
6.253:495
6.254:505
6.256:519
6.256:522
6.256:520
6.256:533
6.257:539
6.257:521
6.257:499
6.257:474
6.257:457
6.258:451
6.259:446
6.259:451
6.259:463
6.259:456
6.260:447
6.276:447
6.276:472
6.277:497
6.277:517
6.277:529
6.280:541
6.280:540
6.281:534
6.281:529
6.281:535
6.281:534
6.282:511
6.282:487
6.282:466
6.284:444
6.284:437
6.284:443
6.284:450
6.285:455
6.285:450
6.285:457
6.285:485
6.285:510
6.286:531
6.287:546
6.288:558
6.288:565
6.288:564
6.288:558
6.288:567
6.304:569
6.309:548
6.309:524
6.309:504
6.309:486
6.310:474
6.310:472
6.310:482
6.310:494
6.310:486
6.310:487
6.313:510
6.313:533
6.313:554
6.313:569
6.314:573
6.314:572
6.314:564
6.314:554
6.314:558
6.317:560
6.317:536
6.317:509
6.318:487
6.318:477
6.318:473
6.318:475
6.318:491
6.318:505
6.319:501
6.338:501
6.338:501
6.338:524
6.338:552
6.339:578
6.339:591
6.339:598
6.339:595
6.339:585
6.340:572
6.342:573
6.342:564
6.342:535
6.342:517
6.342:494
6.342:478
6.343:469
6.343:466
6.343:474
6.343:491
6.345:488
6.345:489
6.346:508
6.346:530
6.346:553
6.346:565
6.346:567
6.347:564
6.347:560
6.349:551
6.366:557
6.366:547
6.366:527
6.366:503
6.366:476
6.366:456
6.367:445
6.370:443
6.370:445
6.370:451
6.371:443
6.371:446
6.371:465
6.371:483
6.371:497
6.372:511
6.375:507
6.375:500
6.375:492
6.375:483
6.376:487
6.376:480
6.376:454
6.376:428
6.376:401
6.376:382
6.378:382
6.378:385
6.378:389
6.378:399
6.395:399
6.395:391
6.395:397
6.395:423
6.396:447
6.396:467
6.398:478
6.399:480
6.399:474
6.401:468
6.401:462
6.401:477
6.401:470
6.401:443
6.401:421
6.403:402
6.403:385
6.403:375
6.404:375
6.404:378
6.404:382
6.404:371
6.404:373
6.405:390
6.405:411
6.407:430
6.407:442
6.407:448
6.407:446
6.408:438
6.422:436
6.422:451
6.422:446
6.427:423
6.428:408
6.428:396
6.428:389
6.428:385
6.428:383
6.428:394
6.429:404
6.429:393
6.432:396
6.433:412
6.433:436
6.433:459
6.433:474
6.433:480
6.433:480
6.433:473
6.434:471
6.434:487
6.435:480
6.435:457
6.436:431
6.436:412
6.436:396
6.436:390
6.436:389
6.437:393
6.452:393
6.452:404
6.456:396
6.456:400
6.456:426
6.456:449
6.456:466
6.458:482
6.458:491
6.458:492
6.458:486
6.461:485
6.461:495
6.461:485
6.461:462
6.461:443
6.461:426
6.461:413
6.461:409
6.462:412
6.462:424
6.465:431
6.466:422
6.466:432
6.466:454
6.466:476
6.466:495
6.466:509
6.467:511
6.467:511
6.485:507
6.485:501
6.485:511
6.485:503
6.486:478
6.486:451
6.486:431
6.486:417
6.489:416
6.489:417
6.489:431
6.489:446
6.490:445
6.490:454
6.490:475
6.490:494
6.490:513
6.490:539
6.493:546
6.493:543
6.494:535
6.494:529
6.494:540
6.494:530
6.494:504
6.494:479
6.495:460
6.497:448
6.497:450
6.498:455
6.513:455
6.513:462
6.514:470
6.514:464
6.514:471
6.515:490
6.515:514
6.518:534
6.518:546
6.518:549
6.518:550
6.519:542
6.519:543
6.519:553
6.519:540
6.519:519
6.520:496
6.522:477
6.522:470
6.522:467
6.523:469
6.523:476
6.523:483
6.523:476
6.523:487
6.524:511
6.526:534
6.526:552
6.526:563
6.526:568
6.542:567
6.542:556
6.542:556
6.542:565
6.546:551
6.546:525
6.546:498
6.546:478
6.546:464
6.546:460
6.549:460
6.549:472
6.549:482
6.550:474
6.550:481
6.550:500
6.550:520
6.550:539
6.550:551
6.551:555
6.551:553
6.551:549
6.551:546
6.554:552
6.554:538
6.554:513
6.554:492
6.555:475
6.555:460
6.555:453
6.571:453
6.571:457
6.571:467
6.575:469
6.575:459
6.575:470
6.575:485
6.576:512
6.576:527
6.576:539
6.576:541
6.576:533
6.577:523
6.579:522
6.579:527
6.579:513
6.579:490
6.579:466
6.579:448
6.580:432
6.580:423
6.580:424
6.583:431
6.583:436
6.584:430
6.584:446
6.584:463
6.584:484
6.585:501
6.585:515
6.604:520
6.604:521
6.604:517
6.604:515
6.605:521
6.605:508
6.605:482
6.605:458
6.605:439
6.608:424
6.608:418
6.608:419
6.608:427
6.609:435
6.609:434
6.609:447
6.609:467
6.609:491
6.609:506
6.612:516
6.612:517
6.612:513
6.612:506
6.612:504
6.613:513
6.613:497
6.613:477
6.613:449
6.613:434
6.615:426
6.631:426
6.631:422
6.631:423
6.633:427
6.633:432
6.633:428
6.633:441
6.633:461
6.634:481
6.636:494
6.636:507
6.636:513
6.637:512
6.637:505
6.637:505
6.637:510
6.638:491
6.638:469
6.641:447
6.641:433
6.641:418
6.641:416
6.641:420
6.641:428
6.641:431
6.642:427
6.642:439
6.642:454
6.644:482
6.644:503
6.661:515
6.661:514
6.661:510
6.661:502
6.662:504
6.665:514
6.666:497
6.666:474
6.667:444
6.667:427
6.667:417
6.667:413
6.667:418
6.668:427
6.668:426
6.669:421
6.669:439
6.669:466
6.669:496
6.670:518
6.670:539
6.670:552
6.670:563
6.670:569
6.672:582
6.673:608
6.673:608
6.673:602
6.673:595
6.673:599
6.689:599
6.689:607
6.690:629
6.690:654
6.694:686
6.694:716
6.694:738
6.694:783
6.694:830
6.695:870
6.695:903
6.695:924
6.695:937
6.695:938
6.698:938
6.698:946
6.699:954
6.699:932
6.699:907
6.699:882
6.699:855
6.699:819
6.699:763
6.699:692
6.702:634
6.702:582
6.702:534
6.702:522
6.702:522
6.703:524
6.717:534
6.723:535
6.723:519
6.723:484
6.723:447
6.723:434
6.723:427
6.724:401
6.724:386
6.724:371
6.724:363
6.726:372
6.726:386
6.726:396
6.728:406
6.728:409
6.728:414
6.728:438
6.728:469
6.728:501
6.731:530
6.731:547
6.731:552
6.731:554
6.732:543
6.732:545
6.732:545
6.732:515
6.732:482
6.732:451
6.751:451
6.751:431
6.751:418
6.751:414
6.751:415
6.752:417
6.752:409
6.752:398
6.752:411
6.752:429
6.755:450
6.755:462
6.755:470
6.755:473
6.756:469
6.756:464
6.756:465
6.756:467
6.756:449
6.759:428
6.759:407
6.759:396
6.760:387
6.760:387
6.760:395
6.760:405
6.760:401
6.760:395
6.760:419
6.763:443
6.779:464
6.779:477
6.780:487
6.780:492
6.781:487
6.781:481
6.781:487
6.784:488
6.784:465
6.784:440
6.784:420
6.784:405
6.784:399
6.785:399
6.785:404
6.785:412
6.788:411
6.788:411
6.788:433
6.788:457
6.789:483
6.789:498
6.789:509
6.789:513
6.789:507
6.789:499
6.792:502
6.792:510
6.792:492
6.792:468
6.808:468
6.808:443
6.809:430
6.809:422
6.809:422
6.809:428
6.813:436
6.813:437
6.813:436
6.813:458
6.813:480
6.813:500
6.814:512
6.814:524
6.815:524
6.817:513
6.817:499
6.817:502
6.817:505
6.818:487
6.818:467
6.818:443
6.818:427
6.818:421
6.818:426
6.820:434
6.820:444
6.820:450
6.821:459
6.821:482
6.837:503
6.837:521
6.837:533
6.840:538
6.840:537
6.842:528
6.842:520
6.842:528
6.842:528
6.842:506
6.843:485
6.843:466
6.845:451
6.845:442
6.845:442
6.845:450
6.846:462
6.846:461
6.846:460
6.846:485
6.846:508
6.847:526
6.849:542
6.849:551
6.849:553
6.849:548
6.849:541
6.849:548
6.849:547
6.850:529
6.865:529
6.865:509
6.870:487
6.870:475
6.870:469
6.870:470
6.870:477
6.870:485
6.871:481
6.871:480
6.871:500
6.874:522
6.874:542
6.874:552
6.874:565
6.875:567
6.875:560
6.875:555
6.875:563
6.875:562
6.876:541
6.878:522
6.878:501
6.878:487
6.878:479
6.879:479
6.879:487
6.879:496
6.879:488
6.879:485
6.899:502
6.899:525
6.899:548
6.899:560
6.899:563
6.899:559
6.899:553
6.899:552
6.903:560
6.903:559
6.903:536
6.903:515
6.903:496
6.903:481
6.904:475
6.904:475
6.904:483
6.904:495
6.907:491
6.907:488
6.907:508
6.907:530
6.907:549
6.908:562
6.908:568
6.908:564
6.908:553
6.911:542
6.911:545
6.911:542
6.927:542
6.927:520
6.927:498
6.927:474
6.928:457
6.928:448
6.928:447
6.931:453
6.931:458
6.932:450
6.932:449
6.932:469
6.932:487
6.932:506
6.932:516
6.933:519
6.933:517
6.935:510
6.935:503
6.935:505
6.935:494
6.936:473
6.936:451
6.936:426
6.936:402
6.936:388
6.939:386
6.939:387
6.939:391
6.939:386
6.956:393
6.956:416
6.956:441
6.956:464
6.960:480
6.960:484
6.960:483
6.960:480
6.960:476
6.960:484
6.961:474
6.961:449
6.961:417
6.961:391
6.964:376
6.964:369
6.965:372
6.965:382
6.965:392
6.965:385
6.965:385
6.966:407
6.966:435
6.968:464
6.968:483
6.968:490
6.968:486
6.969:476
6.969:469
6.969:476
6.984:476
6.984:466
6.984:438
6.989:414
6.989:398
6.989:384
6.989:376
6.990:376
6.990:383
6.990:388
6.990:376
6.990:380
6.991:402
6.992:425
6.992:445
6.992:460
6.992:469
6.992:469
6.993:462
6.993:458
6.993:468
6.993:466
6.997:447
6.997:424
6.997:404
6.998:389
6.998:383
6.998:384
6.999:390
6.999:398
7.017:395
7.017:409
7.017:435
7.017:460
7.018:480
7.018:490
7.018:487
7.018:487
7.018:482
7.021:473
7.021:481
7.021:474
7.021:452
7.022:432
7.022:415
7.022:403
7.022:399
7.022:396
7.022:402
7.026:413
7.026:407
7.026:417
7.026:436
7.027:458
7.027:478
7.027:493
7.027:500
7.027:500
7.028:495
7.029:492
7.046:492
7.046:502
7.046:497
7.046:471
7.046:446
7.047:429
7.047:417
7.047:413
7.047:414
7.049:422
7.050:429
7.050:424
7.050:432
7.050:452
7.050:479
7.050:499
7.051:512
7.051:517
7.054:517
7.054:514
7.054:508
7.054:509
7.054:488
7.056:464
7.056:439
7.056:418
7.056:404
7.057:397
7.058:398
7.058:407
7.075:416
7.075:413
7.075:426
7.075:452
7.075:485
7.079:509
7.079:532
7.079:540
7.079:539
7.080:531
7.080:527
7.080:536
7.080:528
7.080:501
7.081:473
7.082:448
7.082:432
7.082:426
7.083:429
7.083:438
7.083:444
7.083:438
7.084:448
7.084:469
7.087:487
7.087:507
7.087:522
7.088:525
7.088:522
7.088:515
7.102:515
7.103:510
7.103:518
7.103:507
7.107:485
7.107:462
7.107:447
7.107:431
7.108:428
7.108:433
7.108:444
7.108:451
7.108:443
7.108:453
7.112:476
7.112:497
7.112:513
7.112:526
7.113:530
7.113:526
7.113:521
7.113:519
7.113:527
7.113:515
7.115:490
7.116:463
7.116:439
7.116:423
7.116:417
7.116:417
7.132:424
7.136:431
7.136:424
7.136:434
7.136:457
7.137:479
7.137:499
7.137:521
7.137:533
7.137:536
7.138:532
7.140:527
7.140:533
7.140:518
7.140:492
7.140:470
7.141:453
7.141:441
7.141:436
7.141:437
7.144:443
7.144:447
7.144:437
7.144:447
7.145:468
7.145:493
7.145:512
7.145:523
7.145:524
7.146:521
7.164:521
7.165:511
7.165:509
7.165:516
7.165:492
7.166:479
7.166:463
7.166:443
7.166:429
7.166:425
7.169:429
7.169:435
7.169:442
7.169:440
7.170:455
7.170:479
7.170:503
7.170:523
7.170:535
7.172:541
7.172:540
7.172:531
7.172:525
7.173:528
7.173:510
7.173:484
7.173:461
7.173:446
7.174:438
7.177:438
7.193:438
7.193:449
7.193:460
7.193:456
7.194:473
7.194:495
7.194:516
7.197:532
7.197:544
7.197:547
7.199:540
7.199:531
7.199:530
7.199:539
7.199:530
7.199:510
7.202:489
7.202:472
7.202:461
7.202:459
7.203:462
7.203:468
7.203:474
7.203:469
7.203:483
7.203:506
7.205:532
7.205:549
7.205:561
7.205:563
7.221:563
7.221:561
7.221:553
7.221:548
7.221:554
7.221:536
7.226:512
7.226:484
7.226:467
7.227:456
7.227:454
7.227:456
7.227:467
7.227:468
7.228:465
7.230:479
7.231:499
7.232:522
7.232:537
7.232:546
7.232:549
7.233:546
7.233:539
7.233:537
7.233:538
7.234:522
7.234:504
7.234:482
7.234:465
7.235:450
7.250:446
7.250:448
7.250:455
7.255:459
7.255:452
7.255:465
7.255:481
7.255:500
7.256:514
7.256:527
7.256:526
7.256:519
7.259:505
7.259:503
7.259:510
7.259:495
7.260:469
7.260:443
7.260:425
7.260:414
7.260:414
7.260:420
7.262:426
7.262:428
7.262:424
7.262:440
7.263:463
7.263:485
7.263:501
7.263:511
7.279:511
7.279:511
7.283:507
7.283:500
7.284:500
7.284:509
7.284:493
7.284:473
7.284:450
7.284:435
7.285:423
7.288:416
7.288:419
7.288:425
7.289:424
7.289:418
7.289:433
7.289:453
7.289:479
7.289:499
7.290:512
7.292:511
7.292:504
7.292:499
7.292:510
7.293:521
7.293:505
7.293:481
7.293:456
7.293:436
7.312:422
7.312:419
7.312:423
7.313:432
7.313:435
7.313:432
7.313:450
7.313:468
7.316:487
7.316:505
7.316:517
7.316:516
7.317:507
7.317:502
7.317:505
7.317:510
7.317:490
7.318:466
7.320:441
7.320:425
7.320:413
7.320:412
7.320:416
7.320:425
7.320:427
7.320:425
7.322:445
7.324:468
7.324:494
7.324:512
7.341:512
7.341:526
7.341:531
7.341:526
7.341:520
7.342:523
7.342:522
7.345:501
7.345:482
7.345:458
7.345:442
7.346:433
7.346:431
7.346:436
7.346:443
7.346:443
7.346:439
7.349:457
7.349:479
7.349:502
7.349:517
7.350:525
7.350:520
7.350:516
7.350:512
7.350:514
7.352:515
7.352:490
7.352:465
7.353:444
7.369:433
7.370:423
7.370:423
7.370:431
7.374:443
7.374:446
7.374:445
7.374:464
7.375:485
7.375:507
7.375:522
7.375:530
7.375:530
7.378:523
7.378:514
7.378:516
7.378:520
7.379:499
7.379:477
7.379:453
7.379:438
7.379:428
7.380:427
7.381:432
7.381:439
7.381:438
7.382:436
7.382:457
7.382:479
7.382:501
7.398:501
7.398:515
7.398:527
7.402:527
7.402:518
7.402:508
7.403:507
7.403:506
7.403:486
7.403:466
7.403:446
7.403:432
7.404:435
7.406:451
7.406:472
7.406:498
7.406:512
7.406:526
7.407:560
7.407:598
7.407:639
7.407:671
7.410:702
7.410:734
7.410:759
7.410:789
7.410:832
7.410:872
7.410:882
7.412:895
7.431:903
7.432:914
7.432:929
7.432:947
7.432:978
7.432:990
7.432:990
7.433:990
7.433:989
7.435:989
7.435:988
7.435:989
7.435:989
7.436:989
7.436:990
7.436:954
7.436:889
7.436:820
7.437:740
7.439:661
7.439:588
7.439:532
7.439:486
7.439:452
7.439:424
7.441:377
7.441:333
7.441:312
7.442:323
7.442:342
7.460:342
7.460:372
7.460:402
7.460:427
7.460:445
7.461:457
7.461:465
7.461:483
7.461:491
7.463:480
7.464:474
7.464:470
7.464:467
7.464:463
7.465:463
7.465:462
7.465:459
7.465:441
7.468:431
7.468:447
7.468:460
7.468:474
7.469:487
7.469:493
7.469:489
7.469:479
7.469:468
7.470:470
7.471:465
7.471:442
7.488:420
7.488:399
7.488:387
7.489:380
7.489:382
7.492:393
7.492:401
7.492:396
7.492:397
7.492:418
7.493:438
7.493:460
7.493:472
7.493:481
7.493:481
7.496:476
7.496:470
7.497:477
7.497:473
7.497:449
7.497:424
7.497:401
7.499:383
7.499:375
7.500:376
7.500:385
7.500:396
7.500:397
7.501:404
7.501:430
7.516:430
7.516:454
7.516:480
7.517:499
7.521:507
7.521:507
7.521:503
7.521:496
7.521:502
7.521:498
7.522:474
7.522:449
7.522:426
7.522:408
7.525:397
7.525:396
7.525:403
7.525:411
7.526:408
7.526:411
7.526:435
7.526:457
7.526:479
7.529:495
7.529:503
7.529:510
7.529:508
7.530:505
7.530:515
7.530:517
7.545:498
7.549:477
7.549:449
7.549:431
7.550:426
7.550:426
7.550:433
7.550:440
7.550:435
7.550:438
7.552:459
7.553:480
7.553:503
7.554:515
7.554:521
7.554:520
7.554:514
7.554:508
7.555:516
7.555:516
7.557:491
7.557:468
7.557:455
7.557:444
7.557:439
7.559:438
7.559:442
7.559:447
7.559:446
7.559:450
7.578:450
7.578:469
7.578:490
7.578:511
7.579:526
7.579:531
7.579:530
7.579:526
7.579:519
7.580:530
7.582:529
7.583:512
7.583:493
7.583:476
7.583:462
7.584:456
7.584:458
7.584:466
7.584:476
7.586:468
7.586:472
7.587:496
7.587:519
7.587:539
7.587:552
7.587:553
7.588:553
7.588:550
7.588:545
7.590:555
7.607:549
7.607:524
7.607:502
7.607:481
7.608:468
7.608:466
7.608:468
7.611:475
7.611:486
7.611:482
7.611:491
7.612:515
7.612:539
7.612:557
7.612:567
7.612:572
7.615:573
7.615:567
7.615:564
7.615:570
7.616:566
7.616:545
7.616:525
7.616:507
7.616:493
7.617:487
7.619:487
7.619:495
7.619:504
7.619:497
7.635:497
7.635:502
7.635:524
7.635:543
7.636:558
7.636:569
7.640:570
7.640:568
7.640:561
7.641:558
7.641:568
7.641:563
7.641:543
7.641:525
7.642:510
7.643:497
7.643:492
7.644:496
7.644:507
7.644:513
7.644:508
7.645:521
7.645:541
7.645:560
7.645:572
7.647:581
7.647:580
7.648:576
7.648:567
7.648:558
7.664:564
7.664:552
7.664:523
7.668:498
7.668:480
7.668:465
7.668:458
7.669:457
7.669:460
7.669:465
7.669:457
7.669:466
7.672:488
7.672:508
7.672:521
7.672:531
7.673:531
7.673:525
7.673:516
7.673:505
7.673:514
7.674:505
7.676:478
7.676:452
7.676:431
7.676:417
7.676:410
7.677:410
7.677:413
7.677:418
7.693:418
7.693:409
7.697:416
7.697:437
7.698:457
7.698:474
7.698:484
7.698:486
7.698:482
7.698:473
7.699:466
7.701:473
7.701:462
7.701:436
7.701:411
7.701:392
7.702:375
7.702:368
7.702:368
7.702:372
7.702:378
7.705:367
7.705:375
7.705:397
7.705:420
7.706:440
7.706:454
7.706:457
7.706:457
7.706:454
7.726:453
7.726:464
7.726:457
7.726:434
7.726:412
7.727:392
7.727:381
7.727:377
7.731:381
7.731:388
7.731:395
7.731:386
7.731:396
7.731:417
7.731:441
7.731:458
7.731:467
7.734:464
7.734:458
7.734:448
7.734:443
7.735:452
7.735:443
7.735:423
7.735:399
7.735:387
7.736:380
7.738:380
7.738:385
7.738:395
7.754:395
7.755:405
7.755:409
7.755:426
7.755:446
7.755:467
7.756:482
7.758:491
7.759:489
7.759:483
7.759:479
7.759:479
7.759:486
7.759:475
7.760:453
7.760:429
7.760:411
7.763:399
7.763:397
7.763:400
7.763:409
7.763:414
7.764:408
7.764:422
7.764:443
7.765:467
7.766:484
7.766:495
7.766:499
7.766:498
7.783:490
7.783:487
7.783:497
7.783:484
7.787:460
7.787:434
7.787:418
7.787:404
7.788:403
7.788:406
7.788:416
7.788:421
7.788:417
7.791:434
7.791:457
7.791:483
7.791:499
7.792:508
7.792:510
7.792:506
7.792:498
7.792:493
7.792:502
7.795:490
7.795:465
7.795:441
7.795:427
7.796:415
7.796:411
7.796:414
7.811:414
7.812:422
7.812:429
7.816:422
7.816:437
7.816:459
7.816:481
7.817:499
7.817:511
7.817:514
7.817:512
7.817:507
7.818:506
7.820:514
7.820:500
7.820:480
7.820:455
7.821:440
7.821:428
7.821:425
7.821:429
7.821:436
7.824:439
7.824:433
7.824:446
7.824:465
7.825:486
7.825:500
7.825:510
7.825:509
7.844:501
7.844:490
7.844:493
7.844:506
7.846:496
7.846:476
7.846:453
7.846:438
7.847:427
7.849:426
7.849:433
7.849:446
7.849:451
7.849:447
7.850:462
7.850:483
7.850:505
7.850:520
7.850:529
7.852:530
7.852:525
7.852:515
7.853:508
7.853:513
7.853:502
7.853:480
7.853:456
7.854:436
7.856:425
7.856:426
7.872:426
7.873:429
7.873:436
7.873:440
7.873:438
7.873:457
7.873:481
7.874:504
7.877:518
7.877:527
7.877:528
7.878:524
7.878:516
7.878:515
7.878:520
7.878:503
7.878:479
7.879:456
7.881:438
7.881:428
7.881:427
7.882:430
7.882:435
7.882:435
7.882:427
7.882:444
7.883:466
7.883:488
7.884:503
7.884:517
7.901:519
7.901:515
7.901:507
7.901:508
7.901:513
7.906:494
7.906:470
7.906:446
7.906:430
7.906:420
7.907:420
7.907:425
7.907:431
7.907:436
7.907:432
7.910:448
7.910:471
7.910:494
7.910:509
7.910:516
7.910:520
7.911:520
7.911:511
7.911:511
7.914:519
7.914:500
7.914:477
7.914:454
7.914:439
7.915:428
7.930:428
7.930:427
7.930:425
7.931:428
7.934:427
7.934:420
7.935:435
7.935:457
7.935:484
7.935:502
7.935:518
7.935:524
7.936:522
7.936:517
7.938:522
7.938:532
7.938:517
7.940:496
7.940:473
7.940:455
7.940:442
7.940:437
7.940:440
7.942:447
7.942:446
7.942:441
7.943:460
7.943:480
7.943:501
7.943:512
7.958:523
7.964:523
7.964:519
7.964:511
7.965:514
7.965:517
7.965:498
7.965:476
7.965:451
7.965:433
7.966:421
7.967:421
7.967:425
7.967:433
7.967:432
7.967:430
7.968:450
7.968:474
7.968:499
7.968:514
7.972:524
7.972:525
7.972:521
7.972:512
7.973:512
7.973:515
7.973:495
7.973:469
7.973:445
7.974:430
7.992:430
7.992:422
7.992:424
7.993:433
7.993:441
7.993:442
7.993:442
7.993:462
7.994:484
7.994:508
7.996:520
7.997:529
7.997:528
7.997:524
7.998:517
7.998:517
7.998:517
7.998:502
7.998:480
8.000:456
8.000:440
8.000:429
8.000:428
8.001:432
8.002:440
8.002:439
8.002:435
8.002:452
8.002:473
8.004:497
8.020:511
8.020:520
8.020:519
8.020:513
8.020:506
8.020:508
8.021:510
8.024:495
8.025:475
8.025:452
8.025:435
8.025:425
8.025:423
8.025:428
8.026:436
8.026:435
8.029:432
8.029:451
8.029:475
8.029:500
8.030:512
8.031:519
8.031:517
8.031:510
8.032:503
8.032:508
8.032:512
8.032:495
8.032:475
8.033:456
8.049:456
8.049:444
8.049:435
8.049:434
8.049:440
8.050:449
8.052:448
8.052:447
8.052:465
8.054:485
8.054:506
8.054:519
8.054:527
8.054:527
8.054:522
8.057:513
8.057:519
8.057:518
8.057:496
8.058:474
8.058:451
8.058:440
8.058:435
8.058:436
8.058:443
8.062:452
8.062:450
8.062:448
8.062:468
8.062:487
8.077:511
8.077:525
8.082:535
8.082:536
8.082:530
8.083:522
8.083:529
8.083:529
8.083:509
8.083:485
8.084:462
8.084:446
8.086:435
8.086:433
8.086:438
8.086:446
8.087:443
8.087:440
8.087:460
8.087:483
8.087:505
8.088:518
8.090:526
8.090:526
8.090:519
8.090:513
8.090:517
8.090:518
8.090:496
8.090:475
8.106:475
8.106:454
8.110:438
8.111:430
8.111:433
8.111:441
8.111:449
8.111:448
8.111:449
8.112:471
8.112:494
8.115:514
8.115:525
8.115:530
8.115:530
8.115:524
8.115:516
8.115:521
8.115:520
8.115:498
8.116:475
8.119:453
8.119:438
8.119:427
8.119:427
8.120:432
8.120:442
8.120:441
8.120:442
8.120:462
8.139:486
8.139:509
8.140:525
8.140:532
8.140:530
8.140:525
8.140:517
8.141:523
8.143:523
8.143:501
8.143:477
8.143:454
8.143:437
8.144:430
8.144:427
8.144:436
8.144:450
8.147:448
8.147:452
8.148:473
8.148:493
8.148:514
8.148:527
8.148:534
8.148:533
8.148:526
8.148:518
8.151:526
8.151:523
8.151:504
8.167:504
8.168:482
8.168:456
8.168:438
8.168:433
8.168:436
8.168:442
8.171:448
8.172:443
8.172:445
8.172:466
8.172:491
8.173:514
8.173:527
8.173:530
8.173:528
8.173:524
8.175:518
8.175:526
8.176:528
8.176:508
8.176:485
8.176:463
8.176:447
8.177:439
8.177:443
8.180:451
8.180:460
8.180:453
8.180:454
8.196:473
8.197:495
8.197:515
8.197:527
8.201:535
8.201:534
8.201:527
8.201:522
8.201:530
8.201:527
8.201:505
8.202:481
8.202:458
8.205:443
8.205:436
8.205:434
8.205:440
8.206:448
8.206:442
8.206:446
8.206:467
8.206:490
8.206:510
8.209:527
8.209:535
8.209:536
8.209:532
8.210:526
8.210:532
8.210:526
8.224:526
8.225:499
8.225:472
8.229:448
8.229:431
8.229:424
8.231:425
8.231:430
8.231:436
8.231:427
8.232:430
8.232:455
8.232:484
8.234:509
8.234:526
8.234:533
8.234:536
8.234:533
8.235:530
8.235:542
8.235:538
8.235:516
8.237:494
8.237:473
8.237:457
8.237:451
8.238:450
8.238:456
8.238:462
8.238:452
8.258:455
8.258:473
8.258:496
8.258:516
8.258:530
8.258:535
8.259:536
8.259:531
8.259:527
8.262:539
8.262:535
8.262:512
8.262:490
8.262:470
8.262:456
8.263:450
8.263:452
8.263:458
8.263:465
8.266:458
8.266:465
8.266:486
8.267:508
8.267:530
8.267:547
8.267:552
8.268:553
8.268:549
8.270:545
8.270:553
8.286:553
8.286:548
8.287:523
8.287:499
8.287:479
8.287:465
8.287:457
8.288:457
8.291:462
8.291:469
8.291:464
8.291:468
8.291:493
8.291:519
8.291:540
8.291:551
8.292:554
8.292:556
8.295:554
8.295:549
8.295:559
8.295:554
8.296:529
8.296:504
8.296:483
8.297:468
8.297:464
8.298:464
8.299:471
8.299:476
8.315:469
8.315:475
8.315:497
8.315:517
8.315:533
8.319:543
8.319:545
8.319:541
8.319:533
8.320:528
8.320:536
8.320:528
8.320:504
8.320:479
8.321:456
8.323:440
8.323:434
8.323:436
8.323:441
8.323:449
8.324:446
8.324:457
8.324:480
8.324:499
8.327:512
8.327:522
8.327:525
8.328:521
8.328:514
8.328:507
8.344:507
8.344:518
8.344:511
8.344:486
8.348:463
8.348:444
8.348:431
8.348:426
8.349:426
8.349:432
8.349:440
8.349:433
8.349:442
8.350:464
8.352:487
8.352:505
8.352:515
8.353:520
8.353:519
8.353:511
8.353:508
8.353:515
8.354:504
8.356:479
8.356:452
8.356:431
8.356:418
8.357:411
8.357:412
8.357:422
8.372:431
8.377:425
8.377:433
8.377:455
8.377:481
8.378:501
8.378:517
8.378:523
8.378:522
8.378:516
8.379:511
8.381:521
8.381:510
8.381:486
8.382:460
8.382:441
8.382:424
8.382:420
8.382:421
8.382:425
8.385:427
8.385:418
8.385:424
8.385:446
8.386:470
8.386:491
8.386:503
8.386:511
8.386:514
8.387:511
8.405:511
8.405:512
8.405:526
8.405:521
8.405:501
8.407:478
8.407:459
8.407:445
8.407:438
8.408:438
8.410:446
8.410:453
8.410:446
8.410:453
8.411:474
8.411:498
8.411:515
8.411:526
8.411:527
8.412:524
8.414:517
8.414:514
8.414:521
8.415:511
8.415:488
8.415:465
8.415:448
8.415:433
8.415:428
8.417:431
8.434:440
8.434:447
8.434:440
8.434:450
8.435:472
8.435:495
8.435:513
8.438:525
8.438:527
8.438:524
8.438:518
8.438:515
8.439:523
8.439:512
8.439:490
8.439:465
8.442:447
8.442:433
8.442:427
8.442:426
8.442:435
8.443:440
8.443:431
8.443:443
8.443:468
8.443:494
8.446:511
8.446:522
8.446:527
8.448:527
8.462:527
8.462:524
8.462:522
8.462:535
8.462:523
8.463:498
8.466:473
8.466:452
8.466:436
8.466:430
8.467:431
8.467:435
8.467:441
8.467:432
8.467:441
8.471:464
8.471:490
8.471:506
8.471:521
8.471:528
8.472:528
8.472:524
8.472:523
8.472:534
8.472:521
8.475:499
8.475:476
8.475:460
8.475:447
8.475:443
8.490:447
8.491:454
8.496:456
8.497:449
8.497:461
8.497:484
8.497:506
8.497:519
8.498:529
8.498:530
8.498:526
8.498:521
8.500:520
8.500:529
8.500:520
8.500:499
8.501:477
8.501:461
8.501:448
8.501:442
8.501:444
8.502:451
8.503:454
8.503:445
8.503:455
8.504:473
8.504:496
8.504:513
8.504:525
8.504:528
8.519:528
8.519:528
8.524:521
8.524:521
8.524:531
8.524:521
8.524:499
8.525:478
8.525:465
8.525:454
8.525:450
8.528:454
8.528:462
8.528:465
8.528:455
8.529:468
8.530:489
8.530:512
8.530:528
8.530:539
8.530:540
8.532:537
8.532:531
8.532:528
8.533:534
8.533:519
8.533:497
8.533:473
8.533:457
8.533:444
8.552:441
8.552:443
8.553:451
8.553:453
8.553:448
8.553:461
8.553:485
8.554:509
8.557:524
8.557:537
8.557:539
8.557:536
8.557:529
8.557:526
8.558:534
8.558:517
8.558:493
8.561:466
8.562:450
8.563:439
8.564:434
8.564:436
8.564:444
8.564:445
8.564:438
8.565:455
8.565:479
8.565:506
8.565:524
8.565:538
8.580:538
8.580:543
8.582:541
8.582:536
8.582:532
8.582:535
8.582:518
8.586:493
8.586:465
8.586:446
8.587:435
8.587:438
8.587:444
8.587:453
8.587:455
8.587:454
8.590:472
8.590:498
8.590:527
8.590:543
8.591:551
8.591:551
8.591:545
8.591:538
8.591:538
8.591:541
8.593:523
8.593:500
8.593:476
8.593:462
8.610:451
8.610:446
8.610:448
8.610:452
8.614:453
8.614:446
8.614:464
8.615:487
8.615:509
8.615:523
8.615:534
8.615:538
8.615:539
8.618:532
8.618:534
8.618:539
8.618:520
8.619:495
8.619:468
8.619:451
8.619:439
8.619:438
8.619:442
8.622:452
8.622:457
8.622:451
8.622:470
8.623:492
8.623:514
8.623:531
8.638:531
8.638:542
8.639:542
8.643:537
8.643:530
8.643:529
8.644:533
8.644:515
8.644:491
8.644:464
8.644:449
8.645:438
8.646:434
8.647:439
8.647:446
8.647:447
8.647:444
8.647:461
8.647:483
8.649:508
8.649:525
8.649:538
8.651:542
8.651:538
8.651:531
8.651:531
8.651:532
8.652:512
8.652:489
8.652:467
8.671:453
8.671:442
8.672:440
8.672:446
8.672:453
8.672:456
8.672:451
8.673:469
8.673:488
8.676:511
8.676:526
8.676:535
8.676:536
8.677:534
8.677:527
8.677:530
8.677:535
8.677:519
8.678:499
8.680:476
8.680:461
8.681:449
8.681:446
8.681:449
8.681:457
8.681:458
8.682:453
8.682:468
8.682:487
8.683:506
8.700:506
8.700:521
8.700:531
8.700:532
8.700:530
8.700:527
8.700:531
8.702:538
8.704:516
8.704:494
8.704:471
8.704:455
8.705:445
8.705:445
8.705:451
8.705:460
8.705:460
8.706:455
8.708:473
8.708:494
8.708:516
8.708:529
8.709:538
8.709:539
8.709:533
8.709:526
8.709:530
8.712:534
8.713:514
8.713:492
8.728:468
8.728:454
8.728:443
8.729:440
8.729:441
8.733:448
8.733:450
8.733:448
8.734:467
8.734:488
8.734:510
8.734:524
8.734:534
8.735:534
8.735:529
8.737:522
8.737:525
8.737:526
8.738:504
8.738:479
8.738:456
8.738:439
8.738:428
8.738:427
8.741:433
8.741:443
8.741:445
8.741:446
8.742:470
8.742:494
8.757:494
8.757:516
8.758:532
8.758:543
8.762:546
8.762:540
8.762:535
8.762:538
8.762:538
8.764:515
8.764:491
8.764:467
8.764:451
8.764:440
8.766:437
8.766:440
8.766:449
8.766:447
8.767:447
8.767:466
8.767:486
8.767:508
8.767:521
8.770:532
8.770:536
8.770:533
8.770:529
8.771:533
8.771:534
8.771:516
8.786:497
8.790:474
8.790:461
8.790:451
8.790:449
8.791:453
8.791:461
8.791:461
8.791:459
8.791:476
8.792:498
8.794:517
8.794:532
8.794:539
8.794:539
8.794:533
8.795:526
8.795:532
8.795:534
8.796:513
8.798:491
8.798:467
8.798:451
8.798:441
8.800:440
8.800:444
8.800:451
8.800:449
8.800:445
8.801:463
8.819:463
8.819:484
8.819:504
8.819:518
8.820:525
8.820:525
8.820:517
8.820:515
8.820:523
8.820:528
8.823:509
8.823:488
8.823:469
8.823:455
8.823:448
8.824:447
8.824:453
8.824:460
8.824:458
8.827:453
8.827:471
8.828:495
8.828:516
8.828:528
8.828:535
8.829:534
8.829:528
8.829:521
8.830:526
8.831:527
8.847:505
8.847:483
8.847:462
8.847:449
8.848:443
8.848:440
8.852:445
8.852:456
8.852:457
8.852:456
8.853:476
8.853:496
8.853:518
8.853:530
8.853:537
8.853:535
8.856:528
8.856:521
8.856:526
8.856:527
8.856:508
8.856:489
8.857:466
8.857:453
8.857:445
8.857:445
8.859:449
8.860:457
8.860:454
8.860:452
8.876:452
8.876:472
8.876:492
8.876:513
8.877:527
8.877:537
8.880:540
8.880:534
8.880:525
8.880:533
8.880:532
8.880:510
8.881:487
8.881:463
8.881:449
8.884:440
8.884:440
8.884:449
8.884:457
8.885:454
8.885:455
8.885:474
8.885:496
8.885:517
8.886:532
8.888:540
8.888:536
8.888:530
8.888:521
8.889:525
8.905:522
8.905:498
8.909:476
8.909:456
8.909:443
8.909:436
8.910:440
8.910:449
8.910:458
8.910:455
8.910:457
8.910:479
8.913:501
8.914:520
8.914:530
8.914:533
8.914:531
8.914:522
8.914:515
8.915:521
8.915:522
8.917:502
8.917:480
8.917:460
8.917:448
8.918:442
8.918:445
8.918:453
8.918:458
8.918:455
8.932:455
8.937:455
8.938:476
8.938:495
8.938:516
8.938:529
8.938:535
8.939:535
8.939:528
8.939:520
8.939:527
8.941:522
8.941:496
8.941:471
8.941:448
8.942:436
8.942:435
8.942:438
8.942:445
8.942:457
8.942:455
8.946:455
8.946:476
8.946:499
8.946:522
8.947:540
8.947:549
8.947:550
8.947:542
8.947:535
8.966:540
8.966:535
8.966:510
8.966:487
8.966:467
8.967:453
8.967:446
8.967:447
8.970:451
8.970:457
8.970:449
8.971:450
8.971:470
8.971:491
8.971:513
8.971:527
8.972:532
8.975:533
8.975:529
8.975:525
8.975:531
8.976:529
8.976:508
8.976:485
8.976:465
8.976:450
8.977:443
8.978:444
8.979:448
8.979:454
8.995:454
8.995:449
8.995:453
8.995:473
8.996:496
8.997:519
8.997:533
8.999:538
8.999:539
8.999:533
9.000:526
9.000:534
9.000:527
9.000:503
9.000:476
9.000:455
9.002:438
9.002:429
9.003:426
9.003:428
9.003:431
9.003:421
9.004:426
9.004:452
9.004:483
9.004:524
9.007:558
9.007:583
9.007:606
9.007:624
9.023:641
9.023:681
9.023:705
9.023:704
9.028:705
9.028:706
9.028:721
9.029:752
9.029:792
9.029:836
9.030:874
9.030:896
9.030:934
9.032:981
9.032:989
9.032:989
9.032:989
9.032:988
9.032:988
9.032:988
9.034:987
9.034:987
9.034:987
9.036:987
9.036:988
9.036:989
9.036:990
9.037:988
9.037:940
9.037:883
9.052:883
9.052:826
9.052:762
9.056:702
9.056:670
9.056:641
9.056:619
9.057:598
9.057:548
9.057:480
9.057:432
9.057:402
9.060:399
9.060:396
9.060:391
9.060:383
9.061:375
9.061:381
9.061:391
9.061:399
9.062:413
9.062:433
9.064:446
9.064:469
9.064:502
9.064:529
9.064:543
9.065:548
9.065:537
9.065:518
9.085:495
9.085:474
9.085:472
9.085:460
9.085:436
9.086:409
9.086:383
9.086:358
9.086:341
9.089:337
9.089:346
9.089:355
9.089:348
9.090:357
9.090:381
9.090:406
9.090:425
9.090:438
9.090:442
9.093:441
9.093:434
9.093:426
9.094:431
9.094:419
9.094:394
9.094:368
9.094:350
9.095:336
9.097:333
9.097:340
9.113:340
9.113:352
9.114:365
9.114:362
9.114:373
9.114:403
9.114:433
9.114:457
9.118:472
9.118:475
9.119:472
9.119:461
9.119:453
9.119:464
9.119:457
9.120:434
9.120:411
9.120:394
9.122:384
9.122:380
9.122:383
9.122:390
9.123:397
9.123:391
9.123:399
9.123:425
9.123:451
9.126:473
9.126:487
9.126:492
9.142:494
9.142:488
9.143:486
9.143:496
9.143:487
9.147:461
9.147:436
9.147:418
9.148:406
9.148:403
9.148:407
9.148:418
9.149:431
9.149:428
9.149:441
9.150:470
9.150:497
9.150:517
9.150:531
9.150:536
9.150:536
9.152:531
9.152:527
9.152:538
9.155:530
9.155:505
9.155:480
9.155:459
9.156:444
9.156:437
9.170:437
9.170:437
9.170:442
9.172:448
9.175:439
9.175:445
9.175:467
9.175:492
9.175:511
9.176:527
9.176:533
9.176:532
9.176:527
9.176:524
9.179:532
9.180:523
9.180:503
9.180:478
9.180:458
9.180:443
9.180:439
9.180:444
9.180:452
9.183:460
9.183:457
9.184:469
9.184:494
9.184:519
9.184:538
9.184:551
9.199:554
9.204:552
9.204:542
9.204:536
9.204:544
9.205:530
9.205:504
9.205:478
9.205:459
9.205:442
9.206:436
9.208:437
9.208:442
9.208:452
9.208:449
9.208:461
9.208:481
9.209:505
9.209:522
9.209:534
9.213:539
9.213:539
9.213:533
9.213:531
9.213:538
9.213:527
9.213:506
9.214:482
9.214:466
9.214:452
9.233:452
9.233:449
9.233:451
9.233:460
9.233:466
9.233:459
9.233:471
9.233:495
9.233:518
9.233:535
9.237:548
9.237:549
9.237:545
9.237:536
9.237:529
9.238:535
9.238:522
9.238:499
9.238:477
9.241:460
9.241:448
9.241:446
9.241:452
9.241:465
9.241:471
9.241:466
9.242:475
9.242:494
9.242:515
9.245:536
9.261:549
9.261:551
9.261:546
9.262:538
9.262:536
9.262:540
9.265:526
9.265:504
9.265:480
9.265:463
9.265:451
9.265:445
9.266:446
9.266:452
9.266:456
9.266:450
9.269:459
9.269:480
9.269:503
9.269:517
9.270:528
9.270:529
9.270:525
9.270:516
9.270:513
9.273:519
9.273:505
9.273:483
9.273:457
9.274:438
9.289:438
9.290:423
9.290:418
9.290:418
9.290:423
9.290:427
9.294:419
9.294:427
9.294:447
9.294:467
9.295:480
9.295:487
9.295:485
9.295:478
9.295:467
9.298:461
9.298:468
9.298:458
9.298:437
9.299:414
9.299:396
9.299:384
9.299:382
9.299:383
9.300:393
9.301:402
9.301:399
9.301:413
9.302:435
9.302:456
9.318:471
9.318:481
9.323:479
9.323:473
9.323:464
9.323:461
9.323:467
9.323:451
9.324:427
9.324:402
9.324:383
9.324:370
9.327:368
9.327:369
9.327:376
9.327:380
9.328:374
9.328:388
9.328:410
9.328:432
9.328:449
9.331:461
9.331:462
9.331:460
9.331:452
9.331:449
9.331:457
9.331:443
9.331:421
9.332:398
9.346:398
9.351:383
9.352:372
9.352:368
9.352:373
9.352:383
9.352:388
9.353:385
9.353:402
9.353:424
9.353:449
9.355:464
9.355:474
9.355:474
9.355:470
9.356:462
9.356:461
9.356:468
9.356:454
9.356:432
9.357:410
9.359:395
9.359:383
9.359:380
9.360:383
9.360:392
9.360:395
9.360:390
9.360:406
9.360:430
9.379:456
9.379:475
9.380:490
9.380:493
9.380:492
9.380:489
9.380:492
9.381:499
9.384:482
9.384:459
9.384:436
9.384:422
9.385:410
9.385:407
9.385:409
9.385:416
9.385:416
9.388:410
9.388:427
9.388:449
9.388:471
9.389:486
9.389:498
9.389:498
9.390:492
9.390:484
9.390:484
9.392:489
9.392:477
9.392:459
9.408:459
9.408:439
9.409:423
9.409:412
9.409:413
9.409:419
9.409:431
9.413:436
9.413:435
9.413:454
9.413:476
9.414:497
9.414:512
9.414:525
9.414:525
9.414:520
9.417:511
9.417:511
9.417:518
9.417:499
9.418:475
9.418:449
9.418:432
9.418:419
9.418:417
9.418:422
9.421:431
9.421:436
9.422:434
9.422:452
9.437:477
9.437:501
9.437:517
9.438:527
9.441:530
9.441:528
9.442:521
9.442:520
9.442:527
9.442:511
9.442:488
9.442:463
9.442:447
9.445:433
9.445:432
9.445:435
9.445:443
9.447:446
9.447:439
9.447:458
9.447:480
9.447:503
9.448:520
9.449:531
9.449:532
9.449:526
9.449:521
9.449:521
9.451:525
9.451:507
9.465:507
9.465:482
9.465:454
9.470:437
9.470:426
9.470:424
9.470:430
9.470:440
9.471:448
9.471:447
9.471:460
9.471:477
9.474:501
9.474:521
9.474:532
9.474:536
9.474:532
9.475:523
9.475:523
9.475:527
9.475:507
9.475:483
9.478:459
9.479:443
9.479:433
9.479:433
9.479:439
9.479:444
9.481:444
9.481:440
9.498:460
9.498:480
9.499:502
9.499:517
9.499:527
9.499:528
9.499:524
9.499:516
9.500:519
9.502:523
9.502:505
9.502:483
9.502:460
9.503:445
9.503:434
9.503:434
9.503:438
9.503:447
9.504:447
9.506:444
9.506:461
9.506:482
9.507:504
9.507:520
9.507:528
9.507:529
9.507:523
9.508:515
9.511:517
9.511:520
9.527:520
9.527:503
9.527:479
9.528:455
9.528:439
9.528:428
9.529:427
9.529:431
9.531:439
9.531:440
9.531:435
9.531:453
9.531:476
9.531:499
9.532:513
9.532:524
9.532:525
9.532:519
9.536:512
9.536:512
9.536:517
9.536:497
9.537:476
9.537:453
9.537:437
9.537:426
9.537:425
9.539:430
9.540:436
9.540:435
9.555:434
9.556:453
9.556:475
9.556:499
9.556:512
9.560:520
9.560:521
9.560:515
9.561:511
