0.000:529
0.000:525
0.000:528
0.001:520
0.001:512
0.001:494
0.001:486
0.001:498
0.001:524
0.001:554
0.001:561
0.001:547
0.001:531
0.002:519
0.002:514
0.002:521
0.002:525
0.002:530
0.002:531
0.002:536
0.003:526
0.003:517
0.003:528
0.003:531
0.004:526
0.004:516
0.004:514
0.004:510
0.004:505
0.005:499
0.005:498
0.005:492
0.005:490
0.005:522
0.005:540
0.005:555
0.005:557
0.005:545
0.005:533
0.006:526
0.006:524
0.006:525
0.006:525
0.006:525
0.006:515
0.006:502
0.007:499
0.007:500
0.007:511
0.007:512
0.007:518
0.007:520
0.007:506
0.007:514
0.008:527
0.008:538
0.008:530
0.008:518
0.008:511
0.008:514
0.008:514
0.008:515
0.008:514
0.008:516
0.008:518
0.008:517
0.009:502
0.009:499
0.009:500
0.009:520
0.009:527
0.009:528
0.009:522
0.009:517
0.009:526
0.009:541
0.009:559
0.009:570
0.009:569
0.010:557
0.010:551
0.010:550
0.010:529
0.010:503
0.010:478
0.010:454
0.010:427
0.010:407
0.010:383
0.010:365
0.010:344
0.010:335
0.010:311
0.011:271
0.011:224
0.011:177
0.011:135
0.011:85
0.011:37
0.011:17
0.011:17
0.011:17
0.011:17
0.011:18
0.011:18
0.011:19
0.011:19
0.011:19
0.012:19
0.012:19
0.012:19
0.012:19
0.012:19
0.012:19
0.012:18
0.012:18
0.012:17
0.012:18
0.012:130
0.012:233
0.012:233
0.012:317
0.012:427
0.013:555
0.013:660
0.013:724
0.013:760
0.013:757
0.013:730
0.013:707
0.013:690
0.013:677
0.013:671
0.013:668
0.013:671
0.013:667
0.014:659
0.014:658
0.014:644
0.014:626
0.014:605
0.015:603
0.015:607
0.015:604
0.015:594
0.015:592
0.015:593
0.015:588
0.015:585
0.015:582
0.015:584
0.015:589
0.015:597
0.015:604
0.016:618
0.016:627
0.016:619
0.016:613
0.016:613
0.016:612
0.016:605
0.016:615
0.016:626
0.016:630
0.016:619
0.016:593
0.016:582
0.016:584
0.017:590
0.017:586
0.017:585
0.017:592
0.017:581
0.017:591
0.017:605
0.017:607
0.017:608
0.017:611
0.017:610
0.017:609
0.017:609
0.017:601
0.018:601
0.018:594
0.018:591
0.018:598
0.018:597
0.018:600
0.018:583
0.018:578
0.018:568
0.018:561
0.018:557
0.018:545
0.018:544
0.018:560
0.018:571
0.018:582
0.018:590
0.018:585
0.018:596
0.018:588
0.018:571
0.018:554
0.019:552
0.019:551
0.019:544
0.019:540
0.019:531
0.019:531
0.019:527
0.019:522
0.019:523
0.019:544
0.019:550
0.019:546
0.019:562
0.019:560
0.019:566
0.019:557
0.019:537
0.019:509
0.019:496
0.019:495
0.019:511
0.019:529
0.020:528
0.020:517
0.020:505
0.020:508
0.020:516
0.020:519
0.020:523
0.020:523
0.020:523
0.020:525
0.020:518
0.021:515
0.021:519
0.021:501
0.021:501
0.021:499
0.021:497
0.021:496
0.021:502
0.021:500
0.022:491
0.022:485
0.022:487
0.022:488
0.022:486
0.022:484
0.022:486
0.022:482
0.022:480
0.023:482
0.023:487
0.023:487
0.023:483
0.023:491
0.023:496
0.023:498
0.023:485
0.023:473
0.023:454
0.023:459
0.023:463
0.023:480
0.023:496
0.023:487
0.024:467
0.024:448
0.024:453
0.024:455
0.024:452
0.024:453
0.024:457
0.024:466
0.024:463
0.024:466
0.024:465
0.024:466
0.024:452
0.024:435
0.024:432
0.024:437
0.024:434
0.024:434
0.025:435
0.025:423
0.025:411
0.025:408
0.025:417
0.025:429
0.025:438
0.025:437
0.025:432
0.025:426
0.025:418
0.025:416
0.025:416
0.025:418
0.025:425
0.025:413
0.025:394
0.025:398
0.025:409
0.025:415
0.025:423
0.025:440
0.026:433
0.026:416
0.026:412
0.026:406
0.026:396
0.026:410
0.026:417
0.026:425
0.026:446
0.026:446
0.026:438
0.026:424
0.026:425
0.026:427
0.026:433
0.026:437
0.026:436
0.026:441
0.026:443
0.026:440
0.026:430
0.026:428
0.027:426
0.027:432
0.027:440
0.027:441
0.027:440
0.027:445
0.027:457
0.027:463
0.027:466
0.027:453
0.027:465
0.027:484
0.027:500
0.027:504
0.027:511
0.027:515
0.027:509
0.027:509
0.027:501
0.027:493
0.027:477
0.027:471
0.028:476
0.028:484
0.028:527
0.028:565
0.028:572
0.028:566
0.028:566
0.028:564
0.028:555
0.028:548
0.028:550
0.028:569
0.028:578
0.028:576
0.028:566
0.028:561
0.028:560
0.028:559
0.028:571
0.028:567
0.028:559
0.029:559
0.029:566
0.029:575
0.029:583
0.029:596
0.029:613
0.029:618
0.030:607
0.030:587
0.030:561
0.030:543
0.030:554
0.030:589
0.030:603
0.030:612
0.030:611
0.030:597
0.031:593
0.031:586
0.031:584
0.031:582
0.031:583
0.031:586
0.031:580
0.031:577
0.031:575
0.031:596
0.031:591
0.032:597
0.032:606
0.032:604
0.032:595
0.032:587
0.032:578
0.032:573
0.032:571
0.032:564
0.032:566
0.032:565
0.032:565
0.032:561
0.032:563
0.032:562
0.032:566
0.032:580
0.032:580
0.032:578
0.032:569
0.032:561
0.033:575
0.033:593
0.033:608
0.033:609
0.033:594
0.033:581
0.033:581
0.033:586
0.033:571
0.033:558
0.033:553
0.033:552
0.033:553
0.033:556
0.033:549
0.033:556
0.033:562
0.033:556
0.033:566
0.033:570
0.033:565
0.033:561
0.034:565
0.034:561
0.034:559
0.034:563
0.034:560
0.034:551
0.034:553
0.034:551
0.034:555
0.034:555
0.034:541
0.034:532
0.034:533
0.034:539
0.034:553
0.034:561
0.034:565
0.034:565
0.034:561
0.034:546
0.034:542
0.035:549
0.035:538
0.035:529
0.035:528
0.035:536
0.035:538
0.035:543
0.035:553
0.035:555
0.035:538
0.035:524
0.035:523
0.035:530
0.035:530
0.035:539
0.035:539
0.035:550
0.035:545
0.035:544
0.035:537
0.035:515
0.035:502
0.036:505
0.036:513
0.036:515
0.036:507
0.036:492
0.036:510
0.036:521
0.036:518
0.036:515
0.036:516
0.036:513
0.036:514
0.036:511
0.036:513
0.036:531
0.036:538
0.036:538
0.036:524
0.036:509
0.036:502
0.036:494
0.036:489
0.037:490
0.037:491
0.037:485
0.037:489
0.037:493
0.038:496
0.038:491
0.038:488
0.038:487
0.038:488
0.038:482
0.038:494
0.038:524
0.039:550
0.039:553
0.039:536
0.039:517
0.039:505
0.039:503
0.039:521
0.039:537
0.039:528
0.039:501
0.039:478
0.039:486
0.040:489
0.040:487
0.040:489
0.040:482
0.040:482
0.040:505
0.040:517
0.040:518
0.040:522
0.040:515
0.040:507
0.040:495
0.040:497
0.041:508
0.041:499
0.041:483
0.041:493
0.041:497
0.041:490
0.041:499
0.041:505
0.041:507
0.041:499
0.041:497
0.041:491
0.041:489
0.041:490
0.041:493
0.041:505
0.041:492
0.041:495
0.041:494
0.041:495
0.041:511
0.042:522
0.042:516
0.042:508
0.042:500
0.042:490
0.042:484
0.042:483
0.042:484
0.042:486
0.042:487
0.042:482
0.042:483
0.042:499
0.042:508
0.042:514
0.042:516
0.042:514
0.042:502
0.042:522
0.042:543
0.042:542
0.042:519
0.043:498
0.043:486
0.043:482
0.043:495
0.043:502
0.043:498
0.043:498
0.043:503
0.043:503
0.043:506
0.043:505
0.043:501
0.043:498
0.043:510
0.043:509
0.043:504
0.043:503
0.043:510
0.043:516
0.043:512
0.043:505
0.043:505
0.044:513
0.044:502
0.044:488
0.044:481
0.044:481
0.044:478
0.044:477
0.044:481
0.044:488
0.044:488
0.044:479
0.044:506
0.044:527
0.044:516
0.044:518
0.044:516
0.044:512
0.044:506
0.044:501
0.044:494
0.044:487
0.044:484
0.045:477
0.045:485
0.045:490
0.045:494
0.045:500
0.045:502
0.045:494
0.045:481
0.045:485
0.045:496
0.045:496
0.046:505
0.046:509
0.046:515
0.046:513
0.046:505
0.046:501
0.046:502
0.046:502
0.046:494
0.046:485
0.046:483
0.046:487
0.046:483
0.046:483
0.046:483
0.047:486
0.047:495
0.047:495
0.047:485
0.047:482
0.047:473
0.047:453
0.047:435
0.047:442
0.047:441
0.047:457
0.047:466
0.047:458
0.047:453
0.047:418
0.048:388
0.048:384
0.048:426
0.048:464
0.048:470
0.048:457
0.048:441
0.048:444
0.048:450
0.048:467
0.048:481
0.048:477
0.048:459
0.048:455
0.048:471
0.049:479
0.049:479
0.049:474
0.049:461
0.049:440
0.049:434
0.049:435
0.049:446
0.049:448
0.049:448
0.049:452
0.049:464
0.049:482
0.049:495
0.049:514
0.050:528
0.050:537
0.050:537
0.050:538
0.050:528
0.050:512
0.050:508
0.050:509
0.050:518
0.050:518
0.050:510
0.050:499
0.050:500
0.050:500
0.051:502
0.051:508
0.051:512
0.051:517
0.051:525
0.051:528
0.051:528
0.051:513
0.051:528
0.051:527
0.051:520
0.051:517
0.051:513
0.051:498
0.051:489
0.052:496
0.052:495
0.052:505
0.052:510
0.052:519
0.052:522
0.052:509
0.052:496
0.052:496
0.052:488
0.052:491
0.052:506
0.052:502
0.052:497
0.052:500
0.053:517
0.053:544
0.053:555
0.053:537
0.053:519
0.053:517
0.053:517
0.053:521
0.053:525
0.053:520
0.053:511
0.053:509
0.053:494
0.053:484
0.054:483
0.054:508
0.054:544
0.055:561
0.055:559
0.055:549
0.055:541
0.055:516
0.055:515
0.055:521
0.055:526
0.055:530
0.055:529
0.055:519
0.056:504
0.056:504
0.056:499
0.056:496
0.056:507
0.056:516
0.056:520
0.056:522
0.056:525
0.056:531
0.057:525
0.057:520
0.057:518
0.057:518
0.057:524
0.057:523
0.057:527
0.057:533
0.057:511
0.057:493
0.057:481
0.057:476
0.057:466
0.057:471
0.057:512
0.058:545
0.058:553
0.058:554
0.058:543
0.058:526
0.058:504
0.058:525
0.058:547
0.058:547
0.058:547
0.058:516
0.058:483
0.058:463
0.058:440
0.058:408
0.059:390
0.059:368
0.059:347
0.059:343
0.059:338
0.059:314
0.059:269
0.059:200
0.059:157
0.059:125
0.059:66
0.059:17
0.059:17
0.059:17
0.059:18
0.060:18
0.060:18
0.060:18
0.060:19
0.060:19
0.060:19
0.060:19
0.060:19
0.060:19
0.060:19
0.060:20
0.060:20
0.060:19
0.061:18
0.061:18
0.061:17
0.061:17
0.061:78
0.061:186
0.061:285
0.061:401
0.061:524
0.061:596
0.061:669
0.062:723
0.062:731
0.062:736
0.062:727
0.062:692
0.062:668
0.062:643
0.062:625
0.062:629
0.062:630
0.062:624
0.063:614
0.063:609
0.063:614
0.063:624
0.063:630
0.063:637
0.063:634
0.063:647
0.063:629
0.064:599
0.064:560
0.064:538
0.064:549
0.064:575
0.064:589
0.064:601
0.064:600
0.064:593
0.064:591
0.065:597
0.065:607
0.065:605
0.065:604
0.065:604
0.065:604
0.065:609
0.065:618
0.065:616
0.066:610
0.066:613
0.066:609
0.066:609
0.066:606
0.066:608
0.066:605
0.066:597
0.066:600
0.066:592
0.066:585
0.067:584
0.067:587
0.067:599
0.067:608
0.067:595
0.067:581
0.067:586
0.067:580
0.067:554
0.067:526
0.067:536
0.068:584
0.068:591
0.068:585
0.068:571
0.068:575
0.068:586
0.068:585
0.068:576
0.068:566
0.068:559
0.068:556
0.069:558
0.069:566
0.069:565
0.069:556
0.069:561
0.069:575
0.069:586
0.069:581
0.069:569
0.069:541
0.069:482
0.069:500
0.069:523
0.070:513
0.070:495
0.070:548
0.070:581
0.070:586
0.070:576
0.070:558
0.070:539
0.070:518
0.070:523
0.070:528
0.071:526
0.071:518
0.071:497
0.071:481
0.072:492
0.072:501
0.072:501
0.072:504
0.072:514
0.073:527
0.073:523
0.073:518
0.073:522
0.073:511
0.073:510
0.073:513
0.073:507
0.073:504
0.073:503
0.074:506
0.074:498
0.074:496
0.074:517
0.074:515
0.074:514
0.074:510
0.074:498
0.074:487
0.074:494
0.074:497
0.074:505
0.074:511
0.074:499
0.075:469
0.075:443
0.075:461
0.075:486
0.075:493
0.075:488
0.075:489
0.075:490
0.075:487
0.075:472
0.075:468
0.075:456
0.075:462
0.075:478
0.075:485
0.076:499
0.076:500
0.076:474
0.076:449
0.076:443
0.076:451
0.076:457
0.076:458
0.076:446
0.076:435
0.076:437
0.076:441
0.076:437
0.076:440
0.076:446
0.076:450
0.076:446
0.076:435
0.077:435
0.077:437
0.077:446
0.077:444
0.077:443
0.077:445
0.077:431
0.077:414
0.077:419
0.077:436
0.077:438
0.077:433
0.077:427
0.077:423
0.077:418
0.077:412
0.077:411
0.077:410
0.077:422
0.077:448
0.078:485
0.078:479
0.078:454
0.078:375
0.078:316
0.078:329
0.078:371
0.078:404
0.078:404
0.078:421
0.078:428
0.078:424
0.078:421
0.078:418
0.078:421
0.078:418
0.078:416
0.078:413
0.078:404
0.078:418
0.078:430
0.078:425
0.079:424
0.079:420
0.079:427
0.079:449
0.079:474
0.079:483
0.079:467
0.079:441
0.079:419
0.079:415
0.079:435
0.079:451
0.079:452
0.079:452
0.079:463
0.079:480
0.079:489
0.079:486
0.079:486
0.079:490
0.079:509
0.079:516
0.080:504
0.080:506
0.080:508
0.080:505
0.080:503
0.080:526
0.080:561
0.080:559
0.080:563
0.080:573
0.080:563
0.080:567
0.080:573
0.080:528
0.080:510
0.080:527
0.080:538
0.080:558
0.080:566
0.080:554
0.080:549
0.081:558
0.081:560
0.081:568
0.081:573
0.081:592
0.081:610
0.081:619
0.081:612
0.081:605
0.081:574
0.081:557
0.081:561
0.081:561
0.081:552
0.081:553
0.081:555
0.081:573
0.081:593
0.081:591
0.081:584
0.081:587
0.081:595
0.082:591
0.082:587
0.082:586
0.082:583
0.082:577
0.082:582
0.082:591
0.082:617
0.082:640
0.082:663
0.082:674
0.082:636
0.082:590
0.082:590
0.082:547
0.082:531
0.082:547
0.082:551
0.082:573
0.082:584
0.082:568
0.082:558
0.083:560
0.083:570
0.083:569
0.083:566
0.083:563
0.083:565
0.083:569
0.083:564
0.083:563
0.083:561
0.083:566
0.083:577
0.083:585
0.083:573
0.083:561
0.083:557
0.083:586
0.083:592
0.083:586
0.083:572
0.083:558
0.083:559
0.084:541
0.084:527
0.084:537
0.084:542
0.084:558
0.084:560
0.084:550
0.084:547
0.084:564
0.084:573
0.084:567
0.084:557
0.084:548
0.084:543
0.084:549
0.084:552
0.084:559
0.084:554
0.084:555
0.084:560
0.084:537
0.084:501
0.085:513
0.085:528
0.085:529
0.085:532
0.085:536
0.085:531
0.085:522
0.085:522
0.085:517
0.085:505
0.085:497
0.085:510
0.085:517
0.085:522
0.085:524
0.085:523
0.085:528
0.085:539
0.085:532
0.085:519
0.085:516
0.086:520
0.086:530
0.086:535
0.086:530
0.086:524
0.086:515
0.086:508
0.086:499
0.086:497
0.086:500
0.086:500
0.086:501
0.086:520
0.086:531
0.086:536
0.086:534
0.086:526
0.086:521
0.086:515
0.086:504
0.086:508
0.086:515
0.087:516
0.087:534
0.087:530
0.087:523
0.087:541
0.087:530
0.087:519
0.087:519
0.087:528
0.088:538
0.088:534
0.088:530
0.088:528
0.088:524
0.088:528
0.088:526
0.088:527
0.088:529
0.088:529
0.088:526
0.089:524
0.089:519
0.089:517
0.089:519
0.089:519
0.089:517
0.089:506
0.089:493
0.089:493
0.089:502
0.089:518
0.089:525
0.089:524
0.090:520
0.090:512
0.090:512
0.090:513
0.090:502
0.090:493
0.090:491
0.090:483
0.090:472
0.090:466
0.091:461
0.091:457
0.091:454
0.091:451
0.091:462
0.091:465
0.091:468
0.091:464
0.091:485
0.091:505
0.091:511
0.091:502
0.091:498
0.091:516
0.091:520
0.092:513
0.092:514
0.092:508
0.092:507
0.092:506
0.092:506
0.092:504
0.092:507
0.092:507
0.092:506
0.092:498
0.092:497
0.092:510
0.092:519
0.092:514
0.093:505
0.093:499
0.093:499
0.093:503
0.093:505
0.093:503
0.093:511
0.093:506
0.093:506
0.093:523
0.093:524
0.093:524
0.093:527
0.093:525
0.093:524
0.094:532
0.094:522
0.094:509
0.094:505
0.094:504
0.094:505
0.094:516
0.094:521
0.094:522
0.094:529
0.094:518
0.094:500
0.094:488
0.094:500
0.094:509
0.095:512
0.095:508
0.095:494
0.095:472
0.095:463
0.095:487
0.095:494
0.095:487
0.095:484
0.095:505
0.095:526
0.095:537
0.095:529
0.095:513
0.095:510
0.096:498
0.096:489
0.096:501
0.096:500
0.096:505
0.096:511
0.096:502
0.096:508
0.096:525
0.096:530
0.096:518
0.096:500
0.096:482
0.096:486
0.096:489
0.097:490
0.097:495
0.097:493
0.097:479
0.097:470
0.097:458
0.097:471
0.097:492
0.097:508
0.097:506
0.097:484
0.097:484
0.097:459
0.097:453
0.097:451
0.098:447
0.098:450
0.098:444
0.098:439
0.098:440
0.098:439
0.098:427
0.098:439
0.098:455
0.098:466
0.098:468
0.098:458
0.098:452
0.098:456
0.098:460
0.099:464
0.099:463
0.099:462
0.099:469
0.099:481
0.099:480
0.099:467
0.099:473
0.099:476
0.099:459
0.099:453
0.099:452
0.099:475
0.099:487
0.099:504
0.100:522
0.100:519
0.100:511
0.100:509
0.100:513
0.100:513
0.100:503
0.100:506
0.100:513
0.100:519
0.100:531
0.100:536
0.100:542
0.100:547
0.100:540
0.100:527
0.100:510
0.101:495
0.101:509
0.101:523
0.101:541
0.101:551
0.101:549
0.101:543
0.101:530
0.101:511
0.101:511
0.101:491
0.101:480
0.101:501
0.101:525
0.101:550
0.101:559
0.102:555
0.102:540
0.102:525
0.102:528
0.102:538
0.102:539
0.102:529
0.102:502
0.102:463
0.102:442
0.102:445
0.102:501
0.102:545
0.102:551
0.102:541
0.102:533
0.102:523
0.102:522
0.102:538
0.103:564
0.103:573
0.103:553
0.103:528
0.103:519
0.103:528
0.103:532
0.103:539
0.103:547
0.103:547
0.103:541
0.103:534
0.103:527
0.103:520
0.103:516
0.103:519
0.103:520
0.103:513
0.103:499
0.103:506
0.103:524
0.104:529
0.104:525
0.104:517
0.105:526
0.105:534
0.105:535
0.105:531
0.105:524
0.105:524
0.105:526
0.105:522
0.105:519
0.105:515
0.106:515
0.106:514
0.106:520
0.106:508
0.106:495
0.106:515
0.106:532
0.106:536
0.106:504
0.106:482
0.106:507
0.107:512
0.107:537
0.107:560
0.107:565
0.107:561
0.107:558
0.107:548
0.107:550
0.107:589
0.108:611
0.108:591
0.108:576
0.108:574
0.108:560
0.108:537
0.108:503
0.108:463
0.108:439
0.108:402
0.108:402
0.108:409
0.108:401
0.108:395
0.108:375
0.109:311
0.109:224
0.109:146
0.109:100
0.109:37
0.109:17
0.109:17
0.109:17
0.109:17
0.109:17
0.109:18
0.109:18
0.109:19
0.109:19
0.109:19
0.109:19
0.109:19
0.110:20
0.110:20
0.110:20
0.110:19
0.110:19
0.110:18
0.110:18
0.110:17
0.110:17
0.110:30
0.110:150
0.110:245
0.110:343
0.110:487
0.110:651
0.111:752
0.111:774
0.111:801
0.111:787
0.111:747
0.111:698
0.111:659
0.111:648
0.111:670
0.111:682
0.111:674
0.111:660
0.111:646
0.112:638
0.112:636
0.112:630
0.112:625
0.112:615
0.112:611
0.112:612
0.112:606
0.112:606
0.112:605
0.112:599
0.112:591
0.112:595
0.113:611
0.113:622
0.113:620
0.113:615
0.113:617
0.113:639
0.113:647
0.113:651
0.113:646
0.113:620
0.113:599
0.113:582
0.113:577
0.114:588
0.114:581
0.114:604
0.114:612
0.114:582
0.114:564
0.114:589
0.114:621
0.114:656
0.114:698
0.114:727
0.115:731
0.115:683
0.115:605
0.115:605
0.115:556
0.115:535
0.115:554
0.115:588
0.115:628
0.115:649
0.115:661
0.115:652
0.116:614
0.116:616
0.116:607
0.116:589
0.116:615
0.116:606
0.116:603
0.116:603
0.116:592
0.116:596
0.116:607
0.117:608
0.117:601
0.117:586
0.117:559
0.117:525
0.117:550
0.117:583
0.117:611
0.117:629
0.117:625
0.117:618
0.118:615
0.118:605
0.118:586
0.118:580
0.118:577
0.118:573
0.118:565
0.118:552
0.118:549
0.118:553
0.118:541
0.118:540
0.119:552
0.119:549
0.119:530
0.119:519
0.119:520
0.119:542
0.119:568
0.119:573
0.119:569
0.119:565
0.119:548
0.120:537
0.120:530
0.120:524
0.120:511
0.120:515
0.120:518
0.120:518
0.120:513
0.120:512
0.121:514
0.121:502
0.121:466
0.121:477
0.121:503
0.121:523
0.122:516
0.122:517
0.122:522
0.122:507
0.122:504
0.122:497
0.123:504
0.123:510
0.123:495
0.123:448
0.123:421
0.123:479
0.124:507
0.124:497
0.124:494
0.124:497
0.124:493
0.124:488
0.124:482
0.125:476
0.125:478
0.125:475
0.125:473
0.125:472
0.125:477
0.125:482
0.125:474
0.125:466
0.125:463
0.125:459
0.126:450
0.126:441
0.126:426
0.126:432
0.126:446
0.126:455
0.126:457
0.126:450
0.126:435
0.126:436
0.126:447
0.126:454
0.127:456
0.127:452
0.127:452
0.127:452
0.127:464
0.127:458
0.127:433
0.127:422
0.127:416
0.127:416
0.127:401
0.128:408
0.128:435
0.128:450
0.128:453
0.128:463
0.128:468
0.128:451
0.128:437
0.128:437
0.128:437
0.128:431
0.128:426
0.128:409
0.128:413
0.129:422
0.129:423
0.129:412
0.129:406
0.129:390
0.129:400
0.129:418
0.129:424
0.129:436
0.129:455
0.129:450
0.129:451
0.129:452
0.129:443
0.129:409
0.130:387
0.130:399
0.130:432
0.130:455
0.130:454
0.130:458
0.130:464
0.130:461
0.130:462
0.130:447
0.130:451
0.130:468
0.130:493
0.130:516
0.130:522
0.131:486
0.131:434
0.131:437
0.131:477
0.131:503
0.131:509
0.131:501
0.131:507
0.131:497
0.131:475
0.131:482
0.131:536
0.131:580
0.131:598
0.131:598
0.131:593
0.131:585
0.131:568
0.132:563
0.132:552
0.132:542
0.132:535
0.132:541
0.132:536
0.132:553
0.132:584
0.132:614
0.132:631
0.132:649
0.132:641
0.132:625
0.132:604
0.132:559
0.132:578
0.132:596
0.132:592
0.132:590
0.132:601
0.132:618
0.132:619
0.133:612
0.133:623
0.133:629
0.133:622
0.133:613
0.133:597
0.133:584
0.133:581
0.133:588
0.133:593
0.133:605
0.133:626
0.133:645
0.133:658
0.133:667
0.133:644
0.133:602
0.133:596
0.133:611
0.133:626
0.133:636
0.134:651
0.134:642
0.134:616
0.134:602
0.134:607
0.134:597
0.134:583
0.134:552
0.134:548
0.134:562
0.134:588
0.134:631
0.134:639
0.134:639
0.134:639
0.134:622
0.134:576
0.134:552
0.134:550
0.134:554
0.134:560
0.135:558
0.135:563
0.135:567
0.135:588
0.135:611
0.135:624
0.135:630
0.135:640
0.135:636
0.135:597
0.135:608
0.135:637
0.135:597
0.135:554
0.135:574
0.135:575
0.135:565
0.135:576
0.135:596
0.135:604
0.135:616
0.135:656
0.136:672
0.136:662
0.136:605
0.136:539
0.136:550
0.136:598
0.136:604
0.136:588
0.136:567
0.136:543
0.136:520
0.136:521
0.136:535
0.136:542
0.136:556
0.136:549
0.136:543
0.136:544
0.136:518
0.136:513
0.136:546
0.136:560
0.137:558
0.137:564
0.137:568
0.137:566
0.137:555
0.137:546
0.137:553
0.137:558
0.137:558
0.137:551
0.137:544
0.138:545
0.138:536
0.138:541
0.138:540
0.138:532
0.138:532
0.139:536
0.139:526
0.139:521
0.139:528
0.139:535
0.139:537
0.139:529
0.139:536
0.139:584
0.139:640
0.140:682
0.140:717
0.140:687
0.140:623
0.140:546
0.140:482
0.140:411
0.140:458
0.140:515
0.140:490
0.141:476
0.141:476
0.141:490
0.141:487
0.141:487
0.141:489
0.141:491
0.141:480
0.141:484
0.141:516
0.141:550
0.141:576
0.141:573
0.141:556
0.142:544
0.142:538
0.142:535
0.142:523
0.142:537
0.142:589
0.142:624
0.142:599
0.142:544
0.142:502
0.142:474
0.142:464
0.142:499
0.142:515
0.143:499
0.143:508
0.143:507
0.143:507
0.143:519
0.143:527
0.143:555
0.143:544
0.143:526
0.143:509
0.143:490
0.143:488
0.143:489
0.143:496
0.143:498
0.143:516
0.144:539
0.144:544
0.144:540
0.144:537
0.144:531
0.144:541
0.144:544
0.144:533
0.144:532
0.144:506
0.144:489
0.144:505
0.144:509
0.144:506
0.144:505
0.145:511
0.145:526
0.145:533
0.145:531
0.145:510
0.145:508
0.145:534
0.145:497
0.145:461
0.145:473
0.145:517
0.145:519
0.145:508
0.145:485
0.145:476
0.146:526
0.146:559
0.146:554
0.146:537
0.146:572
0.146:608
0.146:604
0.146:578
0.146:527
0.146:493
0.146:513
0.146:515
0.146:486
0.146:485
0.147:477
0.147:450
0.147:463
0.147:463
0.147:486
0.147:500
0.147:499
0.147:508
0.147:507
0.147:503
0.147:503
0.147:468
0.147:471
0.147:508
0.147:508
0.147:510
0.148:510
0.148:503
0.148:501
0.148:520
0.148:551
0.148:569
0.148:561
0.148:558
0.148:521
0.148:488
0.148:504
0.148:498
0.148:482
0.148:464
0.148:448
0.148:467
0.149:495
0.149:476
0.149:464
0.149:447
0.149:440
0.149:449
0.149:461
0.149:482
0.149:487
0.149:474
0.149:431
0.149:407
0.149:432
0.149:474
0.149:490
0.149:523
0.150:497
0.150:483
0.150:526
0.150:569
0.150:537
0.150:491
0.150:436
0.150:364
0.150:418
0.150:454
0.150:438
0.150:449
0.150:454
0.150:448
0.150:476
0.150:476
0.150:510
0.151:507
0.151:479
0.151:469
0.151:472
0.151:493
0.151:498
0.151:497
0.151:503
0.151:514
0.151:523
0.151:542
0.151:572
0.151:593
0.151:594
0.151:578
0.151:575
0.151:520
0.151:494
0.151:511
0.151:531
0.151:517
0.152:506
0.152:512
0.152:538
0.152:550
0.152:547
0.152:535
0.152:543
0.152:547
0.152:552
0.152:542
0.152:529
0.152:524
0.152:539
0.152:533
0.152:527
0.152:535
0.152:555
0.152:552
0.152:530
0.152:537
0.152:536
0.153:549
0.153:561
0.153:590
0.153:605
0.153:580
0.153:567
0.153:527
0.153:500
0.153:508
0.153:498
0.153:477
0.153:490
0.153:525
0.153:545
0.153:536
0.153:554
0.153:554
0.153:565
0.153:555
0.153:577
0.153:579
0.154:562
0.154:546
0.154:539
0.154:534
0.155:540
0.155:510
0.155:500
0.156:522
0.156:535
0.156:538
0.156:528
0.156:510
0.156:484
0.156:483
0.156:513
0.156:541
0.156:588
0.156:615
0.157:595
0.157:589
0.157:577
0.157:513
0.157:471
0.157:514
0.157:563
0.157:560
0.157:520
0.157:485
0.158:504
0.158:525
0.158:523
0.158:544
0.158:538
0.158:550
0.158:552
0.158:571
0.158:584
0.158:549
0.158:533
0.158:523
0.158:492
0.158:495
0.158:492
0.158:490
0.159:504
0.159:520
0.159:552
0.159:583
0.159:559
0.159:556
0.159:542
0.159:547
0.159:525
0.159:518
0.159:514
0.159:514
0.159:505
0.159:491
0.159:481
0.159:462
0.159:443
0.160:423
0.160:374
0.160:297
0.160:219
0.160:178
0.160:137
0.160:92
0.160:44
0.160:17
0.160:17
0.160:17
0.160:17
0.160:18
0.160:18
0.160:18
0.160:18
0.160:19
0.160:20
0.160:19
0.160:19
0.161:19
0.161:19
0.161:19
0.161:19
0.161:18
0.161:18
0.161:17
0.161:17
0.161:17
0.161:97
0.161:204
0.161:320
0.161:457
0.161:594
0.161:685
0.161:753
0.161:772
0.161:737
0.161:708
0.161:684
0.161:648
0.162:647
0.162:666
0.162:684
0.162:704
0.162:711
0.162:686
0.162:650
0.162:620
0.162:598
0.162:579
0.162:574
0.162:619
0.162:681
0.162:681
0.162:722
0.162:683
0.162:616
0.162:512
0.162:546
0.162:581
0.162:578
0.162:590
0.163:592
0.163:592
0.163:607
0.163:611
0.163:608
0.163:600
0.163:603
0.163:616
0.163:608
0.163:610
0.163:620
0.163:616
0.163:604
0.163:596
0.163:613
0.163:619
0.163:637
0.163:666
0.163:640
0.163:604
0.163:588
0.164:581
0.164:587
0.164:579
0.164:565
0.164:545
0.164:592
0.164:622
0.164:600
0.164:544
0.164:502
0.164:569
0.164:607
0.164:622
0.164:609
0.164:594
0.164:565
0.164:547
0.164:543
0.164:555
0.164:568
0.164:570
0.164:574
0.164:567
0.164:573
0.164:569
0.164:569
0.164:568
0.164:578
0.164:595
0.164:598
0.164:598
0.164:569
0.164:559
0.164:567
0.164:569
0.164:555
0.164:531
0.164:508
0.164:522
0.164:553
0.164:567
0.164:543
0.164:565
0.164:577
0.165:572
0.165:555
0.165:540
0.165:531
0.165:531
0.165:534
0.165:521
0.165:495
0.165:451
0.165:481
0.165:501
0.165:529
0.166:564
0.166:545
0.166:522
0.166:520
0.166:523
0.166:531
0.166:501
0.166:444
0.166:438
0.166:437
0.166:490
0.166:542
0.166:545
0.166:521
0.166:496
0.166:477
0.166:478
0.166:489
0.166:532
0.166:509
0.167:478
0.167:475
0.167:460
0.167:442
0.167:449
0.167:444
0.167:470
0.167:502
0.167:543
0.167:525
0.167:503
0.167:488
0.167:484
0.167:478
0.167:478
0.167:478
0.167:480
0.167:490
0.167:503
0.167:498
0.167:469
0.167:460
0.168:453
0.168:427
0.168:384
0.168:393
0.168:432
0.168:451
0.168:427
0.168:390
0.168:413
0.168:402
0.168:371
0.168:350
0.168:433
0.168:435
0.168:453
0.168:499
0.168:528
0.168:493
0.168:433
0.168:385
0.168:355
0.169:357
0.169:382
0.169:393
0.169:389
0.169:388
0.169:405
0.169:417
0.169:406
0.169:412
0.169:424
0.169:398
0.169:354
0.169:335
0.169:351
0.169:360
0.169:441
0.169:386
0.169:390
0.169:407
0.169:409
0.170:422
0.170:426
0.170:400
0.170:384
0.171:412
0.171:413
0.171:364
0.171:381
0.171:406
0.171:415
0.171:422
0.171:422
0.171:430
0.171:413
0.171:409
0.171:393
0.172:389
0.172:399
0.172:417
0.172:428
0.172:416
0.172:404
0.172:387
0.172:400
0.172:422
0.172:449
0.172:450
0.172:425
0.172:413
0.172:407
0.173:422
0.173:424
0.173:425
0.173:418
0.173:428
0.173:459
0.173:472
0.173:43
0.173:599
0.173:606
0.173:614
0.173:595
0.173:588
0.173:589
0.173:568
0.173:564
0.173:2
0.173:630
0.173:630
0.174:619
0.174:609
0.174:619
0.174:631
0.174:625
0.174:630
0.174:629
0.174:620
0.174:614
0.174:599
0.174:582
0.174:543
0.174:546
0.174:543
0.174:564
0.174:599
0.174:606
0.174:614
0.174:595
0.174:588
0.174:589
0.174:568
0.175:564
0.175:564
0.175:569
0.175:580
0.175:592
0.175:611
0.175:614
0.175:621
0.175:605
0.175:576
0.175:552
0.175:579
0.175:581
0.175:568
0.175:565
0.175:568
0.175:571
0.175:546
0.175:553
0.175:549
0.175:557
0.175:583
0.176:589
0.176:561
0.176:523
0.176:530
0.176:531
0.176:530
0.176:511
0.176:466
0.176:458
0.176:487
0.176:511
0.176:517
0.176:548
0.176:554
0.176:563
0.176:569
0.176:552
0.176:520
0.176:542
0.176:543
0.176:551
0.177:568
0.177:574
0.177:588
0.177:591
0.177:583
0.177:524
0.177:498
0.177:517
0.177:472
0.177:459
0.177:485
0.177:490
0.177:517
0.177:520
0.177:495
0.177:518
0.177:544
0.177:549
0.177:549
0.177:592
0.177:599
0.177:588
0.178:593
0.178:614
0.178:583
0.178:583
0.178:586
0.178:572
0.178:576
0.178:591
0.178:584
0.178:554
0.178:491
0.178:433
0.178:403
0.178:426
0.178:449
0.178:550
0.178:601
0.178:565
0.178:467
0.178:441
0.178:472
0.178:503
0.179:523
0.179:501
0.179:472
0.179:488
0.179:481
0.179:478
0.179:493
0.179:510
0.179:516
0.179:525
0.179:520
0.179:512
0.179:515
0.179:517
0.179:511
0.179:519
0.179:505
0.179:499
0.179:496
0.179:494
0.179:500
0.179:530
0.180:542
0.180:530
0.180:510
0.180:500
0.180:505
0.180:493
0.180:497
0.180:513
0.180:512
0.180:514
0.180:515
0.180:515
0.187:515
0.187:525
0.187:533
0.187:520
0.187:491
0.191:492
0.191:498
0.191:498
0.191:507
0.191:539
0.191:528
0.191:511
0.191:503
0.191:496
0.196:493
0.196:493
0.196:474
0.196:483
0.196:515
0.196:501
0.196:511
0.196:521
0.196:506
0.196:502
0.199:504
0.199:501
0.199:500
0.199:537
0.199:588
0.199:561
0.216:507
0.221:504
0.221:515
0.222:530
0.222:532
0.222:518
0.222:502
0.222:481
0.222:517
0.223:555
0.223:558
0.225:528
0.225:505
0.225:496
0.225:489
0.225:489
0.225:474
0.225:476
0.225:469
0.225:464
0.229:476
0.229:468
0.229:449
0.229:468
0.229:500
0.229:523
0.229:531
0.229:544
0.229:552
0.229:528
0.245:528
0.249:506
0.249:487
0.249:472
0.249:461
0.249:468
0.249:486
0.249:505
0.249:517
0.249:521
0.254:531
0.254:531
0.255:523
0.255:513
0.255:507
0.255:486
0.255:468
0.255:472
0.255:479
0.256:482
0.258:480
0.258:480
0.258:477
0.258:486
0.258:489
0.258:484
0.258:473
0.258:460
0.258:452
0.261:455
0.277:451
0.277:444
0.277:448
0.277:472
0.277:496
0.277:511
0.277:492
0.281:463
0.281:467
0.281:463
0.282:463
0.282:486
0.282:493
0.282:490
0.282:478
0.282:475
0.286:466
0.286:452
0.286:449
0.286:469
0.286:471
0.286:468
0.286:453
0.286:448
0.286:455
0.286:464
0.290:469
0.290:464
0.290:458
0.290:447
0.307:447
0.307:430
0.307:420
0.307:445
0.307:482
0.307:495
0.311:476
0.311:449
0.311:443
0.311:477
0.311:502
0.311:504
0.311:478
0.311:450
0.311:425
0.311:417
0.314:424
0.314:436
0.314:459
0.314:513
0.314:549
0.314:565
0.314:599
0.314:594
0.314:548
0.318:524
0.318:517
0.318:520
0.319:522
0.319:515
0.335:498
0.335:484
0.335:477
0.339:475
0.339:469
0.339:476
0.339:498
0.339:518
0.339:545
0.339:575
0.339:586
0.339:604
0.344:577
0.344:550
0.344:522
0.344:532
0.344:537
0.344:527
0.344:511
0.344:492
0.344:493
0.344:517
0.347:519
0.347:529
0.347:529
0.347:534
0.347:538
0.347:544
0.348:559
0.348:550
0.363:550
0.363:529
0.368:529
0.368:531
0.368:533
0.368:532
0.368:533
0.368:538
0.368:531
0.368:527
0.368:534
0.371:535
0.372:534
0.372:532
0.372:544
0.372:534
0.372:532
0.372:539
0.372:535
0.372:521
0.372:524
0.376:538
0.376:537
0.376:535
0.376:530
0.376:530
0.376:524
0.376:520
0.376:518
0.376:512
0.396:518
0.396:538
0.396:557
0.396:553
0.396:531
0.396:513
0.396:507
0.396:521
0.401:546
0.401:566
0.401:570
0.401:589
0.401:567
0.401:553
0.401:556
0.401:558
0.401:560
0.401:548
0.405:526
0.405:488
0.405:499
0.405:525
0.405:519
0.405:503
0.405:532
0.405:549
0.405:543
0.409:535
0.409:521
0.409:536
0.424:536
0.424:561
0.424:576
0.426:576
0.426:564
0.426:555
0.426:549
0.430:538
0.430:518
0.430:523
0.430:531
0.430:525
0.430:518
0.430:527
0.430:542
0.430:538
0.430:542
0.434:552
0.434:569
0.434:558
0.434:557
0.434:539
0.434:502
0.434:464
0.434:452
0.434:435
0.437:397
0.437:346
0.438:328
0.438:307
0.454:267
0.454:216
0.454:162
0.454:105
0.457:33
0.457:17
0.457:17
0.457:18
0.457:18
0.457:18
0.457:19
0.457:19
0.457:19
0.458:20
0.458:20
0.458:20
0.462:21
0.462:21
0.462:20
0.462:20
0.462:20
0.462:20
0.462:19
0.462:19
0.462:19
0.462:18
0.462:17
0.462:107
0.466:243
0.466:359
0.482:359
0.482:483
0.482:611
0.487:698
0.488:759
0.488:801
0.488:798
0.488:789
0.488:772
0.489:734
0.489:725
0.489:731
0.489:712
0.491:701
0.491:693
0.491:689
0.491:685
0.491:686
0.491:699
0.491:701
0.491:691
0.491:659
0.495:634
0.495:627
0.495:631
0.495:651
0.495:655
0.495:630
0.495:597
0.495:601
0.516:609
0.516:598
0.516:596
0.516:600
0.516:618
0.516:648
0.516:670
0.516:658
0.516:640
0.516:617
0.519:615
0.519:614
0.519:613
0.519:597
0.520:603
0.520:628
0.520:631
0.520:651
0.520:659
0.523:654
0.523:643
0.523:636
0.523:643
0.523:642
0.523:641
0.523:638
0.523:618
0.523:605
0.524:605
0.527:624
0.543:624
0.543:628
0.544:639
0.544:647
0.544:639
0.544:610
0.544:594
0.544:596
0.544:608
0.548:605
0.548:621
0.548:641
0.548:640
0.548:625
0.548:605
0.548:594
0.548:566
0.548:556
0.552:583
0.552:604
0.552:634
0.552:656
0.552:654
0.552:636
0.552:628
0.552:618
0.552:587
0.552:563
0.556:538
0.556:540
0.572:565
0.572:579
0.572:578
0.572:560
0.573:540
0.577:529
0.577:522
0.577:533
0.577:556
0.577:566
0.577:555
0.577:538
0.578:524
0.578:506
0.578:501
0.581:515
0.581:539
0.581:550
0.581:528
0.581:521
0.581:529
0.581:533
0.581:558
0.582:573
0.582:557
0.585:532
0.585:517
0.585:511
0.585:504
0.585:507
0.601:507
0.601:499
0.601:486
0.601:478
0.601:472
0.605:455
0.605:471
0.605:492
0.605:502
0.605:506
0.605:508
0.605:508
0.605:503
0.606:503
0.609:511
0.609:523
0.609:539
0.609:526
0.609:511
0.609:481
0.609:454
0.609:446
0.609:440
0.609:444
0.613:480
0.613:526
0.614:539
0.614:530
0.614:498
0.614:486
0.629:476
0.634:474
0.634:503
0.634:523
0.634:535
0.634:531
0.634:518
0.634:507
0.634:496
0.634:462
0.634:424
0.637:395
0.638:400
0.638:433
0.638:454
0.638:461
0.638:485
0.638:493
0.638:478
0.638:415
0.641:384
0.642:380
0.642:411
0.642:453
0.642:481
0.642:471
0.642:486
0.642:488
0.642:481
0.642:469
0.657:469
0.662:467
0.662:482
0.663:478
0.663:462
0.663:430
0.663:402
0.663:386
0.663:380
0.663:395
0.667:398
0.667:396
0.667:412
0.667:408
0.667:385
0.667:372
0.667:370
0.667:370
0.668:386
0.668:420
0.671:413
0.671:397
0.671:422
0.671:461
0.671:488
0.671:506
0.672:498
0.672:491
0.672:462
0.674:401
0.691:415
0.691:459
0.691:500
0.691:518
0.691:537
0.691:536
0.691:494
0.695:466
0.695:445
0.695:467
0.696:531
0.696:555
0.696:531
0.696:490
0.696:480
0.696:500
0.699:515
0.699:531
0.700:556
0.700:569
0.700:563
0.700:547
0.700:538
0.700:556
0.700:579
0.700:595
0.703:601
0.704:607
0.704:610
0.704:594
0.720:594
0.720:565
0.720:515
0.720:491
0.720:533
0.720:600
0.724:655
0.724:666
0.724:667
0.724:668
0.724:657
0.724:652
0.724:635
0.724:637
0.724:642
0.724:638
0.727:640
0.728:646
0.728:641
0.728:625
0.728:642
0.728:650
0.728:659
0.728:647
0.728:606
0.732:587
0.732:589
0.732:589
0.732:607
0.732:589
0.748:589
0.748:646
0.748:678
0.753:682
0.753:671
0.753:649
0.753:672
0.753:680
0.753:701
0.753:733
0.753:744
0.754:713
0.756:679
0.756:677
0.757:676
0.757:689
0.757:685
0.757:665
0.757:645
0.757:632
0.757:630
0.757:616
0.760:602
0.760:591
0.760:594
0.761:602
0.761:648
0.761:692
0.761:699
0.761:675
0.776:675
0.777:644
0.781:616
0.781:618
0.781:621
0.781:641
0.781:656
0.781:650
0.782:642
0.782:647
0.782:646
0.784:649
0.784:658
0.786:652
0.786:633
0.786:599
0.786:590
0.786:620
0.786:634
0.786:619
0.786:598
0.790:588
0.790:577
0.790:566
0.790:575
0.790:597
0.790:639
0.790:654
0.790:649
0.790:674
0.810:656
0.810:668
0.810:713
0.810:724
0.810:674
0.810:600
0.810:584
0.810:589
0.814:589
0.814:552
0.814:547
0.814:548
0.814:536
0.814:534
0.814:530
0.814:495
0.814:506
0.814:556
0.818:587
0.818:589
0.818:573
0.818:563
0.818:584
0.818:580
0.818:595
0.818:618
0.819:655
0.822:640
0.822:574
0.822:554
0.838:554
0.838:591
0.838:590
0.838:567
0.838:565
0.838:551
0.838:544
0.843:519
0.843:476
0.843:447
0.843:459
0.843:491
0.843:545
0.843:592
0.843:607
0.843:643
0.843:629
0.847:588
0.847:542
0.847:527
0.847:521
0.847:527
0.847:540
0.847:513
0.848:502
0.848:521
0.851:536
0.851:556
0.851:558
0.851:572
0.867:577
0.867:559
0.867:513
0.867:458
0.871:467
0.871:484
0.871:506
0.872:528
0.872:551
0.872:544
0.872:516
0.872:530
0.872:532
0.872:525
0.875:516
0.875:500
0.875:487
0.875:490
0.876:494
0.876:494
0.876:489
0.876:486
0.876:476
0.880:443
0.880:429
0.880:441
0.880:470
0.880:499
0.880:502
0.880:491
0.896:491
0.896:477
0.896:476
0.901:487
0.901:501
0.901:509
0.901:486
0.901:482
0.901:499
0.901:491
0.901:508
0.901:511
0.901:494
0.904:491
0.904:514
0.904:504
0.904:486
0.904:488
0.904:484
0.904:484
0.904:475
0.904:459
0.909:494
0.909:528
0.909:560
0.909:568
0.909:515
0.909:510
0.909:498
0.909:495
0.929:490
0.929:483
0.929:475
0.929:483
0.929:494
0.929:500
0.929:521
0.929:515
0.929:513
0.933:539
0.933:529
0.933:483
0.933:450
0.933:451
0.933:438
0.934:434
0.934:476
0.934:530
0.934:552
0.936:538
0.937:537
0.937:540
0.937:526
0.937:511
0.937:512
0.937:476
0.937:451
0.939:448
0.939:458
0.941:464
0.957:464
0.957:459
0.957:455
0.957:454
0.957:459
0.957:446
0.958:459
0.958:454
0.958:475
0.961:498
0.961:494
0.961:466
0.961:435
0.961:440
0.962:443
0.962:457
0.962:464
0.962:479
0.966:466
0.966:451
0.966:432
0.966:409
0.966:408
0.966:461
0.966:504
0.966:489
0.967:491
0.967:488
0.970:518
0.971:511
0.986:476
0.986:450
0.986:438
0.986:434
0.986:444
0.990:468
0.990:497
0.990:501
0.990:481
0.990:491
0.990:493
0.990:483
0.990:457
0.991:445
0.991:429
0.995:425
0.995:438
0.995:451
0.995:489
0.995:512
0.995:504
0.995:520
0.995:531
0.995:533
0.999:499
0.999:475
0.999:484
0.999:497
0.999:489
0.999:462
1.014:462
1.014:446
1.014:453
1.014:481
1.014:533
1.019:565
1.019:556
1.019:502
1.019:460
1.019:455
1.019:483
1.019:502
1.019:534
1.019:544
1.023:543
1.023:534
1.023:535
1.023:534
1.023:507
1.023:458
1.023:417
1.023:422
1.023:457
1.023:462
1.026:464
1.026:476
1.026:467
1.026:475
1.027:499
1.027:513
1.042:523
1.048:532
1.048:499
1.048:476
1.048:476
1.048:495
1.048:528
1.048:546
1.048:540
1.048:551
1.048:539
1.052:526
1.052:534
1.052:527
1.052:504
1.052:483
1.052:476
1.052:494
1.052:466
1.052:435
1.055:440
1.056:469
1.056:479
1.056:483
1.056:493
1.056:505
1.056:515
1.057:525
1.057:553
1.057:555
1.076:555
1.076:540
1.076:588
1.076:622
1.076:617
1.076:603
1.077:556
1.077:519
1.077:480
1.077:437
1.081:452
1.081:479
1.081:495
1.081:480
1.081:470
1.081:455
1.081:475
1.081:501
1.081:512
1.081:519
1.084:534
1.084:546
1.084:560
1.084:552
1.084:522
1.084:489
1.084:468
1.084:449
1.085:454
1.088:456
1.104:473
1.104:517
1.104:534
1.104:534
1.104:530
1.104:518
1.104:486
1.109:451
1.109:433
1.109:447
1.109:449
1.109:468
1.109:479
1.109:501
1.109:507
1.109:484
1.113:464
1.113:467
1.113:497
1.113:523
1.113:550
1.113:546
1.113:563
1.113:591
1.113:554
1.113:495
1.117:475
1.117:471
1.117:448
1.118:454
1.133:454
1.133:466
1.133:450
1.133:418
1.133:371
1.133:318
1.137:297
1.137:293
1.138:265
1.138:210
1.138:164
1.138:112
1.138:82
1.138:46
1.138:17
1.138:17
1.142:17
1.142:17
1.142:17
1.142:17
1.142:18
1.142:18
1.142:18
1.142:19
1.142:19
1.142:18
1.142:18
1.142:18
1.146:17
1.146:17
1.162:17
1.162:21
1.162:88
1.167:151
1.167:209
1.167:300
1.167:401
1.167:515
1.167:626
1.167:673
1.168:708
1.168:720
1.168:694
1.171:678
1.171:669
1.171:643
1.171:609
1.171:583
1.171:592
1.172:619
1.172:635
1.172:660
1.175:679
1.175:679
1.175:661
1.175:630
1.175:592
1.175:585
1.175:591
1.175:595
1.190:595
1.190:599
1.195:569
1.195:557
1.195:561
1.195:542
1.195:523
1.195:525
1.195:545
1.196:568
1.196:578
1.199:567
1.199:584
1.199:588
1.199:589
1.199:594
1.199:582
1.199:567
1.199:536
1.199:545
1.199:573
1.203:569
1.203:578
1.204:633
1.204:668
1.204:620
1.204:559
1.204:528
1.204:480
1.204:452
1.223:464
1.223:480
1.223:502
1.223:521
1.223:546
1.223:549
1.223:522
1.223:540
1.227:550
1.227:534
1.227:537
1.227:555
1.227:588
1.227:607
1.227:589
1.228:565
1.228:541
1.228:540
1.231:530
1.231:512
1.231:500
1.231:502
1.231:504
1.231:514
1.231:511
1.231:521
1.232:502
1.236:467
1.236:464
1.236:484
1.252:484
1.252:516
1.252:571
1.252:606
1.252:572
1.252:519
1.252:509
1.256:495
1.257:496
1.257:497
1.257:491
1.257:499
1.257:476
1.257:481
1.257:477
1.257:480
1.257:528
1.261:533
1.261:525
1.261:521
1.261:507
1.261:512
1.261:525
1.261:504
1.261:487
1.261:481
1.265:468
1.265:488
1.265:492
1.265:491
1.280:483
1.280:493
1.280:494
1.280:480
1.285:466
1.286:442
1.286:432
1.286:451
1.286:479
1.286:512
1.287:513
1.287:489
1.287:505
1.287:516
1.289:520
1.289:505
1.289:464
1.290:491
1.290:556
1.290:555
1.290:501
1.290:461
1.290:446
1.293:441
1.293:437
1.293:429
1.293:410
1.293:374
1.293:370
1.293:369
1.309:369
1.309:378
1.309:381
1.314:397
1.314:411
1.314:397
1.314:396
1.314:407
1.314:429
1.314:454
1.314:440
1.314:436
1.314:437
1.317:428
1.317:406
1.317:403
1.317:408
1.317:412
1.317:424
1.317:449
1.317:461
1.317:440
1.322:422
1.322:413
1.322:413
1.322:408
1.322:402
1.322:375
1.322:344
1.322:325
1.343:328
1.343:353
1.343:398
1.343:404
1.343:389
1.343:374
1.343:372
1.343:382
1.343:368
1.347:340
1.347:351
1.347:345
1.348:359
1.348:381
1.348:387
1.348:382
1.348:384
1.348:380
1.348:362
1.351:348
1.351:356
1.351:388
1.351:411
1.351:416
1.352:405
1.352:409
1.352:413
1.352:397
1.352:370
1.355:383
1.371:383
1.371:417
1.371:420
1.371:423
1.371:429
1.372:416
1.372:408
1.372:392
1.372:381
1.375:397
1.375:418
1.375:411
1.375:414
1.375:402
1.375:425
1.375:440
1.375:447
1.375:431
1.379:444
1.379:469
1.379:494
1.379:502
1.379:487
1.379:471
1.379:471
1.379:478
1.379:494
1.379:503
1.382:505
1.382:518
1.399:516
1.399:514
1.400:535
1.400:544
1.400:547
1.404:547
1.404:563
1.404:527
1.404:481
1.404:486
1.404:524
1.405:586
1.405:618
1.405:632
1.405:612
1.408:586
1.408:617
1.408:634
1.408:635
1.408:623
1.408:606
1.408:583
1.408:592
1.408:609
1.412:585
1.412:560
1.412:555
1.412:577
1.412:587
1.412:580
1.428:580
1.428:555
1.428:556
1.428:586
1.433:603
1.433:609
1.433:595
1.433:592
1.433:625
1.433:660
1.433:668
1.433:649
1.433:623
1.433:595
1.436:564
1.436:551
1.437:563
1.437:582
1.437:597
1.437:624
1.437:629
1.437:624
1.437:618
1.437:608
1.440:597
1.440:586
1.440:587
1.440:580
1.440:580
1.440:567
1.456:571
1.461:575
1.461:547
1.461:567
1.461:598
1.461:590
1.461:579
1.461:596
1.461:595
1.462:571
1.462:552
1.466:576
1.466:589
1.466:589
1.466:576
1.466:553
1.466:536
1.466:535
1.466:549
1.466:553
1.469:548
1.469:544
1.470:562
1.470:590
1.470:582
1.470:570
1.471:554
1.471:534
1.471:510
1.471:499
1.490:499
1.490:521
1.490:538
1.490:546
1.491:579
1.491:623
1.491:635
1.491:588
1.491:539
1.491:522
1.494:547
1.494:587
1.494:611
1.494:635
1.494:640
1.494:597
1.494:579
1.494:566
1.494:562
1.498:547
1.498:530
1.498:527
1.498:534
1.498:571
1.498:564
1.498:546
1.498:524
1.498:513
1.498:517
1.502:534
1.518:545
1.518:558
1.518:572
1.518:568
1.518:568
1.518:576
1.518:577
1.523:554
1.523:521
1.523:525
1.523:546
1.523:561
1.524:540
1.524:525
1.524:538
1.524:533
1.526:520
1.526:527
1.527:577
1.527:607
1.527:608
1.527:572
1.527:528
1.527:491
1.527:483
1.527:493
1.531:503
1.531:482
1.531:479
1.531:486
1.547:486
1.547:516
1.547:535
1.547:563
1.547:558
1.547:536
1.551:536
1.551:516
1.551:478
1.551:470
1.551:477
1.551:473
1.551:484
1.551:496
1.551:503
1.555:517
1.555:537
1.556:537
1.556:521
1.556:505
1.556:515
1.556:524
1.556:512
1.556:517
1.556:546
1.560:561
1.560:555
1.560:546
1.560:538
1.560:546
1.574:545
1.576:525
1.576:517
1.580:511
1.580:482
1.580:495
1.580:513
1.580:523
1.580:522
1.580:517
1.580:528
1.580:527
1.584:520
1.584:481
1.584:483
1.584:444
1.584:453
1.584:462
1.584:448
1.584:422
1.584:421
1.584:483
1.588:535
1.588:549
1.588:547
1.588:530
1.588:511
1.588:510
1.588:489
1.588:468
1.604:468
1.604:466
1.608:460
1.608:476
1.608:506
1.608:517
1.608:503
1.608:452
1.608:395
1.608:383
1.608:371
1.613:365
1.613:392
1.613:439
1.613:474
1.613:469
1.613:456
1.613:443
1.613:444
1.613:470
1.613:471
1.617:484
1.617:472
1.617:469
1.617:478
1.617:497
1.617:503
1.617:487
1.617:466
1.617:477
1.637:508
1.637:521
1.637:518
1.637:470
1.637:459
1.637:445
1.637:442
1.637:463
1.642:475
1.642:466
1.642:469
1.642:488
1.642:508
1.642:574
1.642:592
1.642:551
1.642:504
1.642:496
1.645:481
1.645:473
1.645:469
1.645:457
1.645:452
1.645:447
1.645:444
1.645:445
1.645:474
1.649:513
1.649:526
1.649:543
1.666:543
1.666:537
1.666:525
1.666:497
1.666:465
1.666:464
1.666:498
1.669:490
1.670:518
1.670:516
1.670:506
1.670:487
1.670:473
1.670:464
1.670:485
1.670:473
1.670:485
1.673:519
1.673:542
1.674:558
1.674:578
1.674:571
1.674:570
1.674:547
1.674:513
1.674:508
1.678:515
1.678:518
1.678:547
1.678:560
1.694:549
1.694:543
1.694:539
1.694:542
1.699:539
1.699:534
1.699:501
1.699:487
1.699:482
1.699:486
1.699:476
1.699:502
1.699:553
1.699:555
1.703:540
1.703:507
1.703:485
1.703:455
1.703:464
1.703:511
1.703:539
1.703:552
1.703:553
1.707:552
1.707:537
1.707:530
1.707:542
1.707:500
1.708:476
1.708:488
1.722:488
1.722:482
1.722:495
1.727:516
1.727:510
1.727:515
1.728:528
1.728:561
1.728:581
1.728:599
1.728:581
1.728:546
1.728:534
1.731:525
1.731:514
1.731:503
1.732:487
1.732:488
1.732:530
1.732:565
1.732:563
1.732:552
1.736:550
1.736:535
1.736:496
1.736:503
1.736:520
1.736:522
1.736:539
1.736:552
1.756:558
1.756:544
1.756:526
1.756:537
1.756:542
1.756:520
1.757:499
1.757:491
1.757:493
1.760:495
1.760:503
1.760:510
1.760:515
1.760:519
1.761:531
1.761:535
1.761:530
1.761:541
1.761:543
1.764:521
1.764:520
1.764:531
1.764:545
1.764:550
1.764:537
1.764:510
1.764:487
1.764:476
1.768:492
1.768:504
1.784:504
1.785:502
1.785:479
1.785:436
1.785:418
1.785:396
1.785:379
1.785:337
1.785:289
1.789:264
1.789:237
1.789:192
1.789:145
1.789:138
1.789:110
1.789:79
1.789:42
1.789:17
1.789:17
1.793:17
1.793:17
1.793:17
1.793:18
1.793:18
1.793:18
1.793:18
1.793:18
1.793:17
1.793:17
1.793:17
1.813:17
1.813:17
1.813:67
1.813:128
1.813:176
1.813:240
1.817:309
1.817:360
1.817:423
1.817:511
1.817:588
1.817:647
1.817:678
1.817:675
1.817:645
1.817:623
1.821:611
1.821:625
1.821:629
1.821:628
1.821:598
1.821:589
1.821:574
1.821:573
1.821:572
1.826:561
1.826:560
1.826:553
1.826:537
1.826:510
1.842:510
1.842:506
1.842:514
1.842:524
1.846:530
1.846:539
1.846:556
1.846:564
1.846:569
1.846:582
1.846:571
1.846:540
1.846:523
1.846:524
1.850:522
1.850:539
1.850:557
1.850:556
1.850:570
1.850:568
1.850:559
1.850:579
1.850:582
1.854:582
1.854:574
1.854:555
1.854:544
1.854:531
1.854:525
1.854:527
1.870:556
1.875:558
1.875:548
1.875:542
1.875:550
1.875:557
1.875:543
1.875:547
1.875:569
1.876:567
1.876:555
1.879:542
1.879:522
1.879:510
1.879:510
1.879:520
1.879:500
1.879:492
1.879:527
1.879:552
1.883:547
1.883:537
1.883:527
1.883:515
1.883:496
1.883:507
1.883:509
1.883:503
1.883:500
1.883:502
1.903:502
1.903:513
1.903:514
1.903:504
1.903:501
1.904:512
1.904:523
1.904:536
1.904:534
1.904:521
1.907:517
1.908:483
1.908:450
1.908:456
1.908:469
1.908:479
1.908:482
1.908:477
1.908:471
1.912:460
1.912:464
1.912:471
1.912:465
1.912:466
1.912:477
1.912:477
1.912:488
1.913:491
1.913:483
1.916:478
1.932:477
1.932:496
1.932:507
1.932:497
1.932:466
1.932:464
1.932:478
1.936:488
1.936:453
1.936:400
1.936:398
1.936:397
1.936:415
1.936:437
1.936:446
1.937:442
1.940:408
1.940:397
1.940:406
1.940:445
1.940:483
1.940:532
1.940:530
1.940:486
1.940:452
1.940:430
1.944:434
1.944:424
1.944:424
1.944:443
1.960:443
1.960:455
1.960:444
1.960:431
1.960:398
1.960:396
1.965:429
1.965:417
1.965:403
1.965:414
1.965:438
1.965:454
1.965:457
1.965:442
1.965:425
1.969:403
1.969:372
1.970:356
1.970:365
1.970:370
1.970:383
1.971:412
1.971:432
1.971:442
1.971:442
1.973:400
1.973:381
1.973:394
1.973:393
1.973:363
1.989:349
1.989:348
1.989:368
1.993:407
1.993:417
1.993:393
1.993:402
1.993:382
1.993:351
1.993:342
1.993:342
1.994:347
1.997:361
1.997:373
1.997:360
1.998:350
1.998:375
1.998:386
1.998:394
1.998:374
1.998:374
1.998:376
2.001:351
2.001:335
2.001:364
2.001:384
2.001:390
2.002:430
2.002:416
2.002:373
2.017:373
2.017:341
2.021:315
2.021:325
2.021:340
2.022:344
2.022:365
2.022:389
2.022:398
2.022:390
2.022:398
2.026:398
2.026:396
2.026:408
2.026:421
2.027:438
2.027:437
2.027:431
2.027:451
2.028:453
2.028:466
2.030:452
2.030:447
2.030:446
2.030:463
2.030:455
2.030:423
2.030:406
2.030:462
2.030:510
2.051:516
2.051:507
2.051:495
2.051:497
2.051:480
2.051:464
2.051:467
2.051:491
2.055:507
2.055:490
2.055:495
2.055:481
2.056:475
2.056:513
2.056:571
2.056:597
2.056:596
2.056:571
2.058:547
2.058:551
2.058:571
2.058:573
2.058:560
2.058:575
2.059:589
2.059:598
2.059:598
2.063:581
2.063:549
2.063:517
2.079:517
2.079:542
2.079:590
2.079:608
2.079:570
2.079:560
2.079:553
2.084:573
2.084:571
2.084:574
2.084:594
2.084:604
2.084:586
2.084:575
2.084:565
2.084:531
2.084:509
2.088:521
2.088:572
2.088:603
2.088:561
2.088:515
2.088:501
2.088:524
2.088:565
2.089:576
2.092:561
2.092:533
2.092:528
2.092:567
2.108:561
2.108:558
2.108:572
2.108:568
2.112:583
2.112:588
2.112:576
2.112:566
2.112:541
2.112:513
2.112:490
2.112:473
2.112:488
2.117:513
2.117:565
2.117:598
2.117:579
2.117:548
2.117:536
2.117:503
2.117:491
2.117:516
2.117:526
2.120:500
2.120:491
2.120:517
2.120:547
2.120:567
2.120:586
2.120:577
2.136:577
2.136:554
2.136:536
2.141:528
2.141:524
2.141:523
2.141:520
2.141:520
2.141:520
2.141:544
2.141:576
2.141:566
2.141:540
2.144:543
2.144:530
2.144:505
2.145:517
2.145:533
2.145:519
2.145:509
2.145:496
2.145:496
2.149:494
2.149:485
2.149:486
2.149:499
2.149:510
2.149:529
2.149:545
2.149:511
2.170:479
2.170:458
2.170:437
2.170:432
2.170:459
2.170:507
2.171:529
2.171:540
2.171:549
2.174:513
2.174:467
2.174:458
2.174:499
2.174:515
2.174:508
2.174:494
2.174:494
2.174:499
2.175:496
2.178:502
2.178:505
2.178:498
2.178:508
2.178:515
2.178:527
2.178:560
2.178:553
2.179:505
2.182:477
2.182:433
2.198:433
2.198:442
2.198:432
2.198:435
2.198:447
2.198:447
2.198:451
2.198:472
2.202:473
2.202:461
2.202:464
2.203:471
2.203:494
2.203:478
2.203:482
2.203:505
2.203:514
2.203:509
2.207:530
2.207:518
2.207:487
2.207:481
2.208:496
2.208:481
2.208:483
2.208:487
2.208:502
2.208:484
2.210:447
2.210:432
2.226:443
2.226:475
2.226:515
2.227:534
2.227:525
2.231:514
2.231:505
2.231:481
2.231:444
2.231:452
2.231:504
2.232:502
2.232:478
2.232:467
2.232:474
2.236:478
2.236:453
2.237:433
2.237:448
2.237:478
2.237:463
2.237:423
2.237:410
2.237:424
2.239:436
2.239:445
2.239:438
2.239:435
2.239:438
2.239:442
2.255:442
2.255:443
2.255:447
2.255:485
2.260:524
2.260:516
2.260:485
2.260:469
2.260:474
2.260:461
2.260:446
2.260:444
2.260:439
2.260:458
2.264:465
2.264:481
2.264:496
2.264:477
2.264:444
2.264:429
2.264:469
2.264:484
2.264:474
2.267:458
2.268:428
2.268:413
2.268:404
2.268:420
2.268:428
2.268:430
2.283:422
2.289:417
2.289:428
2.289:442
2.289:441
2.289:447
2.289:452
2.289:450
2.289:452
2.289:461
2.289:454
2.292:448
2.292:436
2.292:421
2.292:417
2.292:411
2.292:404
2.292:401
2.292:416
2.292:426
2.297:425
2.297:431
2.297:430
2.297:432
2.297:432
2.297:427
2.297:426
2.297:443
2.297:451
2.297:442
2.317:442
2.317:446
2.317:447
2.317:433
2.317:414
2.317:402
2.317:395
2.317:403
2.317:413
2.317:419
2.321:427
2.321:420
2.321:432
2.321:452
2.321:469
2.321:483
2.321:480
2.321:479
2.321:469
2.325:445
2.325:439
2.326:441
2.326:436
2.326:435
2.326:441
2.326:447
2.326:460
2.326:470
2.326:482
2.329:475
2.344:464
2.344:461
2.346:459
2.346:486
2.346:512
2.346:524
2.346:523
2.349:514
2.349:494
2.349:479
2.349:462
2.349:470
2.349:483
2.349:495
2.349:493
2.349:479
2.354:483
2.354:487
2.354:479
2.354:477
2.354:490
2.354:503
2.354:503
2.354:500
2.354:513
2.354:536
2.357:535
2.357:519
2.357:497
2.357:478
2.374:478
2.374:469
2.374:464
2.374:479
2.374:476
2.374:462
2.379:473
2.379:472
2.379:441
2.379:428
2.379:419
2.379:423
2.379:450
2.379:467
2.379:467
2.382:489
2.382:508
2.382:503
2.382:505
2.382:514
2.382:500
2.382:478
2.382:460
2.382:456
2.382:477
2.386:494
2.386:485
2.386:489
2.386:498
2.386:506
2.403:491
2.403:482
2.407:473
2.407:488
2.407:495
2.407:501
2.407:505
2.407:499
2.407:501
2.407:506
2.407:503
2.407:503
2.411:499
2.411:483
2.411:479
2.411:471
2.411:448
2.411:431
2.411:446
2.411:485
2.411:513
2.411:518
2.414:488
2.414:475
2.414:489
2.414:491
2.414:488
2.414:482
2.414:487
2.416:489
2.431:489
2.431:507
2.436:493
2.436:484
2.436:480
2.436:479
2.436:469
2.437:460
2.437:476
2.437:508
2.437:511
2.439:501
2.440:487
2.440:493
2.440:494
2.440:502
2.440:524
2.440:541
2.440:530
2.440:499
2.440:479
2.444:492
2.444:480
2.444:447
2.444:402
2.444:367
2.444:326
2.444:286
2.444:242
2.444:220
2.464:179
2.464:140
2.464:116
2.464:73
2.464:20
2.464:17
2.464:17
2.464:17
2.464:17
2.469:17
2.469:18
2.470:18
2.470:18
2.470:18
2.470:18
2.470:18
2.470:18
2.470:18
2.470:18
2.470:18
2.470:18
2.472:17
2.472:17
2.472:63
2.472:130
2.472:216
2.473:308
2.473:384
2.473:460
2.473:539
2.492:539
2.492:591
2.492:629
2.492:638
2.492:653
2.492:638
2.492:597
2.497:573
2.497:562
2.497:568
2.497:563
2.497:562
2.497:566
2.497:579
2.497:598
2.497:604
2.498:593
2.501:559
2.501:549
2.501:542
2.501:548
2.501:545
2.501:545
2.501:544
2.501:546
2.502:549
2.505:556
2.505:555
2.505:559
2.505:573
2.521:576
2.521:570
2.521:563
2.521:541
2.526:528
2.526:524
2.526:530
2.526:546
2.526:566
2.526:565
2.526:556
2.526:549
2.526:544
2.530:557
2.530:572
2.530:565
2.530:513
2.530:472
2.530:483
2.530:527
2.530:556
2.530:558
2.530:546
2.534:561
2.534:579
2.534:581
2.534:572
2.534:571
2.534:560
2.534:552
2.549:552
2.549:553
2.549:551
2.554:545
2.554:553
2.554:533
2.554:538
2.554:556
2.554:551
2.554:534
2.554:520
2.554:524
2.554:521
2.558:502
2.558:472
2.558:463
2.558:502
2.559:531
2.559:524
2.559:521
2.559:514
2.559:507
2.563:502
2.563:500
2.563:502
2.563:505
2.563:505
2.563:492
2.563:466
2.563:463
2.583:472
2.583:497
2.583:528
2.583:520
2.583:478
2.583:469
2.584:476
2.584:473
2.584:465
2.588:470
2.588:480
2.588:488
2.588:497
2.588:498
2.588:499
2.588:503
2.588:488
2.588:478
2.589:493
2.591:496
2.591:481
2.591:461
2.591:453
2.591:466
2.591:482
2.591:489
2.591:477
2.591:460
2.595:457
2.595:472
2.611:472
2.611:488
2.611:502
2.611:498
2.611:492
2.611:492
2.612:506
2.612:502
2.616:502
2.616:483
2.616:469
2.616:463
2.616:443
2.616:421
2.616:412
2.616:425
2.616:449
2.616:470
2.619:469
2.620:458
2.620:458
2.620:452
2.621:444
2.621:438
2.621:433
2.621:435
2.621:439
2.621:439
2.623:431
2.623:415
2.640:423
2.640:452
2.640:451
2.640:435
2.640:427
2.645:425
2.645:427
2.645:422
2.645:417
2.645:429
2.645:459
2.645:475
2.645:463
2.645:438
2.645:431
2.649:412
2.649:410
2.649:409
2.649:406
2.649:406
2.649:399
2.649:405
2.649:395
2.649:396
2.652:394
2.653:397
2.653:398
2.653:398
2.653:392
2.653:385
2.669:385
2.669:386
2.669:388
2.669:395
2.673:392
2.673:387
2.673:388
2.673:384
2.673:366
2.673:358
2.673:356
2.673:378
2.673:392
2.673:414
2.677:438
2.677:434
2.677:407
2.677:389
2.677:379
2.677:371
2.677:367
2.677:380
2.677:402
2.681:437
2.681:460
2.681:462
2.681:457
2.681:431
2.681:414
2.681:420
2.697:421
2.702:401
2.702:392
2.702:404
2.702:426
2.702:428
2.703:418
2.703:431
2.703:452
2.703:473
2.703:469
2.706:463
2.706:451
2.706:447
2.706:464
2.706:475
2.706:489
2.706:487
2.706:461
2.706:423
2.710:384
2.710:373
2.710:420
2.710:485
2.710:515
2.710:546
2.710:564
2.710:567
2.710:554
2.710:548
2.731:548
2.731:550
2.731:562
2.731:560
2.731:560
2.731:553
2.731:555
2.731:561
2.731:550
2.731:550
2.735:558
2.736:549
2.736:536
2.736:516
2.736:513
2.736:514
2.736:489
2.737:475
2.737:472
2.738:529
2.738:579
2.738:593
2.738:584
2.738:570
2.738:563
2.738:592
2.738:600
2.739:584
2.739:570
2.742:568
2.758:589
2.758:586
2.758:582
2.758:576
2.758:571
2.758:555
2.758:542
2.762:547
2.762:559
2.762:560
2.762:560
2.762:569
2.763:571
2.763:559
2.763:548
2.763:542
2.767:544
2.767:544
2.767:550
2.767:538
2.767:526
2.767:516
2.767:520
2.768:529
2.769:537
2.769:550
2.771:558
2.771:545
2.771:533
2.771:536
2.787:536
2.787:529
2.787:511
2.787:507
2.788:520
2.788:519
2.791:539
2.791:553
2.791:559
2.791:546
2.792:530
2.792:522
2.792:527
2.792:529
2.792:527
2.796:523
2.796:525
2.796:525
2.796:518
2.796:518
2.796:532
2.796:543
2.796:548
2.796:551
2.796:552
2.800:542
2.800:532
2.800:535
2.800:528
2.800:517
2.816:502
2.816:493
2.820:483
2.821:482
2.821:481
2.821:487
2.821:491
2.821:473
2.821:456
2.821:457
2.821:489
2.821:519
2.825:526
2.825:516
2.825:525
2.825:535
2.825:536
2.825:540
2.825:542
2.825:553
2.825:581
2.825:571
2.829:530
2.829:489
2.829:478
2.829:475
2.829:470
2.829:458
2.829:477
2.829:525
2.845:525
2.845:512
2.849:484
2.849:475
2.849:477
2.849:490
2.849:501
2.849:502
2.849:510
2.849:515
2.849:505
2.853:514
2.853:508
2.853:485
2.854:477
2.854:488
2.854:496
2.854:518
2.854:529
2.854:522
2.854:499
2.857:487
2.857:500
2.857:519
2.857:526
2.857:525
2.857:512
2.857:488
2.857:491
2.857:510
2.877:504
2.877:498
2.877:485
2.877:468
2.877:467
2.877:467
2.877:459
2.877:467
2.882:487
2.882:496
2.882:499
2.882:506
2.882:500
2.882:495
2.882:479
2.882:478
2.882:478
2.886:490
2.886:504
2.886:518
2.886:517
2.886:498
2.886:479
2.887:470
2.887:470
2.887:463
2.887:463
2.890:466
2.890:474
2.890:474
2.906:474
2.906:485
2.906:492
2.906:502
2.906:528
2.906:519
2.907:502
2.911:485
2.911:472
2.911:470
2.911:468
2.911:455
2.911:452
2.911:444
2.911:426
2.911:425
2.911:447
2.915:479
2.915:508
2.915:523
2.915:504
2.915:468
2.915:450
2.915:453
2.915:471
2.915:481
2.918:502
2.919:511
2.919:505
2.919:489
2.934:481
2.934:466
2.934:450
2.934:441
2.939:450
2.939:462
2.939:444
2.939:438
2.939:443
2.939:443
2.939:448
2.939:471
2.939:492
2.943:491
2.943:488
2.943:476
2.943:475
2.943:507
2.943:547
2.943:541
2.943:523
2.943:495
2.943:470
2.947:468
2.947:473
2.947:478
2.947:461
2.947:459
2.947:455
2.948:458
2.963:458
2.963:466
2.963:473
2.968:477
2.969:484
2.969:489
2.969:478
2.969:468
2.969:461
2.969:468
2.969:476
2.969:475
2.972:468
2.972:452
2.973:443
2.973:459
2.973:485
2.973:504
2.973:491
2.973:480
2.973:483
2.973:475
2.976:462
2.976:458
2.976:466
2.976:485
2.976:477
2.976:477
2.976:482
2.976:486
2.997:481
2.997:467
2.997:453
2.997:456
2.997:457
2.997:457
2.997:458
2.997:461
2.997:455
3.001:461
3.002:468
3.002:473
3.002:468
3.002:462
3.002:448
3.002:459
3.002:464
3.003:474
3.003:469
3.004:462
3.004:451
3.004:448
3.004:441
3.006:442
3.006:452
3.006:465
3.006:485
3.006:483
3.009:459
3.009:440
3.024:440
3.024:432
3.024:431
3.024:470
3.024:498
3.024:503
3.024:499
3.024:482
3.030:469
3.030:466
3.030:460
3.030:459
3.030:469
3.030:473
3.030:461
3.030:447
3.030:442
3.030:437
3.034:426
3.034:425
3.034:426
3.034:445
3.034:453
3.034:449
3.035:447
3.035:437
3.035:423
3.037:430
3.037:458
3.037:471
3.053:463
3.053:449
3.054:438
3.054:434
3.054:441
3.058:455
3.058:468
3.058:489
3.058:472
3.058:427
3.058:364
3.058:373
3.058:404
3.058:425
3.058:431
3.062:428
3.062:444
3.062:442
3.062:435
3.062:445
3.062:489
3.062:508
3.062:514
3.062:492
3.066:471
3.066:438
3.066:416
3.066:438
3.066:448
3.066:446
3.082:446
3.082:457
3.083:478
3.083:485
3.087:485
3.087:487
3.087:500
3.087:499
3.087:484
3.087:475
3.087:476
3.088:494
3.088:482
3.088:476
3.091:479
3.091:491
3.091:492
3.091:488
3.091:496
3.091:486
3.091:480
3.091:472
3.091:452
3.095:454
3.095:469
3.095:476
3.095:490
3.095:497
3.095:493
3.095:488
3.111:484
3.116:485
3.116:490
3.116:497
3.116:496
3.116:488
3.116:468
3.116:460
3.116:467
3.116:461
3.116:460
3.119:468
3.119:469
3.119:467
3.119:481
3.119:502
3.120:502
3.120:490
3.120:485
3.120:478
3.124:493
3.124:518
3.124:504
3.124:478
3.124:462
3.124:477
3.124:483
3.124:463
3.124:473
3.124:495
3.144:495
3.144:514
3.144:513
3.144:515
3.144:518
3.144:509
3.144:502
3.144:503
3.144:503
3.144:482
3.148:460
3.148:451
3.148:452
3.148:471
3.148:479
3.148:476
3.148:483
3.148:484
3.148:470
3.152:475
3.152:497
3.152:506
3.152:496
3.152:495
3.152:494
3.152:506
3.152:510
3.153:510
3.153:521
3.156:516
3.173:507
3.173:496
3.173:480
3.173:466
3.173:466
3.173:471
3.177:477
3.177:490
3.177:489
3.177:488
3.177:479
3.177:470
3.177:471
3.177:466
3.177:482
3.177:489
3.181:490
3.181:484
3.181:467
3.181:467
3.181:474
3.181:481
3.181:503
3.181:525
3.181:522
3.181:498
3.184:490
3.184:497
3.185:496
3.185:500
3.201:500
3.201:487
3.201:452
3.201:418
3.201:417
3.201:436
3.205:458
3.205:448
3.205:399
3.205:352
3.205:311
3.205:282
3.205:240
3.205:199
3.205:163
3.210:137
3.210:105
3.210:53
3.210:17
3.210:17
3.210:17
3.210:17
3.210:17
3.210:17
3.210:18
3.210:18
3.210:18
3.213:18
3.213:18
3.213:18
3.230:18
3.230:18
3.230:17
3.234:18
3.235:18
3.235:17
3.235:111
3.235:215
3.235:258
3.235:299
3.235:360
3.235:432
3.236:517
3.238:573
3.238:602
3.238:618
3.238:623
3.238:603
3.238:583
3.238:585
3.239:596
3.239:577
3.239:552
3.242:551
3.242:547
3.242:535
3.242:543
3.242:550
3.243:548
3.243:538
3.258:538
3.258:541
3.262:547
3.262:542
3.262:535
3.262:529
3.262:543
3.262:569
3.262:584
3.262:597
3.262:605
3.267:611
3.267:604
3.267:590
3.268:583
3.268:571
3.268:558
3.268:548
3.269:543
3.269:544
3.269:560
3.271:580
3.271:582
3.271:573
3.271:555
3.271:525
3.272:525
3.272:549
3.272:557
3.272:552
3.291:557
3.291:562
3.291:577
3.291:605
3.291:610
3.292:611
3.292:602
3.292:583
3.296:570
3.296:560
3.296:532
3.296:527
3.296:532
3.296:524
3.296:523
3.296:517
3.296:509
3.300:512
3.300:517
3.300:517
3.300:532
3.300:557
3.300:567
3.300:562
3.300:553
3.300:540
3.300:527
3.303:529
3.303:538
3.304:529
3.320:529
3.320:520
3.320:540
3.320:541
3.320:522
3.320:494
3.320:484
3.324:489
3.324:494
3.324:498
3.324:525
3.324:534
3.324:515
3.324:526
3.324:531
3.324:529
3.328:512
3.328:518
3.328:529
3.328:537
3.328:527
3.328:500
3.328:486
3.328:488
3.328:479
3.328:466
3.332:472
3.332:480
3.332:484
3.332:488
3.348:489
3.348:489
3.348:493
3.348:497
3.353:500
3.353:500
3.353:491
3.353:489
3.353:470
3.354:452
3.354:454
3.354:468
3.354:491
3.357:512
3.357:508
3.357:495
3.357:498
3.357:495
3.357:486
3.358:470
3.358:440
3.358:435
3.358:429
3.361:433
3.361:460
3.361:483
3.361:502
3.361:509
3.361:508
3.361:495
3.377:495
3.377:479
3.377:470
3.382:459
3.382:444
3.382:443
3.382:443
3.382:437
3.382:442
3.382:450
3.382:464
3.382:474
3.386:479
3.386:474
3.386:469
3.386:466
3.386:460
3.386:472
3.386:467
3.387:461
3.387:448
3.387:423
3.390:411
3.390:416
3.390:423
3.390:432
3.390:447
3.390:444
3.390:435
3.390:436
3.410:430
3.410:424
3.410:415
3.410:415
3.410:421
3.410:418
3.410:407
3.410:409
3.410:413
3.415:411
3.415:418
3.415:414
3.415:412
3.415:406
3.415:400
3.415:382
3.415:386
3.415:417
3.415:441
3.418:441
3.418:437
3.418:443
3.418:436
3.418:439
3.418:443
3.419:441
3.419:440
3.419:455
3.422:447
3.422:422
3.439:422
3.439:400
3.439:393
3.439:395
3.439:397
3.439:408
3.439:402
3.439:398
3.443:398
3.443:402
3.443:416
3.443:426
3.443:442
3.443:434
3.443:420
3.443:451
3.443:478
3.443:473
3.447:459
3.447:441
3.447:429
3.447:423
3.447:420
3.447:432
3.447:442
3.448:448
3.448:460
3.451:494
3.452:515
3.452:512
3.468:483
3.468:465
3.468:461
3.468:460
3.468:468
3.472:482
3.472:499
3.472:503
3.472:502
3.472:508
3.472:512
3.472:515
3.472:509
3.472:507
3.472:500
3.475:497
3.475:499
3.475:509
3.475:515
3.475:503
3.476:495
3.476:511
3.476:536
3.476:542
3.480:548
3.480:557
3.480:564
3.480:555
3.480:549
3.480:543
3.496:543
3.496:534
3.496:524
3.496:528
3.501:534
3.502:538
3.502:533
3.502:539
3.502:537
3.502:532
3.502:520
3.502:514
3.502:538
3.503:568
3.505:564
3.505:570
3.505:580
3.505:586
3.505:583
3.505:556
3.505:540
3.505:543
3.505:532
3.508:503
3.508:504
3.508:524
3.508:532
3.508:530
3.508:536
3.508:544
3.524:563
3.529:568
3.529:565
3.529:552
3.529:548
3.529:539
3.529:527
3.529:524
3.529:538
3.529:560
3.529:564
3.532:575
3.532:575
3.532:559
3.533:554
3.533:537
3.533:524
3.533:510
3.533:509
3.533:495
3.537:480
3.537:501
3.537:541
3.537:559
3.537:554
3.537:543
3.537:533
3.537:536
3.537:533
3.537:534
3.558:534
3.558:541
3.558:546
3.558:540
3.558:533
3.558:517
3.558:496
3.558:490
3.558:496
3.558:521
3.561:540
3.561:568
3.561:604
3.562:591
3.562:561
3.562:547
3.562:530
3.562:509
3.562:480
3.566:458
3.566:465
3.566:465
3.566:462
3.566:475
3.566:492
3.566:483
3.566:486
3.566:502
3.566:496
3.569:482
3.586:489
3.586:501
3.586:507
3.586:497
3.586:531
3.586:553
3.591:546
3.591:541
3.591:532
3.591:519
3.591:522
3.591:531
3.591:524
3.591:517
3.591:500
3.591:490
3.595:482
3.595:481
3.595:489
3.595:521
3.595:536
3.595:532
3.595:504
3.595:482
3.595:514
3.599:537
3.599:518
3.599:504
3.599:511
3.599:509
3.614:509
3.614:493
3.614:484
3.614:482
3.615:494
3.615:477
3.619:460
3.619:469
3.619:483
3.619:478
3.619:470
3.619:495
3.619:522
3.619:532
3.619:540
3.623:530
3.623:511
3.623:498
3.623:483
3.623:476
3.623:485
3.623:488
3.623:485
3.623:481
3.623:478
3.627:470
3.627:481
3.627:499
3.627:515
3.627:504
3.643:493
3.643:482
3.647:472
3.647:467
3.647:466
3.647:486
3.647:490
3.647:495
3.648:486
3.648:485
3.648:487
3.648:476
3.652:464
3.652:469
3.652:480
3.653:477
3.653:471
3.653:482
3.653:482
3.653:469
3.654:472
3.656:496
3.656:524
3.656:540
3.656:529
3.656:513
3.656:500
3.656:496
3.656:490
3.656:485
3.671:485
3.677:483
3.677:497
3.677:521
3.677:516
3.677:492
3.677:467
3.677:468
3.677:476
3.677:488
3.677:486
3.681:477
3.681:485
3.681:507
3.681:515
3.681:522
3.681:528
3.681:507
3.681:485
3.681:485
3.681:477
3.684:465
3.685:479
3.685:492
3.685:487
3.685:486
3.685:493
3.685:484
3.685:471
3.685:465
3.705:479
3.705:498
3.705:492
3.705:484
3.705:477
3.705:483
3.705:493
3.705:478
3.709:460
3.709:446
3.709:459
3.709:467
3.709:478
3.709:512
3.709:527
3.709:503
3.709:478
3.713:477
3.713:479
3.713:476
3.713:470
3.713:459
3.713:455
3.713:458
3.713:472
3.713:498
3.713:506
3.718:485
3.718:478
3.718:485
3.733:485
3.734:487
3.734:472
3.734:470
3.734:459
3.734:455
3.735:454
3.738:458
3.738:461
3.738:471
3.738:471
3.738:479
3.738:493
3.738:492
3.738:490
3.738:486
3.742:496
3.742:507
3.742:499
3.742:508
3.742:521
3.742:513
3.742:492
3.742:477
3.742:467
3.742:461
3.746:434
3.746:434
3.746:456
3.746:468
3.762:486
3.762:495
3.762:496
3.762:479
3.766:462
3.766:468
3.766:486
3.766:495
3.766:484
3.766:493
3.766:516
3.766:522
3.766:517
3.771:500
3.771:477
3.771:471
3.771:471
3.771:467
3.771:463
3.771:454
3.771:446
3.771:460
3.771:487
3.775:497
3.775:503
3.775:493
3.775:498
3.775:514
3.775:494
3.775:483
3.791:483
3.791:487
3.791:496
3.795:497
3.795:492
3.796:476
3.796:455
3.796:463
3.796:465
3.796:452
3.796:441
3.796:427
3.799:425
3.799:453
3.799:491
3.799:521
3.799:527
3.799:515
3.799:501
3.799:500
3.799:506
3.799:510
3.803:500
3.803:513
3.803:530
3.803:517
3.803:482
3.803:446
3.803:436
3.803:458
3.823:460
3.823:453
3.823:464
3.823:468
3.823:468
3.823:477
3.823:470
3.824:465
3.824:478
3.828:482
3.828:483
3.828:496
3.828:483
3.828:468
3.828:472
3.828:489
3.828:507
3.828:525
3.828:497
3.832:472
3.832:458
3.832:451
3.832:451
3.832:452
3.832:453
3.832:472
3.832:476
3.832:473
3.836:479
3.836:487
3.852:487
3.852:489
3.852:488
3.853:494
3.853:495
3.853:472
3.853:451
3.853:447
3.857:434
3.857:417
3.857:404
3.857:407
3.857:421
3.857:452
3.857:467
3.857:473
3.857:461
3.857:456
3.861:460
3.861:458
3.861:473
3.861:477
3.861:483
3.861:484
3.861:490
3.861:479
3.861:457
3.865:438
3.865:449
3.865:451
3.881:432
3.881:430
3.881:461
3.881:470
3.881:471
3.885:478
3.885:462
3.885:448
3.886:459
3.886:461
3.886:460
3.886:460
3.886:473
3.886:489
3.886:506
3.888:510
3.889:508
3.889:492
3.889:491
3.889:490
3.889:485
3.889:491
3.889:500
3.889:493
3.893:492
3.893:493
3.893:497
3.893:498
3.893:498
3.893:491
3.909:491
3.909:498
3.910:505
3.910:518
3.914:485
3.914:459
3.914:483
3.914:519
3.914:516
3.914:506
3.914:494
3.914:496
3.915:504
3.915:506
3.918:493
3.918:490
3.918:530
3.919:538
3.919:509
3.919:480
3.919:459
3.919:456
3.919:481
3.922:504
3.922:511
3.922:507
3.923:485
3.923:477
3.923:489
3.923:496
3.938:507
3.943:521
3.943:508
3.943:499
3.943:509
3.943:511
3.943:496
3.943:498
3.943:516
3.943:518
3.947:511
3.947:506
3.947:492
3.947:466
3.947:477
3.947:492
3.947:502
3.947:509
3.947:511
3.947:510
3.951:511
3.952:509
3.952:496
3.952:482
3.952:472
3.952:474
3.952:486
3.952:497
3.952:516
3.952:525
3.971:525
3.971:519
3.971:518
3.971:511
3.971:498
3.971:491
3.971:501
3.971:502
3.971:501
3.972:491
3.974:488
3.974:493
3.974:487
3.974:475
3.974:472
3.974:476
3.974:494
3.976:510
3.976:509
3.980:499
3.980:507
3.980:517
3.980:522
3.980:504
3.980:480
3.980:462
3.980:475
3.980:489
3.980:516
3.983:537
4.000:523
4.000:516
4.000:514
4.000:515
4.000:520
4.000:524
4.004:532
4.004:543
4.004:526
4.004:511
4.004:512
4.004:521
4.004:516
4.004:480
4.004:453
4.004:447
4.008:434
4.008:401
4.008:358
4.008:324
4.008:292
4.008:276
4.008:256
4.008:221
4.008:176
4.012:145
4.012:110
4.012:57
4.012:19
4.012:17
4.028:17
4.028:17
4.028:18
4.028:17
4.028:17
4.028:18
4.028:18
4.033:18
4.033:19
4.033:18
4.033:18
4.033:19
4.033:18
4.033:18
4.033:18
4.033:17
4.033:17
4.033:44
4.034:137
4.037:219
4.037:304
4.037:403
4.037:506
4.037:595
4.037:654
4.038:705
4.038:726
4.038:714
4.041:674
4.041:630
4.057:599
4.057:574
4.061:555
4.061:543
4.061:549
4.061:552
4.061:552
4.061:586
4.061:610
4.061:606
4.061:571
4.061:555
4.066:563
4.066:578
4.066:577
4.066:570
4.066:548
4.066:539
4.066:549
4.066:550
4.066:570
4.070:592
4.070:608
4.070:608
4.070:626
4.070:637
4.070:624
4.070:589
4.070:538
4.070:543
4.085:543
4.090:562
4.090:572
4.090:573
4.090:580
4.090:595
4.090:595
4.090:576
4.090:576
4.090:588
4.090:601
4.094:589
4.094:563
4.094:552
4.094:555
4.094:569
4.094:563
4.094:555
4.094:551
4.094:549
4.098:552
4.098:556
4.098:569
4.098:560
4.098:559
4.098:553
4.098:551
4.098:550
4.098:559
4.099:559
4.118:559
4.118:549
4.118:537
4.118:531
4.118:532
4.119:534
4.119:543
4.119:544
4.123:539
4.123:531
4.123:522
4.123:545
4.123:611
4.123:652
4.123:621
4.123:577
4.124:550
4.127:524
4.127:507
4.127:488
4.128:499
4.128:515
4.128:525
4.128:519
4.128:511
4.128:508
4.128:504
4.131:508
4.131:515
4.131:509
4.147:509
4.147:501
4.147:488
4.148:484
4.148:496
4.148:521
4.148:535
4.151:540
4.151:537
4.152:529
4.152:517
4.152:510
4.152:512
4.152:523
4.152:530
4.152:515
4.156:483
4.156:462
4.156:463
4.156:456
4.156:462
4.156:471
4.157:475
4.157:483
4.157:495
4.157:496
4.159:497
4.159:486
4.159:491
4.159:524
4.174:542
4.174:534
4.174:508
4.174:480
4.180:471
4.180:473
4.180:475
4.180:484
4.180:482
4.180:483
4.180:476
4.180:479
4.180:480
4.184:484
4.184:483
4.184:484
4.184:483
4.185:485
4.185:486
4.185:470
4.185:464
4.185:452
4.185:438
4.188:418
4.188:418
4.188:431
4.188:459
4.188:469
4.188:502
4.188:520
4.204:520
4.204:525
4.204:513
4.209:492
4.209:479
4.209:464
4.209:468
4.209:469
4.209:463
4.209:455
4.209:458
4.209:446
4.213:428
4.213:419
4.213:410
4.213:403
4.213:407
4.213:419
4.213:430
4.213:428
4.213:408
4.213:400
4.217:414
4.217:423
4.217:410
4.218:435
4.218:424
4.218:392
4.218:376
4.218:378
4.236:385
4.237:397
4.237:405
4.237:404
4.237:396
4.237:393
4.237:378
4.237:380
4.237:381
4.241:384
4.241:403
4.241:410
4.241:427
4.241:438
4.242:448
4.242:440
4.242:438
4.242:433
4.242:428
4.245:419
4.245:413
4.245:411
4.245:419
4.245:404
4.245:388
4.246:408
4.246:430
4.246:431
4.249:436
4.249:449
4.266:449
4.266:468
4.266:482
4.266:487
4.266:492
4.266:513
4.266:517
4.266:510
4.270:499
4.270:487
4.270:484
4.270:494
4.270:510
4.270:519
4.270:519
4.270:528
4.270:545
4.270:545
4.274:540
4.274:535
4.274:543
4.274:544
4.274:529
4.274:515
4.274:515
4.274:527
4.274:537
4.278:579
4.278:612
4.278:599
4.294:565
4.294:548
4.294:548
4.294:555
4.294:562
4.299:554
4.299:552
4.299:558
4.299:574
4.299:591
4.300:607
4.300:614
4.300:618
4.300:608
4.301:589
4.302:573
4.302:568
4.302:577
4.302:584
4.303:597
4.303:586
4.303:587
4.303:593
4.303:589
4.307:592
4.307:582
4.307:571
4.307:569
4.308:579
4.308:604
4.323:604
4.323:619
4.323:618
4.324:619
4.327:607
4.327:594
4.328:596
4.328:594
4.328:581
4.328:562
4.328:554
4.329:551
4.329:546
4.329:534
4.331:513
4.331:529
4.332:556
4.332:596
4.332:596
4.332:546
4.332:546
4.332:574
4.332:587
4.335:598
4.336:596
4.336:605
4.336:632
4.336:621
4.336:583
4.336:567
4.352:560
4.356:565
4.356:559
4.356:563
4.356:573
4.356:578
4.357:583
4.357:586
4.357:579
4.357:566
4.360:545
4.360:534
4.360:542
4.360:560
4.360:571
4.360:568
4.360:553
4.362:557
4.362:583
4.362:595
4.364:588
4.364:579
4.364:564
4.364:540
4.364:535
4.364:535
4.364:538
4.366:548
4.366:555
4.366:550
4.385:550
4.385:541
4.385:531
4.385:511
4.385:506
4.385:512
4.385:520
4.385:537
4.385:550
4.385:561
4.388:557
4.388:552
4.388:554
4.388:558
4.389:569
4.389:577
4.389:558
4.389:528
4.389:533
4.393:545
4.393:548
4.393:532
4.393:526
4.393:520
4.393:522
4.394:534
4.394:545
4.394:557
4.394:553
4.397:548
4.413:548
4.413:543
4.413:532
4.413:520
4.413:503
4.413:504
4.417:511
4.418:520
4.418:538
4.418:522
4.418:502
4.418:486
4.418:498
4.418:511
4.418:525
4.418:538
4.422:558
4.422:559
4.422:543
4.422:541
4.422:529
4.422:540
4.422:545
4.422:557
4.422:550
4.426:546
4.426:533
4.426:528
4.426:530
4.426:529
4.442:529
4.442:538
4.442:543
4.442:542
4.442:538
4.446:546
4.446:542
4.446:534
4.446:522
4.446:504
4.446:487
4.446:492
4.447:478
4.447:483
4.447:518
4.449:548
4.450:563
4.450:556
4.450:543
4.450:528
4.450:517
4.450:514
4.451:529
4.451:518
4.454:520
4.454:526
4.454:534
4.454:540
4.454:540
4.454:534
4.470:527
4.470:518
4.475:508
4.475:492
4.475:478
4.475:486
4.475:494
4.475:506
4.475:503
4.475:507
4.475:520
4.475:521
4.479:505
4.479:490
4.479:500
4.479:516
4.479:533
4.479:534
4.479:533
4.479:519
4.479:521
4.483:521
4.483:524
4.483:531
4.484:528
4.484:515
4.484:499
4.484:473
4.484:454
4.484:446
4.498:446
4.503:469
4.503:496
4.503:511
4.503:512
4.503:518
4.503:513
4.503:533
4.503:549
4.503:546
4.503:547
4.507:550
4.507:565
4.508:574
4.508:568
4.508:543
4.508:515
4.508:519
4.508:539
4.508:535
4.512:514
4.512:508
4.512:503
4.512:524
4.512:516
4.512:514
4.512:522
4.512:520
4.512:519
4.513:523
4.532:521
4.532:510
4.532:508
4.532:502
4.532:508
4.532:517
4.532:523
4.532:516
4.536:514
4.536:508
4.536:502
4.536:494
4.536:490
4.536:482
4.536:480
4.536:496
4.536:513
4.540:517
4.540:542
4.540:569
4.540:595
4.540:597
4.540:566
4.540:515
4.540:484
4.540:480
4.540:508
4.544:515
4.544:509
4.544:505
4.560:505
4.560:489
4.560:489
4.560:495
4.560:495
4.560:478
4.560:479
4.565:501
4.565:514
4.565:523
4.565:550
4.565:566
4.565:563
4.565:543
4.565:526
4.566:515
4.569:502
4.569:496
4.569:493
4.569:501
4.569:497
4.569:498
4.569:510
4.569:531
4.569:553
4.569:543
4.573:522
4.573:514
4.573:525
4.573:526
4.589:511
4.589:513
4.589:515
4.589:538
4.593:573
4.593:585
4.593:576
4.593:541
4.593:518
4.594:504
4.594:499
4.594:492
4.594:493
4.598:506
4.598:531
4.598:522
4.598:537
4.598:556
4.598:546
4.598:524
4.598:505
4.598:518
4.598:538
4.601:560
4.602:561
4.602:552
4.602:529
4.602:505
4.602:486
4.602:465
4.618:465
4.618:461
4.618:466
4.622:475
4.622:493
4.622:518
4.622:529
4.622:528
4.622:543
4.622:558
4.622:576
4.622:565
4.627:548
4.627:527
4.627:519
4.627:514
4.627:512
4.627:518
4.627:517
4.627:504
4.627:483
4.627:482
4.631:493
4.631:499
4.631:487
4.631:478
4.631:491
4.631:494
4.631:487
4.631:481
4.651:482
4.651:500
4.651:514
4.651:522
4.651:529
4.651:529
4.651:537
4.651:558
4.651:563
4.655:560
4.655:547
4.655:545
4.655:541
4.656:528
4.656:502
4.656:477
4.656:487
4.656:524
4.656:550
4.659:554
4.659:575
4.659:573
4.659:561
4.659:556
4.659:549
4.659:527
4.659:509
4.659:514
4.663:531
4.663:544
4.679:544
4.679:547
4.679:530
4.679:513
4.679:505
4.679:487
4.679:489
4.679:529
4.683:554
4.683:555
4.683:519
4.683:485
4.684:492
4.684:503
4.684:526
4.684:555
4.684:566
4.684:559
4.687:537
4.687:529
4.687:514
4.687:499
4.687:495
4.687:485
4.687:496
4.688:486
4.688:488
4.692:503
4.692:514
4.692:515
4.708:509
4.708:499
4.708:499
4.708:494
4.708:502
4.713:520
4.713:543
4.713:548
4.713:521
4.713:478
4.713:470
4.713:488
4.713:524
4.713:532
4.716:538
4.716:504
4.716:477
4.716:491
4.716:507
4.717:513
4.717:501
4.717:487
4.717:472
4.717:452
4.721:427
4.721:434
4.721:430
4.721:428
4.721:462
4.721:496
4.737:496
4.737:496
4.737:482
4.737:482
4.741:473
4.741:476
4.741:479
4.741:468
4.741:459
4.741:462
4.741:467
4.741:469
4.741:465
4.741:448
4.745:443
4.745:478
4.745:487
4.745:471
4.745:478
4.745:509
4.745:512
4.745:500
4.745:486
4.749:481
4.750:478
4.750:471
4.750:457
4.750:457
4.750:486
4.750:527
4.765:543
4.770:532
4.770:516
4.770:497
4.770:496
4.770:480
4.770:490
4.770:509
4.770:517
4.770:505
4.774:495
4.774:488
4.774:493
4.774:513
4.774:521
4.774:522
4.774:511
4.774:494
4.774:476
4.774:472
4.778:480
4.778:491
4.778:508
4.778:522
4.778:540
4.778:534
4.778:507
4.778:464
4.778:458
4.782:458
4.798:458
4.798:455
4.798:471
4.798:501
4.798:501
4.798:531
4.798:588
4.798:590
4.799:560
4.802:529
4.802:518
4.802:520
4.802:511
4.802:512
4.802:507
4.802:510
4.802:507
4.803:526
4.803:543
4.807:539
4.807:532
4.807:522
4.807:536
4.807:525
4.808:511
4.808:517
4.808:524
4.808:506
4.808:492
4.810:489
4.827:494
4.827:522
4.827:553
4.827:576
4.827:572
4.827:574
4.831:570
4.831:545
4.831:551
4.831:532
4.831:494
4.831:486
4.831:484
4.831:487
4.831:493
4.831:511
4.835:540
4.835:543
4.836:535
4.836:532
4.836:536
4.836:539
4.836:534
4.836:535
4.836:533
4.838:530
4.838:517
4.838:521
4.839:527
4.839:516
4.855:516
4.855:511
4.855:511
4.855:512
4.855:511
4.860:507
4.860:516
4.860:525
4.860:530
4.860:526
4.860:510
4.860:499
4.860:503
4.860:526
4.860:536
4.864:529
4.864:525
4.864:498
4.864:493
4.864:497
4.864:498
4.864:488
4.864:487
4.864:488
4.868:488
4.868:480
4.868:492
4.868:500
4.868:510
4.868:518
4.884:531
4.884:540
4.888:554
4.888:563
4.888:562
4.888:548
4.888:536
4.888:549
4.888:560
4.888:561
4.888:557
4.888:533
4.892:529
4.892:528
4.892:498
4.892:461
4.892:426
4.892:403
4.892:382
4.892:354
4.892:331
4.897:331
4.897:291
4.897:243
4.897:184
4.897:138
4.897:129
4.897:125
4.897:94
4.897:41
4.913:41
4.913:17
4.917:17
4.917:17
4.917:17
4.917:18
4.917:18
4.917:18
4.917:19
4.918:18
4.918:18
4.918:19
4.918:18
4.918:18
4.921:18
4.921:17
4.921:17
4.921:16
4.921:77
4.921:173
4.921:275
4.921:350
4.921:422
4.921:516
4.925:602
4.925:672
4.926:710
4.926:716
4.926:710
4.926:686
4.945:651
4.945:625
4.945:630
4.946:638
4.946:634
4.946:628
4.946:620
4.946:609
4.950:606
4.950:593
4.950:579
4.950:576
4.950:590
4.950:596
4.950:584
4.950:557
4.950:567
4.954:578
4.954:544
4.954:513
4.954:536
4.954:577
4.954:601
4.954:594
4.954:592
4.954:605
4.954:592
4.958:583
4.958:574
4.958:567
4.974:567
4.974:561
4.974:569
4.974:606
4.974:624
4.974:622
4.974:652
4.979:665
4.979:643
4.979:626
4.979:608
4.979:611
4.979:630
4.979:611
4.979:581
4.979:547
4.983:518
4.983:527
4.983:559
4.983:568
4.984:564
4.984:561
4.984:574
4.984:595
4.984:623
4.984:627
4.986:593
4.986:546
4.986:497
4.986:475
5.002:497
5.003:519
5.003:539
5.007:567
5.007:571
5.007:585
5.007:603
5.007:606
5.007:604
5.007:594
5.007:578
5.007:558
5.007:526
5.011:521
5.011:532
5.011:544
5.011:556
5.011:552
5.011:536
5.011:491
5.011:444
5.011:437
5.011:471
5.014:521
5.014:536
5.014:542
5.014:519
5.014:513
5.014:499
5.014:485
5.031:485
5.031:504
5.031:483
5.036:494
5.036:537
5.036:568
5.036:559
5.036:554
5.036:555
5.036:569
5.036:577
5.036:594
5.040:570
5.040:534
5.040:504
5.040:499
5.040:502
5.040:484
5.040:501
5.040:551
5.040:564
5.040:543
5.044:532
5.044:542
5.044:547
5.044:537
5.044:513
5.044:478
5.044:475
5.044:471
5.064:468
5.064:497
5.064:543
5.064:544
5.064:524
5.064:508
5.064:505
5.064:527
5.064:548
5.069:529
5.069:490
5.069:464
5.069:468
5.069:474
5.069:469
5.069:489
5.069:501
5.069:482
5.073:512
5.073:529
5.073:516
5.073:488
5.073:446
5.073:409
5.073:392
5.073:405
5.073:433
5.073:445
5.077:426
5.077:405
5.093:405
5.093:397
5.093:410
5.093:424
5.093:400
5.093:363
5.093:342
5.093:338
5.097:342
5.097:373
5.097:428
5.097:451
5.097:430
5.098:418
5.098:429
5.098:448
5.098:480
5.098:493
5.101:478
5.101:489
5.101:491
5.101:496
5.101:486
5.101:460
5.101:446
5.101:415
5.102:401
5.104:371
5.106:358
5.106:365
5.121:375
5.121:392
5.121:418
5.121:413
5.121:412
5.126:403
5.126:389
5.126:395
5.126:406
5.126:413
5.126:422
5.126:420
5.126:400
5.126:395
5.130:418
5.130:445
5.130:459
5.130:454
5.130:439
5.130:422
5.130:425
5.130:439
5.130:440
5.130:430
5.134:425
5.134:428
5.134:427
5.134:421
5.134:418
5.134:431
5.150:431
5.150:450
5.150:457
5.150:438
5.155:429
5.155:427
5.155:448
5.155:483
5.155:463
5.155:450
5.155:446
5.155:455
5.155:468
5.155:459
5.158:467
5.158:465
5.159:487
5.159:519
5.159:545
5.159:557
5.159:613
5.159:632
5.159:627
5.163:605
5.163:574
5.163:557
5.163:552
5.163:541
5.163:530
5.163:517
5.179:514
5.183:526
5.183:529
5.184:558
5.184:570
5.184:582
5.184:598
5.184:604
5.184:620
5.184:635
5.187:639
5.187:633
5.187:621
5.187:596
5.187:596
5.187:592
5.187:590
5.188:597
5.188:634
5.188:669
5.192:666
5.192:628
5.192:604
5.192:609
5.192:624
5.192:628
5.192:627
5.192:626
5.192:628
5.195:647
5.212:647
5.212:655
5.212:647
5.212:627
5.212:598
5.212:587
5.212:594
5.212:619
5.212:617
5.216:608
5.216:614
5.217:610
5.217:603
5.217:599
5.217:596
5.217:588
5.217:581
5.217:578
5.217:581
5.220:604
5.220:612
5.220:607
5.220:605
5.220:609
5.220:607
5.220:608
5.220:589
5.220:563
5.220:567
5.223:580
5.240:577
5.240:555
5.240:551
5.240:556
5.240:568
5.240:568
5.245:575
5.245:591
5.245:603
5.245:609
5.245:594
5.245:595
5.245:594
5.245:581
5.245:569
5.245:558
5.249:558
5.250:569
5.250:575
5.250:560
5.250:547
5.250:542
5.250:541
5.250:538
5.250:533
5.253:523
5.253:529
5.253:538
5.253:543
5.253:551
5.269:551
5.269:540
5.269:542
5.269:560
5.269:580
5.273:587
5.273:590
5.273:571
5.273:542
5.273:521
5.273:517
5.273:525
5.273:528
5.273:541
5.273:561
5.277:563
5.277:542
5.277:527
5.277:540
5.277:548
5.277:571
5.277:616
5.277:634
5.277:606
5.281:540
5.281:523
5.281:554
5.281:556
5.281:547
5.281:547
5.297:542
5.297:541
5.302:535
5.302:525
5.302:505
5.302:496
5.302:509
5.302:525
5.302:519
5.302:518
5.302:528
5.302:528
5.306:535
5.306:530
5.306:522
5.306:503
5.306:509
5.306:535
5.306:534
5.306:519
5.306:548
5.310:538
5.310:505
5.310:509
5.310:526
5.310:540
5.310:537
5.310:539
5.310:545
5.310:543
5.326:543
5.331:537
5.331:523
5.331:515
5.331:512
5.331:519
5.331:527
5.331:531
5.331:522
5.331:509
5.331:505
5.334:507
5.334:507
5.334:491
5.334:485
5.334:497
5.334:527
5.334:547
5.334:548
5.334:533
5.338:531
5.338:542
5.338:554
5.338:554
5.338:537
5.338:521
5.338:518
5.339:530
5.339:527
5.339:520
5.359:525
5.359:537
5.359:558
5.359:548
5.359:514
5.359:496
5.359:500
5.360:502
5.363:485
5.363:481
5.363:484
5.363:477
5.363:479
5.363:495
5.363:498
5.364:502
5.364:508
5.367:498
5.367:493
5.368:492
5.368:487
5.368:470
5.368:473
5.368:453
5.368:469
5.368:523
5.368:545
5.371:535
5.371:516
5.371:493
5.387:493
5.387:495
5.387:507
5.387:506
5.387:509
5.388:507
5.388:504
5.391:500
5.391:488
5.392:489
5.392:508
5.392:513
5.392:503
5.392:489
5.392:470
5.392:473
5.396:474
5.396:489
5.396:501
5.396:514
5.396:508
5.396:497
5.396:501
5.396:483
5.396:496
5.396:488
5.400:508
5.400:531
5.400:542
5.400:530
5.416:523
5.416:520
5.416:508
5.421:493
5.421:479
5.421:482
5.421:489
5.421:488
5.421:477
5.421:475
5.421:472
5.421:471
5.421:481
5.425:492
5.425:502
5.425:497
5.425:488
5.425:483
5.425:513
5.425:544
5.425:536
5.425:512
5.425:509
5.429:528
5.429:520
5.429:507
5.429:490
5.429:481
5.429:473
5.429:475
5.445:475
5.445:492
5.445:488
5.449:484
5.449:484
5.449:483
5.449:467
5.450:475
5.450:488
5.450:499
5.450:506
5.450:510
5.454:507
5.454:502
5.454:498
5.454:485
5.454:494
5.454:517
5.454:519
5.454:525
5.454:550
5.454:548
5.457:541
5.457:541
5.457:516
5.457:496
5.457:486
5.457:485
5.457:473
5.457:470
5.478:482
5.478:496
5.478:493
5.478:465
5.478:479
5.478:502
5.478:499
5.478:493
5.478:502
5.482:506
5.482:503
5.483:492
5.483:488
5.483:494
5.483:484
5.483:473
5.483:476
5.483:493
5.486:483
5.486:476
5.486:495
5.486:500
5.486:488
5.486:474
5.487:477
5.487:482
5.487:481
5.487:477
5.490:475
5.490:481
5.506:481
5.506:499
5.506:509
5.506:497
5.506:485
5.506:486
5.506:527
5.507:562
5.511:564
5.511:540
5.511:513
5.511:488
5.511:470
5.511:484
5.511:488
5.511:473
5.511:459
5.511:460
5.514:460
5.514:469
5.514:480
5.514:508
5.514:537
5.514:546
5.514:540
5.514:533
5.514:525
5.519:519
5.519:511
5.519:487
5.534:471
5.534:459
5.534:460
5.534:479
5.534:498
5.539:490
5.539:489
5.539:534
5.539:557
5.539:562
5.539:557
5.539:545
5.539:534
5.539:502
5.543:495
5.543:504
5.543:501
5.543:500
5.543:508
5.543:507
5.543:491
5.543:477
5.544:482
5.544:498
5.547:508
5.547:502
5.547:480
5.547:473
5.547:444
5.547:414
5.564:414
5.564:439
5.564:485
5.564:515
5.568:549
5.568:574
5.568:580
5.568:547
5.568:493
5.568:495
5.568:509
5.569:500
5.569:495
5.572:486
5.572:481
5.572:494
5.573:506
5.573:491
5.573:475
5.573:462
5.573:451
5.573:453
5.573:461
5.576:475
5.576:480
5.576:478
5.576:496
5.576:531
5.577:534
5.577:513
5.592:486
5.597:498
5.597:502
5.597:472
5.597:457
5.597:459
5.597:455
5.597:475
5.597:496
5.598:481
5.601:458
5.601:462
5.601:460
5.601:438
5.601:438
5.601:449
5.601:432
5.601:433
5.601:445
5.601:456
5.605:442
5.605:458
5.605:476
5.605:472
5.605:462
5.605:457
5.605:474
5.605:489
5.605:497
5.609:508
5.626:508
5.626:514
5.626:505
5.626:462
5.626:432
5.626:440
5.626:468
5.626:494
5.626:484
5.630:465
5.630:443
5.630:422
5.630:489
5.630:525
5.630:529
5.630:523
5.630:509
5.630:507
5.630:507
5.634:517
5.634:516
5.634:541
5.634:559
5.634:554
5.634:523
5.634:486
5.634:478
5.634:464
5.637:480
5.637:514
5.653:530
5.653:520
5.653:504
5.653:487
5.654:492
5.654:508
5.658:516
5.658:509
5.658:507
5.658:509
5.658:515
5.658:517
5.658:495
5.658:479
5.658:475
5.658:479
5.661:482
5.661:512
5.661:539
5.662:552
5.662:555
5.662:557
5.662:547
5.662:538
5.662:527
5.666:515
5.666:499
5.666:490
5.666:498
5.666:506
5.682:506
5.682:514
5.682:495
5.683:509
5.683:533
5.687:510
5.687:478
5.687:472
5.687:481
5.687:491
5.688:505
5.688:529
5.688:530
5.688:525
5.688:522
5.691:515
5.691:508
5.691:503
5.691:503
5.691:519
5.691:525
5.691:524
5.691:517
5.692:500
5.695:518
5.695:529
5.695:512
5.695:501
5.696:499
5.696:504
5.710:493
5.711:503
5.716:509
5.716:523
5.716:528
5.716:523
5.716:516
5.716:519
5.716:514
5.716:527
5.716:534
5.716:541
5.719:544
5.719:528
5.720:512
5.720:521
5.720:559
5.720:604
5.720:598
5.720:547
5.720:527
5.724:511
5.724:496
5.724:485
5.724:482
5.724:484
5.724:469
5.724:471
5.724:493
5.724:506
5.740:506
5.744:513
5.744:508
5.744:512
5.745:510
5.745:509
5.745:498
5.745:490
5.745:492
5.745:509
5.745:518
5.747:530
5.747:549
5.747:555
5.749:531
5.749:515
5.749:521
5.749:504
5.749:491
5.749:517
5.752:531
5.752:534
5.752:523
5.752:480
5.752:468
5.752:471
5.752:452
5.752:439
5.752:411
5.752:385
5.773:357
5.773:319
5.773:271
5.773:225
5.773:196
5.773:168
5.773:133
5.773:86
5.777:38
5.777:20
5.777:17
5.777:17
5.777:17
5.777:18
5.777:18
5.777:18
5.777:18
5.777:18
5.777:18
5.777:18
5.781:19
5.781:19
5.781:19
5.781:18
5.781:18
5.781:17
5.781:17
5.781:17
5.781:85
5.781:192
5.801:192
5.801:278
5.801:367
5.801:496
5.801:598
5.801:671
5.801:727
5.804:727
5.804:705
5.806:696
5.806:667
5.806:645
5.806:633
5.806:624
5.806:628
5.806:639
5.810:637
5.810:625
5.810:612
5.810:597
5.810:584
5.810:577
5.810:559
5.810:545
5.810:553
5.810:569
5.814:589
5.814:593
5.814:576
5.814:569
5.829:569
5.829:567
5.829:570
5.834:585
5.834:623
5.834:624
5.834:607
5.834:582
5.834:568
5.834:565
5.834:567
5.834:562
5.834:562
5.839:581
5.839:594
5.839:598
5.839:606
5.839:614
5.839:606
5.839:598
5.839:602
5.839:618
5.839:636
5.842:617
5.842:581
5.842:567
5.842:549
5.842:545
5.842:550
5.842:565
5.858:565
5.858:569
5.863:540
5.863:529
5.863:536
5.863:544
5.863:573
5.863:585
5.863:584
5.863:576
5.863:557
5.863:552
5.867:589
5.867:591
5.867:589
5.867:604
5.867:605
5.867:585
5.867:559
5.867:541
5.867:534
5.867:542
5.871:546
5.871:538
5.871:529
5.871:541
5.871:542
5.871:528
5.871:526
5.871:530
5.891:545
5.891:559
5.891:547
5.891:557
5.891:567
5.891:564
5.891:546
5.891:540
5.891:530
5.896:493
5.896:521
5.896:548
5.896:536
5.896:509
5.896:490
5.896:493
5.896:504
5.896:508
5.899:503
5.899:505
5.899:506
5.899:515
5.899:510
5.900:501
5.900:509
5.900:533
5.900:540
5.900:528
5.904:509
5.904:494
5.920:494
5.920:498
5.920:512
5.920:536
5.920:539
5.920:530
5.920:510
5.920:505
5.924:503
5.924:499
5.924:495
5.924:491
5.924:475
5.924:457
5.924:444
5.924:451
5.924:456
5.929:480
5.929:504
5.929:495
5.929:511
5.929:506
5.929:480
5.929:499
5.929:527
5.929:540
5.929:546
5.932:532
5.932:522
5.932:503
5.948:493
5.948:481
5.949:486
5.949:481
5.949:474
5.953:470
5.953:474
5.953:469
5.953:451
5.953:446
5.953:449
5.953:455
5.954:458
5.954:448
5.957:433
5.957:428
5.957:431
5.957:436
5.957:442
5.958:452
5.958:455
5.958:462
5.958:456
5.958:446
5.961:436
5.961:421
5.961:404
5.961:411
5.961:419
5.961:429
5.977:429
5.977:443
5.977:449
5.977:446
5.981:439
5.981:428
5.982:412
5.982:424
5.982:430
5.982:417
5.982:409
5.982:416
5.982:419
5.986:396
5.986:392
5.986:393
5.986:402
5.986:415
5.986:422
5.986:427
5.986:426
5.986:416
5.986:412
5.990:396
5.990:399
5.990:398
5.990:400
5.990:415
5.990:426
5.990:426
6.006:403
6.010:389
6.010:406
6.010:434
6.010:456
6.010:480
6.010:497
6.010:495
6.010:465
6.010:454
6.015:436
6.015:411
6.015:408
6.015:421
6.016:449
6.016:489
6.016:518
6.016:521
6.016:505
6.016:477
6.019:491
6.019:485
6.019:497
6.019:518
6.019:529
6.019:549
6.019:562
6.019:571
6.020:564
6.022:549
6.039:549
6.039:534
6.039:533
6.040:538
6.040:548
6.040:549
6.040:527
6.040:513
6.040:521
6.043:553
6.043:575
6.043:590
6.043:595
6.043:593
6.043:585
6.043:577
6.043:562
6.044:525
6.044:553
6.047:577
6.047:589
6.047:576
6.048:599
6.048:585
6.049:562
6.049:540
6.049:560
6.049:598
6.050:610
6.051:610
6.067:609
6.067:598
6.068:592
6.068:592
6.068:601
6.068:624
6.072:627
6.072:610
6.072:593
6.072:590
6.072:610
6.072:617
6.072:604
6.072:593
6.072:573
6.072:597
6.075:614
6.075:605
6.075:591
6.076:595
6.076:583
6.076:572
6.076:576
6.076:581
6.076:593
6.080:591
6.080:583
6.080:589
6.080:591
6.080:579
6.096:579
6.096:559
6.096:537
6.096:542
6.096:554
6.101:555
6.101:589
6.101:615
6.101:615
6.101:612
6.101:600
6.101:593
6.101:605
6.101:607
6.101:596
6.105:593
6.105:588
6.105:585
6.105:581
6.105:585
6.105:581
6.105:574
6.106:574
6.106:575
6.109:584
6.109:575
6.109:566
6.109:559
6.109:555
6.109:553
6.124:553
6.124:563
6.129:586
6.129:613
6.129:621
6.129:609
6.129:570
6.129:550
6.129:551
6.129:556
6.129:557
6.130:563
6.133:552
6.133:543
6.133:552
6.133:549
6.133:535
6.133:530
6.133:518
6.133:511
6.133:513
6.137:518
6.137:515
6.137:516
6.137:535
6.137:547
6.138:540
6.138:539
6.138:536
6.138:520
6.153:520
6.158:522
6.158:521
6.158:512
6.158:511
6.158:520
6.158:528
6.158:541
6.158:548
6.158:552
6.158:545
6.161:535
6.161:526
6.161:520
6.162:531
6.162:544
6.162:545
6.162:524
6.162:532
6.162:542
6.166:539
6.166:541
6.166:552
6.166:566
6.166:552
6.166:527
6.166:495
6.166:491
6.166:503
6.166:513
6.186:517
6.186:521
6.186:510
6.186:514
6.186:549
6.186:552
6.186:529
6.191:522
6.191:528
6.191:536
6.191:537
6.191:524
6.191:524
6.191:532
6.191:536
6.191:534
6.191:529
6.195:524
6.195:519
6.195:523
6.195:527
6.195:530
6.195:532
6.195:537
6.195:535
6.195:527
6.195:514
6.198:516
6.199:538
6.199:541
6.215:541
6.215:541
6.215:532
6.215:529
6.215:522
6.216:501
6.216:492
6.218:496
6.218:512
6.219:521
6.219:525
6.219:530
6.219:536
6.219:544
6.219:549
6.219:553
6.223:543
6.223:536
6.223:529
6.223:535
6.223:540
6.223:541
6.223:536
6.223:525
6.224:515
6.224:496
6.227:482
6.227:477
6.227:482
6.227:483
6.243:484
6.243:482
6.243:479
6.247:481
6.247:499
6.248:519
6.248:524
6.248:517
6.248:509
6.249:509
6.249:501
6.249:493
6.249:482
6.252:484
6.252:501
6.252:503
6.252:520
6.252:542
6.252:554
6.252:550
6.253:543
6.253:546
6.256:545
6.256:531
6.256:506
6.256:506
6.256:516
6.256:519
6.256:526
6.257:530
6.271:530
6.271:523
6.276:516
6.276:512
6.276:518
6.276:517
6.276:516
6.276:509
6.277:496
6.277:497
6.277:505
6.277:531
6.281:551
6.281:538
6.281:525
6.281:527
6.282:542
6.282:547
6.282:551
6.282:549
6.282:533
6.282:513
6.284:503
6.285:508
6.285:528
6.285:525
6.285:497
6.285:501
6.285:527
6.285:525
6.305:506
6.305:485
6.305:470
6.305:484
6.305:539
6.305:600
6.305:638
6.305:633
6.305:608
6.309:567
6.309:525
6.309:507
6.309:524
6.309:519
6.309:519
6.309:529
6.309:534
6.309:522
6.313:505
6.313:506
6.313:507
6.313:509
6.313:498
6.313:480
6.313:491
6.313:510
6.313:523
6.313:534
6.317:569
6.317:593
6.333:593
6.333:586
6.333:558
6.333:557
6.333:554
6.333:522
6.333:503
6.334:504
6.338:507
6.338:517
6.338:526
6.338:549
6.338:547
6.338:514
6.338:511
6.338:525
6.338:526
6.342:531
6.342:525
6.342:521
6.342:521
6.342:525
6.342:523
6.342:512
6.342:497
6.342:470
6.342:443
6.346:439
6.346:444
6.346:432
6.362:513
6.362:570
6.362:566
6.363:538
6.363:527
6.366:540
6.366:593
6.366:624
6.366:602
6.366:560
6.366:519
6.367:515
6.367:511
6.367:514
6.371:521
6.371:519
6.371:507
6.371:495
6.371:510
6.371:508
6.371:480
6.372:465
6.372:466
6.372:501
6.375:544
6.375:546
6.375:547
6.375:522
6.375:487
6.375:480
6.390:480
6.390:503
6.390:515
6.390:502
6.395:491
6.396:483
6.396:489
6.396:494
6.396:492
6.396:494
6.396:495
6.396:497
6.397:492
6.399:503
6.399:529
6.400:566
6.400:592
6.400:569
6.400:528
6.400:494
6.400:486
6.400:490
6.401:493
6.403:496
6.403:488
6.403:482
6.403:472
6.403:470
6.403:468
6.405:497
6.419:522
6.423:537
6.423:514
6.423:532
6.423:554
6.423:545
6.423:511
6.423:495
6.423:502
6.423:529
6.428:548
6.428:555
6.428:531
6.428:507
6.428:487
6.428:489
6.428:494
6.428:491
6.428:481
6.428:475
6.431:469
6.432:471
6.432:463
6.432:454
6.432:470
6.432:501
6.432:515
6.432:520
6.432:519
6.436:497
6.453:497
6.453:493
6.453:504
6.453:503
6.453:498
6.453:495
6.453:497
6.453:497
6.453:496
6.457:486
6.457:481
6.457:479
6.457:484
6.457:497
6.457:504
6.457:496
6.457:470
6.457:452
6.457:435
6.461:431
6.461:452
6.461:473
6.461:495
6.461:507
6.461:509
6.461:498
6.461:482
6.461:477
6.464:476
6.465:476
6.481:484
6.481:487
6.481:482
6.481:481
6.482:479
6.482:481
6.485:475
6.485:463
6.486:463
6.486:470
6.486:464
6.486:449
6.486:443
6.486:445
6.486:438
6.486:433
6.489:438
6.489:445
6.489:426
6.489:401
6.489:412
6.489:435
6.489:447
6.490:455
6.490:461
6.494:464
6.494:472
6.494:462
6.494:452
6.494:443
6.509:443
6.509:442
6.510:446
6.510:448
6.510:445
6.514:425
6.514:397
6.514:376
6.514:404
6.514:453
6.515:470
6.515:474
6.515:507
6.515:522
6.515:512
6.518:505
6.518:498
6.518:510
6.518:511
6.518:500
6.518:493
6.518:466
6.518:475
6.518:506
6.522:543
6.522:554
6.522:537
6.522:501
6.522:464
6.522:455
6.538:455
6.538:479
6.543:499
6.543:498
6.543:493
6.543:473
6.543:511
6.543:551
6.543:546
6.543:521
6.543:505
6.547:511
6.547:513
6.547:489
6.547:478
6.547:485
6.547:492
6.547:510
6.548:519
6.548:506
6.548:478
6.551:478
6.551:508
6.551:524
6.551:527
6.551:515
6.551:482
6.551:473
6.551:504
6.551:537
6.567:537
6.571:543
6.571:542
6.571:536
6.571:511
6.571:487
6.571:486
6.571:498
6.571:498
6.571:490
6.572:480
6.575:476
6.575:490
6.575:493
6.575:480
6.575:481
6.575:511
6.575:529
6.575:530
6.575:526
6.580:537
6.580:531
6.580:511
6.580:495
6.580:492
6.580:496
6.580:486
6.580:469
6.580:495
6.580:502
6.600:485
6.600:479
6.600:490
6.600:499
6.600:544
6.600:562
6.600:522
6.604:473
6.604:469
6.604:476
6.604:486
6.604:486
6.604:485
6.604:492
6.604:513
6.604:519
6.604:504
6.608:489
6.608:491
6.608:488
6.608:475
6.608:476
6.608:486
6.608:490
6.608:488
6.608:498
6.612:501
6.612:489
6.612:494
6.612:487
6.628:487
6.628:467
6.628:467
6.629:477
6.629:484
6.629:476
6.629:452
6.632:444
6.633:467
6.633:494
6.633:491
6.633:496
6.633:506
6.633:506
6.633:528
6.633:545
6.637:519
6.637:523
6.637:559
6.637:537
6.637:491
6.637:449
6.638:416
6.638:404
6.638:388
6.638:365
6.640:324
6.640:306
6.640:274
6.640:224
6.657:168
6.657:113
6.657:60
6.657:19
6.661:17
6.661:17
6.661:17
6.661:18
6.662:18
6.662:18
6.662:18
6.662:19
6.662:19
6.662:19
6.662:19
6.662:19
6.665:19
6.665:19
6.665:19
6.665:19
6.665:18
6.665:18
6.665:18
6.665:17
6.665:17
6.665:76
6.665:177
6.669:278
6.669:402
6.669:516
6.685:516
6.685:612
6.690:676
6.690:709
6.690:728
6.690:737
6.690:721
6.690:686
6.690:640
6.690:607
6.690:592
6.690:586
6.694:590
6.694:584
6.694:568
6.694:552
6.694:551
6.694:563
6.694:567
6.694:563
6.694:553
6.694:546
6.698:564
6.698:573
6.698:541
6.698:557
6.698:615
6.698:612
6.698:574
6.698:544
6.719:548
6.719:565
6.719:593
6.719:618
6.719:613
6.719:598
6.719:582
6.719:576
6.719:571
6.723:562
6.723:561
6.723:559
6.723:549
6.723:565
6.723:581
6.723:580
6.723:570
6.723:551
6.727:553
6.727:543
6.727:527
6.727:514
6.728:519
6.728:534
6.728:546
6.728:556
6.728:556
6.728:546
6.731:547
6.732:550
6.746:550
6.746:554
6.746:544
6.746:544
6.746:567
6.747:572
6.747:577
6.747:563
6.752:539
6.752:530
6.752:518
6.752:513
6.752:518
6.752:499
6.752:484
6.752:487
6.752:485
6.756:480
6.756:475
6.756:497
6.756:523
6.756:533
6.756:527
6.756:512
6.756:501
6.756:489
6.756:494
6.760:513
6.760:525
6.760:531
6.776:526
6.776:521
6.776:514
6.776:498
6.776:482
6.780:467
6.780:478
6.780:507
6.780:529
6.780:525
6.780:494
6.780:460
6.780:458
6.780:468
6.784:468
6.784:461
6.784:453
6.784:460
6.784:482
6.784:488
6.784:472
6.784:461
6.784:444
6.784:433
6.788:440
6.788:436
6.788:432
6.788:451
6.788:450
6.788:440
6.804:440
6.804:440
6.804:454
6.804:463
6.809:475
6.809:485
6.809:497
6.809:507
6.809:517
6.809:497
6.809:469
6.809:441
6.810:433
6.813:431
6.813:434
6.813:444
6.813:443
6.813:448
6.813:454
6.813:447
6.813:430
6.813:408
6.814:395
6.817:395
6.817:417
6.817:439
6.817:451
6.818:450
6.818:445
6.818:423
6.833:412
6.837:402
6.837:408
6.837:419
6.837:435
6.837:459
6.837:471
6.837:438
6.837:383
6.837:372
6.842:385
6.842:374
6.842:368
6.842:384
6.842:404
6.842:411
6.842:392
6.842:365
6.842:350
6.843:346
6.845:363
6.845:379
6.845:383
6.845:364
6.845:340
6.845:334
6.846:346
6.846:364
6.846:376
6.849:375
6.866:375
6.866:358
6.866:359
6.866:371
6.866:371
6.866:372
6.866:371
6.866:380
6.866:375
6.870:368
6.870:361
6.870:349
6.870:336
6.870:335
6.870:328
6.870:317
6.870:343
6.870:349
6.870:340
6.874:319
6.874:342
6.874:365
6.874:367
6.874:394
6.874:395
6.874:367
6.874:352
6.874:357
6.878:375
6.878:401
6.894:424
6.894:446
6.894:468
6.894:448
6.894:410
6.894:371
6.899:370
6.899:374
6.899:380
6.899:390
6.899:398
6.899:427
6.899:443
6.899:438
6.899:419
6.900:436
6.903:459
6.903:464
6.903:467
6.903:475
6.903:506
6.903:513
6.903:495
6.903:475
6.903:472
6.907:468
6.907:461
6.907:454
6.907:467
6.907:480
6.922:480
6.922:473
6.922:496
6.922:522
6.922:516
6.927:504
6.927:498
6.927:484
6.927:494
6.927:514
6.927:541
6.928:556
6.928:558
6.928:558
6.928:553
6.931:539
6.931:525
6.931:517
6.931:517
6.931:516
6.931:528
6.932:536
6.932:532
6.932:522
6.934:526
6.934:547
6.934:550
6.936:536
6.936:541
6.936:546
6.951:555
6.951:565
6.956:570
6.956:571
6.956:579
6.956:561
6.956:543
6.956:538
6.956:544
6.956:544
6.956:541
6.960:528
6.960:516
6.960:530
6.960:539
6.960:550
6.960:557
6.960:551
6.960:548
6.960:545
6.960:539
6.964:533
6.964:535
6.964:538
6.965:529
6.965:537
6.965:555
6.965:571
6.965:576
6.965:565
6.980:565
6.985:553
6.985:552
6.985:541
6.985:526
6.985:515
6.985:518
6.985:529
6.985:530
6.985:538
6.986:572
6.989:581
6.989:554
6.989:520
6.989:502
6.989:502
6.989:516
6.989:527
6.989:517
6.989:513
6.993:514
6.993:514
6.993:519
6.993:530
6.993:525
6.993:506
6.993:505
6.993:509
6.993:524
6.993:532
7.013:529
7.013:527
7.013:524
7.013:525
7.013:522
7.013:515
7.013:513
7.018:508
7.018:512
7.018:502
7.018:447
7.018:437
7.018:499
7.018:520
7.018:491
7.018:459
7.018:452
7.022:462
7.022:456
7.022:463
7.022:480
7.022:493
7.022:513
7.022:535
7.022:556
7.022:563
7.026:561
7.026:536
7.026:504
7.026:476
7.042:476
7.042:469
7.042:473
7.042:479
7.042:487
7.042:496
7.046:483
7.046:461
7.046:457
7.046:441
7.046:433
7.046:429
7.046:439
7.046:458
7.047:477
7.047:483
7.050:486
7.050:490
7.050:482
7.050:483
7.050:473
7.050:459
7.050:457
7.050:480
7.050:497
7.050:491
7.053:474
7.053:479
7.053:488
7.054:473
7.070:459
7.070:445
7.070:454
7.075:467
7.075:466
7.075:458
7.075:446
7.075:448
7.076:425
7.076:417
7.076:452
7.076:486
7.076:491
7.079:469
7.079:454
7.079:462
7.079:475
7.079:470
7.079:458
7.079:450
7.079:452
7.079:438
7.083:456
7.083:467
7.083:461
7.083:437
7.083:410
7.083:383
7.083:377
7.083:398
7.099:398
7.099:442
7.104:464
7.104:447
7.104:438
7.104:436
7.104:436
7.104:425
7.104:431
7.104:439
7.104:446
7.104:456
7.107:454
7.107:453
7.107:446
7.107:439
7.107:424
7.108:413
7.108:417
7.108:418
7.108:413
7.112:408
7.112:407
7.112:408
7.112:414
7.112:415
7.112:417
7.112:415
7.112:434
7.112:460
7.132:468
7.132:463
7.132:437
7.132:438
7.132:461
7.132:469
7.132:465
7.132:442
7.132:420
7.136:405
7.136:410
7.136:413
7.136:419
7.136:427
7.136:420
7.136:403
7.136:392
7.136:401
7.141:426
7.141:451
7.141:473
7.141:457
7.141:428
7.141:415
7.141:416
7.141:402
7.141:400
7.141:405
7.144:416
7.144:416
7.160:416
7.160:452
7.160:454
7.160:422
7.160:378
7.160:376
7.160:383
7.160:411
7.165:443
7.165:450
7.165:453
7.165:463
7.165:463
7.165:452
7.165:440
7.165:438
7.165:455
7.169:469
7.169:456
7.169:430
7.169:419
7.169:417
7.169:414
7.169:416
7.169:396
7.169:420
7.169:439
7.173:445
7.173:451
7.173:440
7.189:433
7.189:428
7.189:437
7.189:439
7.189:437
7.193:450
7.193:447
7.193:432
7.193:435
7.193:455
7.193:453
7.193:433
7.193:400
7.193:404
7.197:416
7.198:414
7.198:409
7.198:413
7.198:426
7.198:445
7.198:469
7.198:462
7.198:447
7.198:444
7.201:431
7.201:417
7.201:399
7.201:389
7.201:418
7.202:448
7.218:448
7.218:453
7.218:441
7.218:426
7.222:419
7.222:406
7.222:407
7.222:405
7.222:415
7.222:434
7.222:458
7.222:467
7.223:478
7.227:469
7.227:440
7.227:400
7.227:369
7.227:357
7.227:378
7.227:426
7.227:449
7.227:445
7.228:444
7.231:437
7.231:444
7.231:453
7.231:448
7.231:429
7.231:424
7.232:433
7.246:434
7.251:446
7.251:437
7.251:442
7.251:450
7.251:450
7.251:449
7.251:431
7.251:411
7.251:432
7.255:447
7.255:449
7.256:466
7.256:453
7.256:417
7.256:386
7.256:380
7.256:404
7.256:440
7.256:438
7.259:429
7.259:421
7.259:411
7.259:400
7.259:374
7.260:386
7.260:402
7.260:405
7.260:446
7.263:472
7.279:472
7.279:453
7.279:432
7.279:422
7.279:434
7.279:449
7.279:456
7.279:444
7.279:427
7.284:429
7.284:446
7.284:452
7.284:447
7.284:446
7.284:439
7.284:424
7.284:424
7.284:417
7.284:418
7.287:417
7.287:417
7.287:420
7.287:427
7.288:439
7.288:438
7.288:434
7.288:438
7.288:446
7.292:442
7.292:436
7.308:432
7.308:433
7.308:445
7.308:426
7.308:399
7.308:403
7.313:407
7.313:417
7.313:435
7.313:426
7.313:419
7.313:423
7.313:426
7.313:417
7.313:435
7.317:440
7.317:402
7.317:366
7.317:367
7.317:376
7.317:392
7.317:429
7.317:464
7.317:471
7.317:458
7.321:445
7.321:442
7.321:444
7.321:431
7.321:423
7.337:423
7.337:434
7.337:438
7.337:426
7.337:431
7.341:454
7.341:454
7.341:431
7.341:402
7.341:387
7.341:399
7.341:423
7.341:435
7.341:448
7.341:451
7.345:449
7.345:437
7.345:419
7.345:426
7.345:410
7.345:410
7.345:422
7.345:430
7.345:451
7.349:463
7.349:451
7.349:430
7.349:410
7.349:416
7.349:423
7.365:431
7.365:431
7.370:426
7.370:422
7.370:419
7.370:417
7.370:420
7.370:436
7.370:436
7.370:430
7.370:403
7.374:388
7.374:382
7.374:385
7.374:391
7.374:399
7.374:419
7.374:434
7.374:431
7.374:405
7.374:402
7.378:419
7.378:426
7.378:423
7.378:415
7.378:407
7.378:407
7.378:412
7.378:419
7.378:417
7.394:417
7.398:410
7.398:415
7.398:412
7.399:384
7.399:362
7.399:344
7.399:348
7.399:359
7.399:361
7.402:382
7.402:415
7.402:421
7.402:419
7.402:432
7.402:423
7.402:387
7.402:362
7.402:374
7.403:375
7.407:371
7.407:368
7.407:373
7.408:371
7.408:376
7.408:382
7.408:379
7.408:395
7.408:421
7.408:432
7.427:433
7.427:428
7.427:422
7.427:416
7.427:406
7.427:381
7.427:397
7.431:442
7.432:442
7.432:412
7.432:392
7.432:366
7.432:393
7.432:435
7.432:446
7.432:452
7.432:435
7.436:420
7.436:395
7.436:421
7.436:453
7.436:465
7.436:459
7.436:452
7.436:452
7.437:448
7.439:453
7.439:463
7.440:455
7.440:441
7.455:441
7.455:433
7.455:425
7.455:435
7.456:432
7.456:414
7.460:425
7.460:450
7.460:474
7.460:479
7.460:456
7.460:433
7.460:427
7.461:432
7.461:446
7.461:460
7.464:472
7.465:467
7.465:452
7.465:429
7.465:423
7.465:423
7.465:403
7.465:428
7.465:449
7.468:456
7.468:464
7.468:463
7.468:443
7.468:440
7.484:445
7.484:455
7.484:499
7.489:542
7.489:533
7.489:512
7.489:495
7.489:489
7.489:489
7.489:469
7.489:453
7.489:448
7.489:448
7.493:450
7.493:438
7.493:433
7.493:428
7.493:425
7.493:430
7.493:431
7.493:460
7.493:454
7.496:445
7.497:443
7.497:454
7.497:462
7.497:459
7.497:460
7.497:477
7.499:476
7.513:476
7.513:467
7.517:447
7.517:438
7.517:443
7.517:451
7.517:461
7.518:448
7.518:407
7.518:407
7.518:434
7.518:455
7.521:448
7.521:417
7.521:434
7.522:440
7.522:432
7.522:430
7.522:449
7.523:467
7.523:465
7.525:467
7.525:466
7.525:481
7.525:478
7.526:477
7.526:477
7.527:471
7.527:461
7.527:447
7.544:435
7.544:447
7.544:478
7.544:507
7.544:508
7.546:493
7.546:471
7.546:455
7.546:438
7.549:424
7.549:408
7.549:386
7.549:360
7.549:344
7.549:332
7.549:292
7.549:240
7.549:192
7.554:174
7.554:184
7.554:210
7.554:165
7.554:73
7.554:17
7.554:17
7.554:17
7.554:17
7.554:18
7.554:18
7.558:18
7.574:18
7.574:19
7.574:19
7.574:19
7.574:19
7.574:20
7.574:20
7.575:19
7.575:20
7.575:19
7.579:19
7.579:18
7.579:18
7.579:17
7.579:17
7.579:32
7.579:145
7.579:269
7.579:397
7.579:510
7.579:605
7.582:655
7.583:673
7.583:679
7.583:667
7.583:647
7.583:615
7.583:590
7.583:574
7.583:576
7.602:588
7.602:580
7.603:556
7.603:548
7.603:544
7.607:523
7.607:526
7.607:541
7.607:561
7.607:540
7.607:530
7.607:547
7.608:564
7.608:553
7.612:556
7.612:560
7.612:564
7.612:576
7.612:587
7.612:575
7.612:564
7.612:553
7.612:547
7.612:543
7.615:551
7.615:543
7.615:528
7.615:538
7.615:552
7.615:572
7.631:572
7.631:587
7.631:584
7.631:586
7.636:571
7.636:553
7.636:546
7.636:546
7.636:550
7.636:556
7.636:559
7.636:570
7.636:564
7.640:542
7.640:535
7.640:520
7.640:509
7.640:505
7.640:507
7.640:524
7.640:533
7.640:525
7.640:501
7.643:494
7.643:493
7.644:490
7.644:505
7.644:517
7.644:505
7.644:496
7.664:487
7.665:491
7.665:481
7.665:490
7.665:508
7.665:508
7.665:497
7.665:507
7.665:519
7.665:509
7.669:501
7.669:473
7.669:447
7.669:472
7.669:489
7.669:496
7.669:516
7.669:536
7.669:514
7.669:463
7.673:434
7.673:435
7.673:450
7.673:469
7.673:482
7.673:482
7.673:484
7.673:500
7.673:509
7.677:509
7.693:509
7.693:502
7.693:490
7.693:488
7.693:495
7.693:512
7.693:511
7.694:491
7.694:484
7.698:476
7.698:441
7.698:411
7.698:409
7.698:416
7.698:434
7.698:457
7.699:473
7.699:472
7.699:460
7.701:446
7.701:438
7.701:428
7.701:435
7.701:468
7.702:461
7.702:445
7.702:448
7.702:445
7.705:436
7.705:437
7.721:430
7.722:445
7.722:454
7.722:445
7.722:427
7.722:413
7.726:423
7.726:461
7.726:481
7.726:464
7.726:431
7.726:395
7.726:386
7.727:393
7.727:402
7.731:404
7.731:409
7.732:438
7.732:442
7.732:441
7.732:445
7.732:442
7.732:431
7.732:422
7.733:409
7.734:402
7.734:382
7.734:381
7.734:409
7.734:431
7.750:431
7.750:440
7.750:446
7.750:441
7.750:430
7.755:428
7.755:414
7.755:395
7.755:375
7.755:342
7.755:338
7.755:335
7.755:334
7.755:347
7.755:352
7.758:349
7.759:346
7.759:340
7.759:345
7.759:373
7.759:376
7.759:376
7.759:391
7.759:416
7.763:414
7.763:391
7.763:371
7.763:361
7.763:338
7.763:312
7.778:316
7.778:339
7.783:349
7.784:345
7.784:342
7.784:333
7.784:336
7.784:349
7.784:366
7.784:370
7.784:351
7.787:344
7.787:329
7.788:346
7.788:357
7.788:357
7.788:354
7.788:372
7.788:409
7.788:432
7.788:409
7.792:391
7.792:404
7.792:403
7.792:405
7.792:403
7.792:391
7.793:390
7.793:397
7.793:419
7.807:419
7.812:431
7.812:432
7.812:412
7.812:429
7.812:437
7.813:435
7.813:430
7.813:441
7.813:461
7.816:461
7.816:457
7.816:457
7.816:469
7.816:491
7.817:512
7.817:514
7.817:493
7.817:499
7.817:496
7.820:506
7.820:506
7.820:517
7.820:509
7.820:510
7.820:523
7.821:532
7.821:543
7.821:550
7.821:559
7.840:566
7.840:577
7.840:557
7.840:526
7.840:509
7.841:530
7.841:559
7.845:577
7.845:567
7.845:545
7.845:543
7.845:542
7.845:551
7.845:553
7.845:559
7.845:563
7.845:561
7.849:564
7.849:568
7.849:562
7.849:550
7.849:563
7.849:568
7.849:563
7.849:554
7.849:563
7.853:560
7.853:566
7.853:552
7.853:544
7.869:544
7.869:542
7.869:551
7.869:591
7.869:633
7.869:637
7.874:621
7.874:593
7.874:574
7.874:566
7.874:550
7.874:546
7.874:546
7.874:556
7.874:569
7.874:582
7.877:574
7.877:564
7.877:572
7.877:564
7.877:541
7.877:505
7.877:512
7.877:529
7.877:529
7.881:545
7.881:552
7.881:561
7.881:567
7.881:548
7.897:533
7.897:530
7.897:549
7.902:583
7.902:594
7.902:581
7.902:559
7.902:546
7.902:543
7.902:541
7.902:520
7.902:525
7.902:529
7.906:529
7.906:539
7.906:537
7.906:532
7.906:548
7.906:543
7.906:538
7.906:547
7.906:541
7.910:531
7.910:514
7.910:506
7.910:502
7.910:508
7.910:522
7.910:533
7.910:529
7.926:529
7.926:531
7.930:546
7.930:543
7.930:543
7.931:529
7.931:530
7.931:523
7.931:513
7.931:524
7.931:526
7.931:514
7.935:482
7.935:467
7.935:474
7.935:490
7.935:504
7.935:520
7.935:504
7.935:500
7.935:509
7.939:508
7.939:505
7.939:522
7.939:547
7.939:550
7.939:553
7.939:537
7.939:529
7.939:523
7.959:526
7.959:538
7.959:535
7.960:521
7.960:505
7.960:501
7.960:500
7.960:497
7.960:501
7.963:504
7.964:501
7.964:502
7.964:514
7.964:508
7.964:516
7.964:508
7.964:484
7.964:467
7.967:452
7.967:452
7.967:469
7.967:477
7.967:473
7.967:488
7.967:501
7.967:511
7.968:514
7.968:521
7.971:512
7.971:479
7.987:479
7.987:452
7.987:453
7.987:487
7.987:530
7.987:533
7.988:515
7.988:517
7.991:526
7.991:526
7.991:511
7.992:489
7.992:476
7.992:461
7.992:473
7.992:481
7.992:480
7.996:475
7.996:469
7.996:480
7.997:490
7.997:484
7.997:488
7.997:507
7.997:512
7.997:488
7.997:466
8.000:478
8.000:497
8.000:493
8.016:496
8.016:490
8.016:471
8.016:450
8.021:447
8.021:449
8.021:425
8.021:432
8.021:451
8.021:455
8.021:462
8.021:479
8.021:527
8.021:544
8.025:518
8.025:476
8.025:451
8.025:449
8.025:443
8.025:465
8.025:524
8.025:547
8.025:543
8.026:516
8.029:502
8.029:495
8.029:492
8.029:485
8.029:484
8.029:478
8.045:478
8.045:473
8.045:475
8.045:480
8.049:476
8.050:468
8.050:477
8.050:470
8.050:471
8.050:474
8.050:479
8.050:457
8.050:457
8.054:473
8.054:478
8.054:475
8.054:471
8.054:469
8.054:457
8.054:451
8.054:459
8.054:476
8.054:471
8.057:480
8.057:500
8.057:504
8.057:497
8.057:484
8.057:485
8.057:497
8.078:494
8.078:479
8.078:458
8.078:442
8.078:440
8.078:454
8.078:467
8.078:487
8.078:492
8.078:506
8.082:510
8.082:502
8.082:507
8.083:510
8.083:506
8.083:481
8.083:506
8.083:536
8.083:546
8.086:527
8.086:508
8.086:497
8.086:480
8.086:451
8.086:451
8.086:458
8.086:452
8.087:446
8.087:442
8.090:428
8.106:428
8.106:416
8.106:424
8.106:462
8.106:501
8.106:534
8.107:536
8.107:529
8.107:523
8.110:535
8.110:537
8.110:533
8.110:521
8.110:503
8.110:479
8.110:455
8.110:445
8.111:451
8.111:463
8.114:475
8.114:491
8.114:506
8.114:508
8.114:483
8.114:450
8.114:446
8.114:452
8.114:472
8.119:489
8.119:499
8.134:518
8.134:525
8.134:506
8.134:482
8.134:469
8.134:459
8.140:468
8.140:483
8.140:493
8.140:495
8.140:499
8.140:504
8.140:511
8.140:514
8.140:511
8.144:511
8.144:500
8.144:483
8.144:473
8.144:473
8.144:461
8.144:435
8.144:439
8.144:477
8.144:514
8.147:507
8.147:495
8.147:499
8.147:505
8.147:489
8.164:489
8.164:468
8.164:457
8.164:477
8.164:500
8.168:510
8.168:519
8.168:533
8.168:544
8.168:525
8.168:512
8.168:516
8.168:514
8.168:496
8.172:489
8.172:488
8.172:488
8.172:483
8.173:462
8.173:465
8.173:482
8.173:488
8.173:486
8.173:474
8.176:476
8.176:473
8.176:472
8.176:491
8.177:520
8.177:520
8.192:512
8.192:502
8.196:484
8.196:492
8.196:509
8.196:509
8.196:485
8.196:464
8.196:438
8.196:465
8.196:495
8.201:507
8.201:502
8.201:504
8.201:515
8.201:520
8.201:520
8.201:509
8.201:505
8.201:499
8.201:495
8.205:482
8.205:477
8.205:467
8.205:485
8.205:503
8.205:509
8.205:497
8.205:492
8.206:496
8.220:496
8.226:497
8.226:496
8.226:495
8.226:489
8.226:483
8.226:476
8.226:487
8.226:498
8.226:498
8.230:489
8.230:484
8.230:491
8.230:494
8.231:480
8.231:481
8.231:478
8.231:449
8.231:439
8.231:440
8.234:458
8.234:481
8.234:486
8.234:485
8.234:521
8.234:520
8.234:528
8.234:539
8.234:531
8.237:512
8.254:483
8.254:473
8.254:486
8.254:496
8.254:501
8.254:496
8.254:478
8.258:462
8.258:454
8.258:455
8.258:457
8.258:494
8.258:536
8.258:544
8.258:524
8.258:512
8.258:515
8.261:509
8.261:498
8.262:494
8.262:495
8.262:502
8.262:506
8.262:506
8.262:495
8.262:485
8.266:480
8.266:462
8.266:466
8.266:482
8.282:482
8.283:482
8.283:473
8.283:472
8.283:471
8.283:460
8.287:445
8.287:438
8.287:450
8.287:476
8.287:511
8.287:535
8.287:516
8.287:479
8.287:451
8.287:433
8.291:428
8.291:460
8.291:465
8.291:452
8.291:470
8.291:488
8.291:497
8.291:504
8.291:504
8.295:498
8.295:489
8.295:487
8.295:484
8.295:485
8.311:480
8.311:472
8.311:462
8.316:445
8.316:457
8.316:468
8.316:471
8.316:464
8.316:439
8.316:420
8.316:409
8.316:402
8.316:405
8.319:432
8.319:460
8.319:477
8.319:472
8.320:459
8.320:459
8.320:473
8.320:480
8.320:477
8.324:469
8.324:455
8.324:431
8.324:447
8.324:468
8.324:451
8.324:438
8.324:442
8.339:442
8.339:444
8.344:454
8.344:454
8.344:454
8.344:450
8.344:450
8.344:445
8.344:460
8.344:471
8.344:456
8.344:453
8.348:463
8.348:493
8.348:519
8.348:505
8.348:472
8.348:444
8.348:452
8.348:467
8.348:487
8.353:491
8.353:495
8.353:509
8.353:516
8.353:514
8.353:508
8.353:491
8.353:482
8.353:489
8.373:481
8.373:473
8.373:491
8.373:497
8.373:511
8.373:522
8.373:520
8.374:535
8.374:529
8.376:517
8.376:512
8.376:505
8.376:500
8.377:491
8.377:488
8.377:495
8.377:474
8.377:468
8.381:480
8.381:494
8.381:508
8.381:521
8.381:532
8.381:533
8.381:531
8.382:519
8.382:499
8.382:476
8.384:475
8.385:467
8.401:467
8.401:470
8.401:488
8.401:524
8.401:547
8.401:540
8.401:527
8.402:526
8.404:522
8.406:509
8.406:498
8.406:482
8.406:462
8.406:489
8.406:503
8.406:536
8.406:572
8.410:569
8.410:537
8.410:502
8.410:478
8.410:477
8.410:479
8.410:487
8.410:496
8.410:496
8.410:496
8.413:497
8.413:476
8.413:459
8.430:488
8.430:538
8.430:553
8.430:535
8.435:521
8.435:511
8.435:505
8.435:501
8.435:515
8.435:512
8.435:502
8.435:493
8.435:481
8.435:471
8.439:470
8.439:470
8.439:479
8.439:486
8.439:503
8.439:512
8.439:532
8.439:534
8.439:527
8.442:523
8.442:533
8.442:529
8.442:501
8.442:483
8.442:498
8.442:499
8.458:499
8.458:490
8.458:487
8.459:486
8.463:512
8.463:546
8.463:554
8.463:549
8.463:543
8.463:527
8.463:507
8.464:500
8.464:498
8.467:484
8.467:456
8.467:432
8.467:408
8.468:367
8.468:317
8.468:259
8.468:229
8.468:213
8.468:195
8.471:200
8.471:163
8.471:97
8.471:38
8.471:17
8.471:17
8.471:17
8.487:17
8.491:17
8.491:18
8.491:18
8.491:19
8.491:19
8.491:19
8.491:19
8.491:19
8.491:19
8.491:19
8.491:19
8.491:19
8.494:18
8.496:18
8.496:17
8.496:38
8.496:116
8.496:194
8.496:294
8.497:412
8.497:525
8.497:638
8.500:706
8.500:740
8.500:748
8.500:715
8.500:686
8.500:667
8.500:655
8.520:655
8.520:638
8.520:608
8.520:588
8.520:582
8.520:593
8.520:614
8.520:622
8.520:604
8.524:585
8.524:578
8.524:586
8.524:603
8.525:609
8.525:599
8.525:603
8.525:613
8.525:614
8.525:595
8.528:578
8.529:567
8.529:561
8.529:568
8.529:573
8.529:579
8.529:576
8.529:569
8.529:557
8.532:560
8.532:550
8.548:546
8.548:555
8.548:568
8.549:584
8.549:615
8.549:641
8.553:630
8.553:594
8.553:577
8.553:571
8.553:577
8.553:594
8.553:602
8.553:593
8.553:568
8.557:548
8.557:537
8.557:541
8.557:547
8.557:541
8.557:546
8.557:557
8.557:553
8.557:543
8.557:546
8.561:566
8.561:565
8.561:567
8.561:564
8.562:547
8.577:547
8.577:534
8.577:523
8.577:518
8.577:517
8.582:511
8.582:495
8.582:485
8.582:497
8.582:528
8.582:544
8.582:555
8.582:592
8.583:613
8.586:594
8.586:550
8.586:525
8.586:512
8.586:483
8.586:481
8.586:490
8.586:485
8.587:485
8.587:479
8.590:472
8.590:465
8.590:468
8.590:484
8.590:494
8.590:498
8.606:514
8.606:532
8.610:537
8.610:542
8.610:534
8.610:533
8.610:530
8.610:523
8.610:505
8.610:489
8.610:493
8.615:483
8.615:469
8.615:468
8.615:454
8.615:451
8.615:466
8.615:476
8.615:485
8.615:485
8.615:467
8.619:436
8.619:437
8.619:450
8.619:449
8.619:444
8.619:455
8.619:462
8.619:453
8.619:443
8.634:443
8.639:443
8.639:446
8.639:459
8.639:477
8.639:491
8.639:494
8.639:483
8.639:473
8.639:465
8.643:469
8.643:473
8.643:467
8.643:461
8.643:464
8.643:458
8.643:446
8.643:452
8.643:446
8.643:435
8.647:431
8.647:424
8.647:428
8.647:424
8.647:418
8.647:407
8.648:396
8.648:389
8.648:391
8.651:402
8.668:431
8.668:445
8.668:436
8.668:423
8.668:421
8.668:430
8.668:434
8.672:445
8.672:443
8.672:418
8.672:391
8.672:381
8.672:371
8.672:353
8.672:334
8.672:329
8.672:339
8.675:354
8.676:375
8.676:401
8.676:424
8.676:424
8.676:391
8.676:361
8.676:346
8.676:365
8.680:397
8.680:413
8.680:402
8.680:378
8.696:378
8.696:363
8.697:354
8.697:355
8.697:350
8.697:357
8.701:371
8.701:374
8.701:369
8.701:355
8.701:348
8.701:355
8.701:363
8.702:363
8.702:367
8.702:368
8.705:374
8.705:389
8.705:407
8.705:418
8.705:414
8.705:409
8.705:375
8.706:362
8.706:364
8.709:366
8.709:379
8.709:395
8.709:390
8.709:379
8.724:374
8.724:386
8.724:405
8.729:431
8.730:454
8.730:449
8.730:453
8.730:451
8.730:456
8.730:447
8.730:445
8.730:449
8.730:453
8.733:451
8.733:452
8.733:471
8.733:463
8.733:463
8.733:472
8.733:478
8.733:467
8.733:458
8.737:473
8.737:494
8.737:518
8.737:542
8.737:567
8.737:577
8.737:578
8.737:563
8.753:563
8.753:538
8.757:520
8.757:518
8.757:516
8.757:531
8.757:548
8.757:554
8.758:557
8.758:555
8.758:554
8.758:560
8.761:567
8.761:565
8.761:564
8.761:568
8.761:575
8.761:574
8.761:560
8.761:565
8.761:582
8.766:603
8.766:611
8.766:604
8.766:595
8.766:574
8.766:567
8.766:567
8.766:574
8.766:566
8.786:569
8.786:590
8.786:613
8.786:629
8.786:596
8.786:546
8.786:529
8.786:538
8.791:534
8.791:521
8.791:520
8.791:523
8.791:535
8.791:548
8.791:553
8.791:548
8.791:541
8.791:531
8.795:535
8.795:540
8.795:536
8.795:535
8.795:533
8.795:539
8.795:549
8.795:544
8.795:533
8.795:539
8.798:545
8.798:556
8.814:556
8.814:558
8.814:550
8.814:558
8.814:553
8.814:542
8.814:533
8.814:537
8.819:537
8.819:512
8.819:503
8.819:523
8.819:536
8.819:532
8.819:530
8.819:530
8.819:552
8.823:558
8.823:537
8.823:516
8.823:521
8.824:529
8.824:529
8.824:524
8.824:525
8.824:536
8.824:528
8.826:517
8.827:497
8.827:457
8.843:461
8.843:479
8.843:507
8.843:526
8.847:545
8.847:550
8.847:550
8.847:535
8.847:544
8.847:553
8.847:543
8.847:524
8.848:494
8.848:486
8.852:512
8.852:520
8.852:515
8.852:506
8.852:494
8.852:486
8.852:483
8.852:494
8.852:508
8.856:526
8.856:522
8.856:496
8.856:499
8.856:506
8.856:505
8.856:500
8.871:500
8.871:494
8.871:498
8.877:503
8.877:497
8.877:494
8.877:485
8.877:466
8.877:462
8.877:458
8.877:466
8.877:473
8.877:474
8.881:477
8.881:490
8.881:488
8.881:487
8.881:511
8.881:528
8.881:516
8.881:505
8.881:509
8.881:511
8.885:504
8.885:502
8.885:502
8.885:491
8.885:460
8.885:445
8.885:453
8.905:453
8.905:451
8.905:463
8.906:485
8.906:487
8.906:488
8.906:487
8.906:479
8.906:465
8.906:450
8.910:442
8.910:444
8.910:439
8.910:447
8.910:455
8.910:452
8.910:440
8.910:431
8.910:448
8.913:459
8.913:470
8.913:476
8.913:476
8.913:482
8.913:487
8.913:478
8.913:469
8.913:478
8.913:493
8.916:500
8.934:500
8.934:488
8.934:478
8.934:479
8.934:469
8.934:461
8.934:464
8.934:468
8.934:470
8.938:473
8.938:461
8.938:449
8.938:437
8.938:435
8.938:435
8.938:439
8.938:446
8.938:451
8.942:453
8.942:440
8.942:444
8.942:475
8.942:484
8.942:483
8.942:469
8.942:449
8.942:444
8.942:448
8.945:465
8.946:484
8.963:481
8.963:470
8.963:453
8.963:440
8.963:434
8.963:437
8.966:440
8.966:445
8.966:460
8.966:457
8.966:460
8.968:458
8.968:462
8.968:454
8.968:445
8.971:447
8.971:439
8.971:436
8.971:435
8.971:434
8.971:435
8.971:442
8.971:440
8.971:440
8.972:442
8.975:459
8.975:466
8.975:468
8.975:477
8.975:482
8.990:482
8.990:482
8.990:479
8.991:488
8.991:497
8.996:483
8.996:473
8.996:472
8.996:475
8.997:482
8.997:485
8.997:489
8.997:492
8.997:470
8.999:459
8.999:458
8.999:455
8.999:441
8.999:439
8.999:447
8.999:457
8.999:467
8.999:462
8.999:460
9.004:493
9.004:515
9.004:503
9.004:473
9.004:451
9.004:446
9.019:439
9.019:432
9.023:430
9.023:444
9.023:458
9.023:457
9.023:463
9.023:464
9.023:451
9.023:456
9.023:476
9.028:484
9.028:471
9.028:438
9.028:447
9.028:505
9.028:509
9.028:494
9.028:482
9.028:472
9.029:470
9.031:460
9.031:473
9.032:494
9.032:480
9.032:454
9.032:441
9.032:434
9.032:437
9.032:440
9.048:440
9.053:439
9.053:443
9.053:445
9.053:456
9.053:469
9.053:481
9.053:491
9.053:499
9.053:494
9.057:469
9.057:460
9.057:471
9.057:468
9.057:446
9.057:429
9.057:435
9.057:461
9.057:455
9.057:441
9.061:455
9.061:492
9.061:521
9.061:518
9.061:502
9.061:470
9.061:446
9.061:450
9.061:471
9.065:488
9.081:496
9.081:495
9.081:478
9.081:470
9.081:449
9.081:445
9.082:452
9.085:453
9.085:447
9.085:434
9.085:423
9.086:446
9.086:457
9.086:463
9.086:479
9.086:496
9.086:501
9.089:497
9.089:500
9.089:496
9.089:466
9.089:442
9.089:440
9.089:450
9.090:425
9.090:458
9.093:489
9.093:505
9.093:520
9.093:525
9.109:525
9.109:489
9.109:460
9.109:458
9.109:462
9.109:460
9.114:449
9.114:450
9.114:448
9.114:445
9.114:444
9.114:449
9.114:456
9.114:453
9.114:449
9.114:450
9.118:453
9.118:461
9.118:474
9.118:484
9.118:493
9.118:496
9.118:506
9.118:528
9.118:501
9.122:475
9.122:470
9.122:469
9.122:464
9.122:464
9.138:461
9.138:455
9.138:443
9.143:430
9.143:428
9.143:430
9.143:441
9.143:457
9.143:470
9.143:477
9.143:494
9.143:496
9.143:477
9.146:474
9.146:479
9.146:491
9.146:493
9.146:494
9.146:487
9.146:478
9.146:470
9.146:477
9.151:483
9.151:484
9.151:478
9.151:461
9.151:455
9.151:453
9.151:463
9.151:469
9.166:469
9.167:459
9.172:452
9.172:474
9.172:492
9.172:492
9.172:489
9.172:487
9.172:487
9.172:490
9.172:489
9.172:488
9.175:472
9.175:455
9.175:439
9.175:432
9.175:432
9.175:456
9.175:463
9.175:464
9.175:467
9.180:460
9.180:457
9.180:446
9.180:444
9.180:463
9.180:470
9.180:490
9.180:500
9.180:479
9.200:466
9.200:452
9.200:464
9.200:474
9.200:470
9.200:464
9.200:468
9.200:476
9.204:479
9.204:478
9.204:479
9.204:481
9.204:488
9.204:471
9.204:463
9.204:452
9.204:457
9.204:485
9.208:488
9.208:469
9.208:454
9.208:445
9.208:440
9.208:442
9.208:439
9.208:443
9.208:445
9.212:448
9.212:446
9.212:451
9.228:451
9.228:470
9.228:482
9.229:469
9.229:426
9.229:403
9.229:417
9.229:429
9.232:442
9.232:448
9.232:455
9.232:460
9.232:450
9.232:441
9.232:435
9.232:429
9.233:428
9.237:424
9.237:418
9.237:417
9.237:415
9.237:419
9.238:426
9.238:435
9.238:447
9.238:469
9.238:477
9.240:513
9.240:526
9.240:500
9.256:459
9.256:435
9.256:434
9.256:440
9.262:440
9.262:440
9.262:442
9.263:443
9.263:444
9.263:424
9.263:413
9.263:417
9.263:437
9.263:453
9.266:457
9.266:457
9.266:453
9.266:437
9.266:429
9.266:434
9.266:435
9.266:449
9.266:465
9.270:451
9.270:454
9.270:460
9.270:468
9.270:487
9.270:503
9.270:511
9.286:511
9.286:531
9.286:539
9.290:529
9.290:516
9.290:474
9.290:446
9.290:434
9.290:471
9.290:536
9.290:547
9.290:520
9.290:503
9.294:493
9.294:481
9.294:452
9.294:451
9.294:433
9.294:432
9.294:467
9.294:511
9.295:550
9.296:565
9.298:549
9.298:534
9.298:533
9.298:530
9.298:523
9.298:509
9.298:516
9.319:520
9.319:504
9.319:492
9.319:496
9.319:493
9.319:500
9.319:503
9.319:505
9.319:497
9.319:496
9.323:502
9.323:513
9.323:517
9.323:523
9.323:546
9.323:553
9.323:544
9.323:538
9.323:531
9.327:511
9.327:478
9.327:444
9.327:428
9.327:445
9.327:472
9.327:495
9.327:504
9.327:518
9.327:522
9.330:516
9.347:516
9.347:521
9.347:520
9.347:512
9.347:497
9.347:487
9.347:489
9.347:505
9.347:530
9.352:535
9.352:526
9.352:502
9.352:483
9.352:481
9.352:498
9.352:504
9.352:504
9.352:496
9.356:505
9.356:505
9.356:515
9.356:514
9.356:503
9.356:504
9.356:498
9.356:488
9.356:495
9.356:521
9.360:551
9.360:564
9.376:554
9.376:530
9.376:520
9.376:532
9.376:539
9.376:529
9.380:537
9.380:541
9.380:550
9.380:546
9.380:526
9.380:504
9.380:460
9.381:448
9.381:466
9.384:465
9.384:473
9.384:456
9.384:412
9.384:375
9.384:337
9.384:302
9.384:258
9.384:208
9.384:172
9.388:123
9.388:91
9.388:38
9.388:17
9.388:17
9.404:17
9.404:17
9.404:17
9.404:17
9.404:18
9.404:19
9.409:18
9.409:19
9.409:19
9.409:19
9.409:19
9.409:19
9.409:19
9.409:19
9.409:18
9.409:18
9.409:18
9.409:17
9.413:17
9.413:100
9.413:193
9.413:282
9.413:385
9.413:492
9.413:595
9.413:711
9.413:788
9.413:794
9.417:746
9.417:725
9.432:710
9.432:699
9.437:688
9.437:675
