0.001:580
0.001:563
0.001:567
0.002:568
0.002:575
0.002:586
0.002:599
0.002:597
0.002:598
0.003:599
0.003:595
0.004:599
0.004:593
0.004:580
0.004:581
0.004:593
0.005:591
0.005:591
0.005:603
0.005:607
0.005:604
0.005:614
0.005:631
0.006:634
0.006:612
0.006:608
0.006:611
0.006:611
0.007:605
0.007:601
0.007:586
0.007:581
0.007:599
0.007:606
0.008:593
0.008:596
0.008:609
0.008:600
0.008:590
0.009:590
0.009:594
0.009:590
0.009:579
0.009:578
0.009:592
0.010:599
0.010:581
0.010:561
0.010:565
0.011:575
0.011:579
0.011:590
0.012:575
0.012:551
0.012:563
0.012:574
0.013:575
0.013:574
0.013:576
0.013:582
0.013:586
0.014:578
0.014:576
0.014:580
0.014:577
0.015:577
0.015:577
0.015:568
0.015:557
0.015:547
0.016:552
0.016:564
0.016:569
0.016:569
0.017:568
0.017:561
0.017:554
0.017:552
0.017:548
0.018:546
0.018:550
0.018:554
0.018:555
0.019:558
0.019:579
0.019:579
0.019:566
0.019:566
0.020:556
0.020:548
0.020:552
0.020:550
0.020:531
0.021:525
0.021:513
0.021:509
0.021:521
0.022:539
0.022:565
0.022:581
0.022:578
0.022:567
0.023:552
0.023:534
0.023:519
0.023:534
0.024:526
0.024:521
0.024:532
0.024:545
0.024:549
0.025:551
0.025:545
0.025:529
0.025:522
0.025:523
0.026:538
0.026:560
0.026:559
0.028:530
0.029:507
0.029:509
0.029:492
0.030:504
0.030:526
0.030:532
0.031:525
0.031:514
0.031:513
0.032:513
0.032:508
0.032:510
0.033:515
0.033:523
0.033:525
0.033:527
0.033:528
0.033:524
0.034:524
0.034:516
0.034:506
0.034:501
0.034:506
0.035:508
0.035:513
0.035:515
0.035:509
0.035:509
0.035:510
0.036:508
0.036:510
0.036:512
0.036:519
0.036:521
0.037:515
0.037:516
0.037:523
0.037:521
0.037:511
0.037:505
0.038:508
0.038:517
0.038:514
0.038:509
0.038:507
0.039:503
0.039:498
0.039:500
0.039:499
0.039:493
0.039:490
0.040:489
0.040:490
0.040:500
0.040:508
0.040:507
0.040:510
0.041:511
0.041:509
0.041:505
0.041:496
0.041:491
0.042:498
0.042:502
0.042:504
0.042:498
0.042:495
0.043:495
0.043:493
0.043:489
0.043:492
0.045:500
0.045:500
0.045:501
0.045:497
0.045:497
0.045:491
0.045:493
0.046:500
0.046:500
0.046:501
0.046:500
0.046:504
0.046:509
0.047:512
0.047:518
0.047:518
0.047:518
0.048:504
0.048:502
0.048:499
0.048:496
0.048:496
0.049:495
0.049:495
0.049:498
0.049:502
0.049:503
0.049:509
0.050:508
0.050:509
0.050:509
0.050:500
0.050:501
0.051:501
0.051:493
0.051:488
0.051:490
0.051:483
0.051:472
0.052:466
0.052:471
0.052:472
0.052:466
0.052:472
0.053:482
0.053:493
0.053:501
0.053:514
0.053:529
0.053:540
0.054:545
0.054:546
0.054:548
0.054:545
0.054:551
0.055:565
0.055:571
0.055:574
0.055:566
0.055:560
0.055:567
0.056:559
0.056:552
0.056:547
0.056:553
0.056:556
0.057:565
0.057:564
0.057:565
0.057:565
0.057:585
0.057:621
0.058:633
0.058:614
0.058:567
0.058:537
0.058:537
0.059:511
0.059:487
0.059:466
0.059:465
0.059:485
0.059:524
0.060:551
0.060:531
0.060:505
0.062:507
0.062:532
0.063:524
0.063:473
0.063:414
0.063:403
0.063:411
0.064:384
0.064:340
0.064:355
0.064:375
0.065:405
0.065:443
0.065:472
0.065:515
0.065:530
0.066:505
0.066:472
0.066:458
0.066:434
0.066:420
0.066:382
0.067:342
0.067:325
0.067:363
0.067:416
0.067:440
0.068:453
0.068:490
0.068:524
0.068:528
0.068:518
0.068:512
0.069:496
0.069:518
0.069:540
0.069:510
0.069:488
0.070:502
0.070:500
0.070:489
0.070:476
0.070:462
0.070:457
0.071:437
0.071:407
0.071:369
0.071:349
0.071:359
0.072:365
0.072:365
0.072:395
0.072:429
0.072:494
0.073:558
0.073:608
0.073:641
0.073:657
0.073:645
0.073:609
0.074:598
0.074:579
0.074:579
0.074:624
0.074:684
0.075:737
0.075:755
0.075:726
0.075:675
0.076:647
0.076:625
0.076:576
0.076:494
0.076:484
0.077:494
0.077:463
0.078:425
0.078:414
0.079:373
0.079:358
0.079:343
0.079:345
0.079:363
0.080:359
0.080:355
0.080:346
0.080:347
0.081:330
0.081:310
0.081:323
0.081:373
0.081:401
0.082:419
0.082:421
0.082:467
0.082:460
0.082:442
0.082:448
0.083:413
0.083:408
0.083:418
0.083:442
0.083:484
0.084:496
0.084:505
0.084:514
0.084:533
0.084:550
0.085:561
0.085:560
0.085:560
0.085:563
0.085:551
0.085:572
0.086:634
0.086:665
0.086:642
0.086:614
0.086:552
0.086:537
0.087:573
0.087:562
0.087:525
0.087:476
0.087:468
0.088:509
0.088:587
0.088:613
0.088:626
0.088:625
0.088:554
0.089:491
0.089:492
0.089:510
0.089:512
0.089:504
0.090:476
0.090:496
0.090:575
0.090:608
0.090:613
0.091:643
0.091:635
0.091:634
0.091:674
0.091:684
0.091:617
0.092:573
0.092:597
0.092:618
0.092:598
0.092:552
0.093:514
0.093:514
0.093:510
0.093:493
0.093:445
0.093:415
0.094:406
0.094:415
0.094:434
0.095:434
0.095:426
0.095:458
0.095:459
0.096:449
0.096:439
0.096:436
0.096:430
0.096:442
0.097:442
0.097:471
0.097:550
0.097:563
0.098:519
0.098:512
0.098:499
0.098:448
0.098:346
0.099:271
0.099:274
0.099:321
0.099:370
0.099:373
0.100:393
0.100:404
0.100:467
0.100:570
0.100:654
0.100:648
0.101:587
0.101:632
0.101:681
0.101:687
0.101:626
0.101:534
0.102:502
0.102:516
0.102:586
0.102:655
0.103:709
0.103:744
0.103:756
0.103:737
0.103:691
0.103:674
0.104:641
0.104:613
0.104:582
0.104:514
0.104:436
0.104:426
0.105:476
0.105:525
0.105:490
0.105:385
0.106:258
0.106:135
0.106:18
0.106:17
0.106:17
0.106:18
0.107:18
0.107:18
0.107:18
0.107:18
0.107:18
0.107:18
0.107:18
0.108:18
0.108:18
0.108:18
0.108:18
0.108:18
0.108:19
0.109:19
0.109:19
0.109:19
0.109:18
0.109:17
0.109:17
0.109:17
0.110:66
0.111:122
0.111:208
0.112:327
0.112:482
0.112:558
0.112:602
0.112:634
0.112:532
0.113:452
0.113:527
0.113:623
0.113:638
0.114:642
0.114:657
0.114:656
0.115:647
0.115:616
0.115:564
0.115:477
0.115:441
0.115:431
0.116:458
0.116:481
0.116:528
0.116:586
0.116:627
0.117:679
0.117:664
0.117:590
0.117:531
0.117:566
0.118:610
0.118:666
0.118:682
0.118:657
0.118:611
0.119:638
0.119:668
0.119:687
0.119:651
0.119:595
0.119:539
0.120:482
0.120:431
0.120:408
0.120:444
0.120:489
0.121:489
0.121:473
0.121:461
0.121:480
0.121:491
0.122:519
0.122:505
0.122:539
0.122:580
0.122:587
0.123:592
0.123:608
0.123:646
0.123:701
0.123:679
0.123:610
0.124:530
0.124:488
0.124:545
0.124:712
0.124:754
0.125:629
0.125:438
0.125:332
0.125:312
0.125:342
0.125:375
0.126:398
0.126:403
0.126:435
0.126:442
0.127:441
0.127:446
0.127:446
0.127:469
0.127:538
0.127:587
0.127:585
0.128:557
0.128:520
0.128:494
0.128:460
0.128:428
0.128:398
0.130:347
0.130:393
0.130:497
0.130:560
0.131:606
0.131:638
0.131:654
0.131:667
0.131:678
0.131:617
0.132:499
0.132:415
0.132:354
0.132:321
0.132:333
0.133:410
0.133:410
0.133:518
0.133:586
0.133:567
0.134:567
0.134:551
0.134:541
0.134:496
0.134:459
0.134:453
0.135:398
0.135:366
0.135:444
0.135:529
0.135:473
0.136:383
0.136:278
0.136:181
0.136:168
0.136:206
0.136:287
0.137:377
0.137:448
0.137:512
0.137:519
0.138:493
0.138:467
0.138:480
0.138:505
0.138:558
0.139:650
0.139:665
0.139:621
0.139:576
0.139:591
0.139:597
0.140:491
0.140:395
0.140:380
0.140:399
0.140:417
0.140:421
0.141:444
0.141:512
0.141:527
0.141:543
0.141:547
0.142:538
0.142:496
0.142:448
0.142:458
0.142:513
0.142:527
0.143:503
0.143:458
0.143:431
0.143:458
0.143:522
0.143:530
0.145:486
0.145:486
0.145:396
0.145:360
0.146:318
0.146:261
0.146:276
0.146:368
0.146:459
0.146:528
0.146:528
0.147:464
0.147:399
0.147:372
0.147:398
0.147:432
0.147:387
0.148:341
0.148:338
0.148:367
0.148:441
0.148:478
0.148:436
0.149:350
0.149:262
0.149:256
0.149:343
0.149:441
0.150:535
0.150:594
0.150:591
0.150:571
0.150:584
0.150:574
0.151:575
0.151:521
0.151:466
0.151:428
0.151:428
0.152:460
0.152:447
0.152:442
0.152:462
0.152:450
0.152:428
0.153:371
0.153:340
0.153:378
0.154:398
0.154:413
0.154:454
0.154:452
0.154:422
0.154:423
0.155:413
0.155:397
0.155:380
0.155:371
0.155:358
0.156:373
0.156:360
0.156:360
0.156:356
0.156:379
0.156:413
0.157:469
0.157:556
0.157:617
0.157:622
0.157:622
0.158:575
0.158:497
0.158:481
0.158:524
0.158:525
0.158:433
0.159:345
0.159:345
0.159:418
0.159:472
0.159:516
0.160:532
0.160:568
0.160:616
0.160:670
0.162:728
0.162:751
0.162:738
0.162:694
0.162:651
0.163:622
0.163:611
0.163:577
0.163:574
0.163:626
0.163:640
0.163:644
0.163:621
0.163:575
0.164:575
0.164:593
0.164:589
0.164:582
0.165:562
0.165:547
0.165:580
0.165:616
0.165:563
0.165:499
0.166:472
0.166:483
0.166:518
0.166:572
0.166:649
0.167:739
0.167:716
0.167:651
0.167:600
0.167:594
0.167:643
0.168:654
0.168:654
0.168:659
0.168:691
0.168:715
0.168:736
0.169:777
0.169:826
0.169:833
0.170:760
0.170:696
0.170:686
0.170:720
0.170:687
0.170:635
0.171:595
0.171:582
0.171:604
0.171:593
0.171:615
0.172:649
0.172:673
0.172:676
0.172:613
0.172:613
0.173:668
0.173:709
0.173:709
0.173:663
0.173:622
0.174:589
0.174:590
0.174:639
0.174:683
0.174:650
0.174:573
0.174:493
0.174:446
0.174:469
0.174:484
0.175:470
0.175:443
0.175:420
0.175:434
0.175:537
0.175:634
0.176:679
0.176:677
0.176:615
0.176:563
0.176:570
0.176:570
0.177:568
0.178:597
0.178:603
0.178:625
0.178:659
0.178:674
0.178:668
0.178:705
0.179:707
0.179:707
0.179:690
0.179:609
0.179:546
0.179:547
0.179:530
0.179:470
0.179:426
0.179:411
0.180:445
0.180:501
0.180:562
0.180:553
0.180:522
0.181:531
0.181:595
0.181:652
0.181:618
0.181:545
0.182:476
0.182:429
0.182:428
0.182:448
0.182:446
0.182:463
0.183:533
0.183:612
0.183:652
0.183:640
0.183:604
0.184:563
0.184:500
0.184:514
0.184:549
0.184:554
0.184:581
0.185:652
0.185:685
0.185:632
0.185:597
0.186:597
0.186:629
0.186:656
0.186:593
0.186:552
0.187:528
0.187:519
0.187:501
0.187:493
0.187:563
0.187:621
0.188:620
0.188:606
0.188:594
0.188:555
0.188:497
0.188:493
0.189:543
0.189:551
0.189:481
0.189:481
0.189:453
0.190:429
0.190:430
0.190:396
0.190:386
0.190:408
0.190:390
0.191:396
0.191:394
0.191:411
0.191:487
0.191:562
0.192:619
0.192:672
0.192:707
0.192:689
0.192:675
0.193:653
0.193:608
0.193:584
0.193:557
0.193:512
0.194:539
0.195:552
0.195:507
0.195:439
0.195:356
0.195:294
0.195:312
0.195:389
0.195:476
0.195:533
0.195:487
0.195:385
0.195:355
0.195:366
0.196:391
0.196:406
0.196:422
0.196:464
0.196:526
0.196:575
0.196:568
0.196:544
0.196:479
0.196:475
0.197:532
0.197:578
0.198:587
0.198:622
0.198:633
0.198:601
0.198:556
0.199:529
0.199:551
0.199:580
0.199:598
0.199:614
0.200:624
0.200:624
0.200:651
0.200:603
0.200:533
0.201:490
0.201:427
0.201:364
0.201:339
0.202:332
0.202:367
0.202:454
0.202:531
0.202:544
0.203:499
0.203:467
0.203:446
0.203:433
0.203:459
0.203:518
0.204:557
0.204:550
0.204:525
0.204:476
0.204:444
0.205:456
0.205:462
0.205:430
0.205:413
0.205:419
0.205:480
0.206:509
0.206:523
0.206:595
0.206:598
0.206:485
0.207:473
0.207:593
0.207:616
0.207:566
0.207:446
0.207:406
0.208:427
0.208:523
0.208:610
0.208:621
0.208:617
0.209:581
0.209:507
0.209:469
0.209:444
0.209:439
0.209:435
0.210:409
0.210:427
0.210:485
0.211:561
0.211:599
0.211:548
0.212:519
0.212:564
0.212:564
0.212:575
0.212:558
0.212:541
0.212:517
0.213:466
0.213:455
0.213:461
0.213:453
0.214:450
0.214:468
0.214:476
0.214:456
0.215:425
0.215:384
0.215:390
0.215:474
0.215:584
0.216:604
0.216:596
0.217:637
0.217:640
0.217:645
0.217:627
0.218:566
0.218:507
0.218:516
0.218:521
0.218:481
0.219:462
0.219:415
0.219:358
0.219:361
0.219:410
0.220:449
0.220:501
0.220:542
0.220:527
0.220:555
0.221:545
0.221:527
0.221:516
0.221:532
0.221:556
0.222:574
0.222:601
0.222:602
0.222:567
0.222:537
0.223:496
0.223:482
0.223:427
0.223:386
0.223:400
0.224:430
0.224:427
0.224:373
0.224:427
0.224:536
0.225:613
0.225:613
0.225:642
0.225:584
0.225:505
0.226:417
0.226:401
0.226:451
0.226:541
0.226:530
0.227:461
0.227:430
0.227:449
0.227:467
0.228:467
0.228:475
0.228:470
0.228:459
0.228:466
0.228:459
0.228:418
0.228:386
0.228:434
0.228:447
0.228:498
0.229:535
0.229:508
0.229:464
0.229:454
0.230:469
0.230:498
0.230:458
0.230:363
0.230:286
0.230:280
0.231:364
0.231:486
0.231:537
0.231:536
0.231:559
0.232:574
0.232:533
0.232:480
0.232:477
0.232:555
0.233:577
0.233:584
0.233:594
0.233:507
0.233:414
0.233:423
0.234:435
0.234:429
0.234:430
0.234:395
0.234:389
0.235:406
0.235:434
0.235:491
0.235:536
0.235:528
0.235:528
0.236:570
0.236:527
0.236:456
0.236:414
0.236:458
0.237:499
0.237:522
0.237:544
0.237:528
0.237:522
0.237:532
0.238:530
0.238:498
0.238:496
0.238:521
0.238:565
0.239:599
0.239:580
0.239:519
0.239:502
0.239:489
0.239:474
0.240:443
0.240:461
0.240:470
0.240:492
0.240:488
0.240:444
0.241:428
0.241:418
0.241:406
0.241:396
0.241:374
0.242:433
0.242:525
0.242:630
0.242:665
0.242:664
0.243:668
0.243:659
0.244:617
0.244:536
0.244:503
0.244:523
0.246:516
0.246:522
0.246:566
0.246:582
0.246:586
0.246:621
0.246:655
0.246:727
0.247:783
0.247:747
0.247:578
0.247:513
0.247:532
0.247:529
0.248:479
0.248:479
0.248:387
0.248:298
0.248:257
0.249:285
0.249:340
0.249:364
0.249:387
0.249:447
0.250:531
0.250:549
0.250:509
0.250:496
0.250:509
0.250:560
0.251:591
0.251:583
0.251:579
0.251:605
0.251:645
0.252:653
0.252:656
0.252:698
0.252:661
0.252:597
0.252:567
0.253:541
0.253:525
0.253:494
0.253:487
0.253:489
0.253:505
0.253:480
0.253:459
0.253:462
0.253:465
0.254:447
0.254:467
0.254:486
0.254:517
0.254:531
0.255:554
0.255:583
0.255:605
0.255:561
0.255:521
0.255:510
0.256:542
0.256:534
0.256:505
0.256:467
0.256:425
0.256:386
0.257:316
0.257:343
0.257:386
0.257:390
0.258:376
0.258:333
0.258:284
0.258:284
0.258:201
0.258:134
0.259:87
0.259:50
0.259:25
0.259:18
0.259:17
0.260:17
0.260:17
0.260:18
0.262:19
0.262:19
0.262:19
0.262:19
0.262:19
0.262:19
0.262:19
0.262:19
0.262:18
0.262:18
0.262:18
0.262:17
0.262:94
0.262:186
0.262:243
0.262:328
0.263:446
0.263:553
0.263:636
0.263:714
0.263:743
0.263:769
0.263:765
0.263:772
0.263:765
0.263:756
0.263:732
0.263:674
0.264:615
0.264:597
0.264:592
0.264:529
0.265:495
0.265:475
0.265:532
0.265:536
0.265:508
0.266:520
0.266:585
0.266:633
0.266:658
0.266:660
0.266:645
0.267:625
0.267:590
0.267:543
0.267:533
0.267:558
0.268:564
0.268:564
0.268:600
0.268:646
0.268:705
0.268:737
0.269:724
0.269:713
0.269:685
0.269:640
0.269:625
0.270:620
0.270:612
0.270:592
0.270:582
0.270:583
0.270:637
0.271:661
0.271:638
0.271:633
0.271:650
0.271:625
0.272:583
0.272:543
0.272:519
0.272:488
0.272:488
0.272:495
0.273:502
0.273:509
0.273:489
0.273:501
0.273:541
0.274:559
0.274:553
0.274:553
0.274:524
0.274:519
0.274:529
0.275:530
0.275:564
0.275:576
0.275:589
0.275:616
0.275:591
0.276:547
0.276:515
0.276:488
0.276:529
0.276:554
0.277:582
0.277:574
0.278:513
0.278:488
0.278:505
0.278:527
0.278:550
0.278:619
0.278:670
0.278:616
0.278:570
0.279:570
0.279:530
0.279:475
0.279:432
0.279:399
0.279:399
0.279:451
0.280:509
0.280:528
0.280:537
0.280:562
0.280:582
0.280:558
0.281:533
0.281:529
0.281:494
0.281:467
0.281:459
0.282:489
0.282:564
0.282:549
0.282:493
0.282:482
0.283:485
0.283:450
0.283:444
0.283:466
0.283:475
0.283:434
0.284:468
0.284:537
0.284:565
0.284:553
0.284:530
0.285:500
0.285:499
0.285:485
0.285:460
0.285:455
0.285:438
0.286:427
0.286:430
0.286:422
0.286:423
0.286:428
0.287:480
0.287:522
0.287:510
0.287:491
0.287:451
0.288:436
0.288:448
0.288:409
0.288:352
0.288:346
0.288:379
0.289:383
0.289:391
0.289:390
0.289:392
0.289:392
0.289:477
0.290:512
0.290:479
0.290:444
0.290:414
0.290:345
0.291:291
0.291:267
0.291:300
0.291:405
0.291:483
0.292:552
0.292:526
0.292:495
0.292:513
0.292:508
0.292:545
0.293:561
0.294:571
0.294:567
0.294:511
0.294:475
0.294:427
0.294:405
0.295:423
0.295:438
0.295:431
0.295:416
0.295:421
0.296:423
0.296:415
0.296:406
0.297:371
0.297:327
0.297:290
0.297:273
0.297:292
0.297:291
0.298:245
0.298:311
0.298:398
0.298:483
0.298:481
0.299:426
0.299:330
0.299:323
0.299:347
0.299:325
0.299:297
0.300:286
0.300:300
0.300:329
0.300:333
0.300:339
0.301:345
0.301:371
0.301:391
0.301:408
0.301:401
0.301:401
0.302:360
0.302:344
0.302:326
0.302:325
0.302:337
0.302:304
0.303:318
0.303:406
0.303:455
0.303:486
0.303:472
0.304:457
0.304:453
0.304:466
0.304:494
0.304:553
0.304:597
0.305:561
0.305:495
0.305:490
0.305:529
0.305:566
0.306:617
0.306:672
0.306:733
0.306:769
0.306:771
0.306:735
0.307:654
0.307:531
0.307:440
0.307:442
0.307:456
0.308:430
0.308:465
0.308:499
0.308:535
0.308:597
0.308:586
0.309:542
0.309:497
0.311:515
0.311:566
0.311:627
0.311:696
0.312:692
0.312:626
0.312:532
0.312:467
0.313:437
0.313:455
0.313:505
0.313:559
0.313:555
0.314:487
0.314:459
0.314:459
0.314:476
0.314:493
0.315:493
0.315:513
0.315:496
0.315:491
0.315:520
0.316:516
0.316:547
0.316:536
0.316:539
0.316:565
0.317:552
0.317:481
0.317:395
0.317:340
0.317:385
0.318:452
0.318:543
0.318:704
0.318:784
0.318:757
0.319:684
0.319:615
0.319:628
0.319:663
0.319:543
0.320:470
0.320:538
0.320:633
0.321:687
0.321:694
0.321:714
0.321:731
0.321:732
0.322:756
0.322:780
0.322:742
0.322:702
0.322:614
0.322:512
0.323:469
0.323:466
0.323:491
0.324:587
0.324:613
0.324:600
0.324:571
0.325:569
0.325:598
0.325:608
0.326:548
0.326:484
0.326:466
0.327:451
0.328:439
0.328:465
0.328:522
0.329:563
0.329:573
0.329:608
0.330:631
0.330:631
0.330:572
0.330:430
0.331:382
0.331:401
0.331:421
0.331:489
0.332:610
0.332:745
0.333:839
0.333:808
0.333:731
0.333:682
0.334:626
0.334:583
0.334:598
0.334:620
0.335:576
0.335:514
0.335:463
0.335:414
0.336:457
0.336:544
0.336:640
0.336:671
0.336:663
0.336:602
0.336:486
0.336:428
0.337:399
0.337:408
0.337:429
0.337:442
0.337:513
0.337:562
0.338:650
0.338:723
0.338:733
0.338:659
0.338:621
0.338:626
0.338:636
0.338:634
0.339:651
0.339:617
0.339:561
0.339:547
0.339:556
0.339:601
0.339:667
0.339:706
0.339:702
0.340:723
0.340:730
0.340:660
0.340:557
0.340:467
0.340:409
0.340:311
0.340:238
0.340:238
0.340:262
0.340:322
0.341:385
0.341:493
0.341:551
0.341:600
0.341:659
0.341:731
0.341:750
0.341:715
0.341:622
0.341:530
0.341:474
0.342:476
0.342:491
0.342:517
0.342:537
0.342:490
0.342:451
0.342:443
0.342:436
0.342:465
0.342:493
0.343:497
0.343:488
0.343:491
0.343:493
0.343:488
0.343:478
0.343:471
0.343:513
0.343:523
0.343:498
0.343:468
0.344:475
0.344:466
0.344:475
0.344:532
0.344:574
0.344:540
0.345:520
0.345:510
0.345:484
0.345:482
0.345:488
0.346:501
0.346:554
0.346:601
0.347:633
0.347:678
0.347:736
0.347:764
0.348:780
0.348:785
0.348:759
0.348:671
0.348:567
0.349:505
0.349:449
0.349:449
0.349:385
0.350:357
0.350:355
0.350:355
0.350:389
0.350:428
0.350:467
0.350:496
0.351:499
0.351:481
0.351:482
0.352:487
0.352:466
0.352:448
0.352:427
0.353:414
0.353:413
0.353:439
0.353:465
0.354:467
0.354:449
0.354:454
0.354:492
0.354:530
0.355:537
0.355:573
0.355:598
0.355:581
0.356:551
0.356:540
0.356:501
0.356:443
0.356:413
0.357:451
0.357:478
0.357:506
0.357:492
0.358:469
0.358:445
0.358:495
0.358:558
0.358:574
0.359:580
0.359:556
0.359:524
0.359:484
0.359:475
0.359:500
0.359:537
0.359:537
0.359:540
0.360:541
0.360:524
0.360:495
0.360:492
0.360:491
0.360:487
0.360:498
0.360:498
0.360:498
0.360:507
0.361:481
0.361:467
0.361:462
0.361:465
0.361:478
0.361:494
0.362:491
0.362:507
0.362:521
0.362:496
0.362:511
0.363:532
0.363:543
0.363:551
0.363:535
0.363:533
0.364:519
0.364:448
0.364:381
0.364:342
0.365:327
0.365:314
0.365:327
0.365:351
0.365:363
0.366:424
0.366:507
0.366:536
0.366:516
0.366:515
0.366:526
0.366:505
0.366:399
0.366:383
0.366:425
0.366:440
0.366:484
0.366:535
0.366:517
0.367:510
0.367:525
0.367:522
0.367:520
0.367:533
0.368:542
0.368:513
0.368:476
0.368:475
0.368:471
0.368:486
0.369:500
0.369:507
0.369:521
0.369:510
0.369:479
0.370:459
0.370:398
0.370:381
0.370:381
0.370:409
0.370:430
0.370:467
0.370:485
0.370:512
0.372:491
0.372:473
0.372:506
0.372:546
0.372:579
0.373:613
0.373:649
0.373:634
0.373:582
0.373:564
0.374:577
0.374:585
0.374:547
0.374:509
0.374:504
0.374:492
0.375:478
0.375:433
0.375:428
0.375:424
0.375:413
0.375:386
0.376:343
0.376:342
0.376:358
0.376:410
0.376:431
0.377:437
0.377:436
0.377:432
0.377:423
0.378:446
0.378:577
0.378:650
0.378:646
0.378:606
0.378:510
0.379:371
0.379:353
0.379:406
0.379:463
0.379:533
0.379:562
0.379:528
0.379:493
0.379:484
0.379:470
0.380:456
0.380:452
0.380:436
0.381:421
0.381:416
0.381:430
0.381:436
0.381:436
0.381:453
0.381:485
0.381:480
0.383:478
0.383:471
0.383:471
0.383:484
0.383:476
0.384:433
0.384:385
0.384:373
0.384:402
0.384:442
0.385:474
0.385:487
0.385:505
0.385:518
0.385:532
0.385:542
0.386:529
0.386:507
0.386:482
0.386:471
0.386:471
0.387:465
0.387:457
0.387:457
0.387:458
0.388:466
0.388:487
0.388:502
0.388:543
0.388:571
0.389:577
0.389:569
0.389:562
0.389:509
0.389:459
0.389:451
0.389:449
0.389:436
0.390:426
0.390:428
0.390:435
0.390:442
0.390:448
0.390:472
0.391:536
0.391:525
0.391:510
0.391:521
0.391:537
0.391:579
0.391:625
0.392:610
0.392:577
0.392:539
0.392:516
0.392:514
0.393:514
0.393:538
0.393:525
0.394:541
0.394:574
0.394:580
0.394:539
0.394:538
0.394:499
0.394:495
0.395:501
0.395:482
0.395:480
0.395:512
0.395:469
0.395:422
0.395:431
0.395:422
0.395:502
0.396:573
0.396:558
0.396:521
0.396:481
0.397:433
0.397:406
0.397:425
0.397:463
0.397:507
0.397:557
0.398:577
0.398:606
0.398:621
0.398:601
0.398:572
0.399:538
0.399:500
0.399:476
0.399:472
0.399:476
0.399:469
0.400:485
0.400:483
0.401:466
0.401:414
0.401:415
0.401:408
0.401:418
0.401:403
0.401:405
0.402:414
0.402:442
0.402:432
0.402:412
0.402:407
0.403:411
0.403:482
0.403:579
0.403:673
0.403:692
0.403:663
0.404:663
0.404:611
0.404:522
0.404:466
0.404:461
0.405:484
0.405:447
0.405:434
0.405:456
0.405:420
0.405:413
0.406:383
0.406:313
0.406:226
0.406:156
0.406:124
0.407:92
0.407:63
0.407:29
0.407:17
0.407:17
0.407:17
0.407:18
0.408:20
0.408:17
0.408:17
0.408:17
0.408:17
0.408:17
0.409:18
0.409:18
0.409:19
0.409:19
0.409:19
0.409:18
0.411:17
0.411:17
0.411:17
0.411:61
0.411:117
0.411:158
0.411:204
0.411:247
0.412:345
0.412:474
0.412:585
0.412:698
0.412:762
0.412:828
0.412:868
0.412:872
0.412:814
0.412:729
0.413:594
0.413:469
0.413:424
0.413:416
0.414:461
0.414:495
0.414:514
0.414:514
0.414:550
0.414:586
0.415:586
0.415:576
0.415:567
0.415:550
0.415:550
0.416:561
0.416:564
0.416:537
0.416:515
0.416:520
0.416:490
0.417:473
0.417:469
0.417:480
0.417:492
0.417:499
0.418:501
0.418:482
0.418:526
0.418:596
0.418:624
0.418:658
0.419:694
0.419:677
0.419:681
0.419:687
0.419:653
0.419:617
0.419:597
0.419:591
0.420:581
0.420:550
0.420:545
0.420:582
0.420:630
0.420:640
0.421:632
0.421:583
0.421:550
0.421:530
0.421:542
0.423:577
0.423:576
0.423:570
0.423:532
0.423:488
0.423:474
0.423:444
0.423:435
0.423:462
0.423:503
0.423:570
0.424:599
0.424:589
0.424:589
0.424:576
0.424:543
0.424:543
0.425:545
0.425:582
0.425:634
0.425:664
0.425:677
0.426:623
0.426:545
0.426:505
0.426:499
0.428:497
0.428:523
0.428:525
0.428:537
0.428:571
0.428:584
0.428:566
0.429:528
0.429:520
0.429:521
0.429:502
0.429:483
0.429:469
0.429:485
0.430:535
0.430:539
0.430:491
0.431:449
0.431:433
0.431:408
0.431:371
0.431:320
0.432:317
0.432:332
0.432:375
0.432:426
0.432:489
0.433:527
0.433:532
0.433:539
0.433:541
0.433:523
0.434:522
0.434:530
0.434:533
0.434:535
0.434:565
0.434:614
0.434:611
0.434:548
0.435:460
0.435:426
0.435:414
0.435:406
0.435:400
0.435:388
0.436:404
0.436:410
0.436:411
0.436:442
0.436:442
0.437:497
0.437:542
0.437:566
0.437:559
0.437:527
0.437:522
0.438:511
0.438:503
0.438:493
0.438:484
0.439:462
0.439:462
0.439:452
0.439:426
0.439:420
0.439:414
0.440:394
0.440:392
0.441:385
0.441:383
0.441:371
0.441:380
0.441:407
0.442:413
0.442:369
0.442:346
0.442:321
0.442:284
0.442:269
0.443:280
0.443:278
0.443:342
0.444:400
0.444:445
0.444:425
0.444:438
0.444:450
0.444:441
0.444:447
0.444:479
0.444:478
0.444:443
0.444:402
0.444:387
0.445:359
0.445:335
0.445:317
0.445:345
0.446:360
0.446:348
0.446:348
0.446:323
0.446:290
0.447:255
0.447:249
0.447:258
0.447:278
0.448:289
0.448:302
0.448:302
0.448:320
0.448:335
0.448:335
0.449:348
0.449:322
0.449:310
0.449:285
0.450:287
0.450:335
0.450:360
0.451:364
0.451:393
0.451:422
0.451:438
0.451:441
0.452:432
0.452:417
0.452:376
0.452:314
0.452:317
0.452:326
0.453:307
0.453:263
0.453:234
0.453:255
0.453:320
0.454:384
0.454:411
0.454:419
0.454:483
0.454:555
0.454:592
0.455:617
0.455:581
0.455:510
0.455:447
0.455:412
0.456:431
0.456:419
0.456:411
0.456:441
0.456:494
0.456:513
0.457:532
0.457:550
0.457:532
0.457:505
0.457:497
0.458:530
0.458:556
0.458:556
0.458:552
0.458:520
0.458:491
0.459:482
0.459:486
0.459:535
0.459:558
0.459:570
0.459:570
0.459:552
0.459:542
0.460:566
0.460:597
0.460:589
0.460:569
0.461:578
0.461:597
0.461:572
0.461:497
0.461:420
0.461:377
0.461:369
0.461:360
0.462:402
0.462:432
0.462:457
0.462:475
0.462:489
0.462:516
0.462:594
0.462:650
0.463:662
0.463:651
0.463:641
0.463:609
0.464:618
0.464:693
0.464:718
0.464:687
0.464:648
0.465:609
0.465:646
0.465:698
0.465:671
0.465:615
0.465:574
0.466:567
0.466:565
0.466:539
0.466:464
0.466:441
0.467:436
0.467:466
0.467:526
0.467:576
0.467:657
0.467:716
0.468:770
0.468:750
0.468:637
0.468:541
0.468:523
0.469:540
0.469:529
0.469:450
0.469:418
0.469:457
0.469:498
0.470:498
0.470:521
0.470:493
0.471:499
0.471:493
0.471:503
0.471:520
0.471:544
0.472:562
0.472:554
0.472:542
0.472:521
0.472:455
0.473:409
0.473:411
0.473:434
0.473:482
0.473:524
0.473:526
0.474:507
0.474:458
0.474:368
0.474:400
0.474:501
0.475:576
0.475:636
0.475:684
0.475:675
0.475:612
0.475:508
0.476:397
0.476:366
0.476:490
0.476:624
0.477:674
0.478:672
0.478:669
0.478:633
0.478:594
0.478:558
0.478:528
0.478:533
0.478:591
0.478:629
0.479:608
0.479:574
0.479:532
0.479:486
0.479:416
0.479:349
0.479:333
0.479:347
0.479:396
0.479:431
0.479:455
0.480:46250
0.480:509
0.480:524
0.480:536
0.480:551
0.480:568
0.480:590
0.480:564
0.481:543
0.481:520
0.481:490
0.481:455
0.481:438
0.482:417
0.482:402
0.482:396
0.482:417
0.482:443
0.483:457
0.483:466
0.483:474
0.483:498
0.483:518
0.483:525
0.484:539
0.484:56
0.484:490
0.484:509
0.484:524
0.484:536
0.485:551
0.485:568
0.485:590
0.485:564
0.485:543
0.486:520
0.486:490
0.486:455
0.486:438
0.486:417
0.486:402
0.487:396
0.487:417
0.487:443
0.487:457
0.487:466
0.488:474
0.488:498
0.488:518
0.488:525
0.488:539
0.488:569
0.488:0
0.488:509
0.488:524
0.490:536
0.490:551
0.490:568
0.490:590
0.490:564
0.490:543
0.491:520
0.491:490
0.491:455
0.491:438
0.491:417
0.492:402
0.492:396
0.492:417
0.492:443
0.492:457
0.492:466
0.493:474
0.493:498
0.493:518
0.493:525
0.495:539
0.495:569
0.495:606
0.495:596
0.496:570
0.496:550
0.496:503
0.496:443
0.497:406
0.497:401
0.497:385
0.497:370
0.498:396
0.498:432
0.498:459
0.498:449
0.498:456
0.499:476
0.499:492
0.499:499
0.499:495
0.499:503
0.499:546
0.499:553
0.499:539
0.500:510
0.500:464
0.500:425
0.500:390
0.500:377
0.501:388
0.501:388
0.501:388
0.501:397
0.501:407
0.502:428
0.502:448
0.502:467
0.502:473
0.502:458
0.502:499
0.503:551
0.503:571
0.503:575
0.503:539
0.503:500
0.504:477
0.504:435
0.504:406
0.504:408
0.504:402
0.504:394
0.505:402
0.505:420
0.505:432
0.505:446
0.505:463
0.506:488
0.506:509
0.506:547
0.506:580
0.506:600
0.506:599
0.507:600
0.507:572
0.507:554
0.507:539
0.507:500
0.508:471
0.508:448
0.508:434
0.508:416
0.508:418
0.508:443
0.509:461
0.509:478
0.509:489
0.509:512
0.509:529
0.510:553
0.511:568
0.511:583
0.511:581
0.511:597
0.511:578
0.511:551
0.511:535
0.511:511
0.511:495
0.512:464
0.512:455
0.512:446
0.512:446
0.512:452
0.513:480
0.513:498
0.513:511
0.514:510
0.514:522
0.514:526
0.514:545
0.514:568
0.514:582
0.515:589
0.515:590
0.515:572
0.515:557
0.516:553
0.516:508
0.516:477
0.516:442
0.516:426
0.516:420
0.517:428
0.517:449
0.517:483
0.517:507
0.517:511
0.518:526
0.518:535
0.518:561
0.518:586
0.518:600
0.518:586
0.519:579
0.519:557
0.519:542
0.519:533
0.519:504
0.520:486
0.520:464
0.520:445
0.521:423
0.521:415
0.521:442
0.521:463
0.521:473
0.522:476
0.522:497
0.522:516
0.522:549
0.522:569
0.523:573
0.523:586
0.523:593
0.523:572
0.523:563
0.523:553
0.524:502
0.524:471
0.524:440
0.524:424
0.524:424
0.525:423
0.525:442
0.525:475
0.525:510
0.525:533
0.526:531
0.526:553
0.526:558
0.526:565
0.526:563
0.526:560
0.528:576
0.528:575
0.528:541
0.528:505
0.528:462
0.528:390
0.528:333
0.529:290
0.529:243
0.529:200
0.529:156
0.529:127
0.529:102
0.530:67
0.530:17
0.530:16
0.530:17
0.530:17
0.530:17
0.531:17
0.531:18
0.531:17
0.531:18
0.531:19
0.531:19
0.532:19
0.532:19
0.532:19
0.532:20
0.532:19
0.532:18
0.532:18
0.533:17
0.533:16
0.533:52
0.533:171
0.533:285
0.533:405
0.534:550
0.534:668
0.534:762
0.534:807
0.534:804
0.535:781
0.535:750
0.535:692
0.535:649
0.535:600
0.535:600
0.536:564
0.536:538
0.536:547
0.536:569
0.536:597
0.537:611
0.537:611
0.537:626
0.537:628
0.537:656
0.537:681
0.538:682
0.538:678
0.538:660
0.538:630
0.538:617
0.539:608
0.539:564
0.539:547
0.539:512
0.539:488
0.539:471
0.540:488
0.540:524
0.540:554
0.541:575
0.541:606
0.541:647
0.541:664
0.541:672
0.542:671
0.542:664
0.542:662
0.542:635
0.542:621
0.543:618
0.543:598
0.543:536
0.543:506
0.544:479
0.544:525
0.544:591
0.545:610
0.545:574
0.545:559
0.545:568
0.545:578
0.546:602
0.546:619
0.546:635
0.547:640
0.547:648
0.547:661
0.547:650
0.547:618
0.548:598
0.548:587
0.548:538
0.548:512
0.548:512
0.549:487
0.549:467
0.549:465
0.549:476
0.549:499
0.550:515
0.550:524
0.551:534
0.551:571
0.551:582
0.551:604
0.551:613
0.551:612
0.552:627
0.552:624
0.552:595
0.552:569
0.552:553
0.553:502
0.553:472
0.553:453
0.553:452
0.553:445
0.554:459
0.554:484
0.554:494
0.554:492
0.554:494
0.555:525
0.555:557
0.555:603
0.555:630
0.555:620
0.556:605
0.556:569
0.556:545
0.556:528
0.556:508
0.557:441
0.557:439
0.557:428
0.557:418
0.557:416
0.557:436
0.558:464
0.558:488
0.558:505
0.558:506
0.559:526
0.559:536
0.559:551
0.559:563
0.559:569
0.559:587
0.559:571
0.560:549
0.560:529
0.560:506
0.560:455
0.560:455
0.562:426
0.562:408
0.562:399
0.562:395
0.562:415
0.563:434
0.563:455
0.563:471
0.563:482
0.564:499
0.564:510
0.564:530
0.565:541
0.565:535
0.565:513
0.565:462
0.565:480
0.565:497
0.566:471
0.566:420
0.566:406
0.566:405
0.566:426
0.567:435
0.567:447
0.567:448
0.567:446
0.567:447
0.568:448
0.568:470
0.568:486
0.568:488
0.568:500
0.569:514
0.569:520
0.569:497
0.569:477
0.569:455
0.569:426
0.569:377
0.569:353
0.570:344
0.570:356
0.570:379
0.570:400
0.570:405
0.571:399
0.571:388
0.571:387
0.571:406
0.571:456
0.572:478
0.572:496
0.572:491
0.572:509
0.572:499
0.573:468
0.573:429
0.573:388
0.576:388
0.576:344
0.576:329
0.576:311
0.578:291
0.578:289
0.578:312
0.581:331
0.581:340
0.581:350
0.581:373
0.581:397
0.582:420
0.582:453
0.582:482
0.582:489
0.586:502
0.586:473
0.586:447
0.586:435
0.586:416
0.587:380
0.587:354
0.587:339
0.587:323
0.587:320
0.589:334
0.589:345
0.589:352
0.589:370
0.605:402
0.606:433
0.606:455
0.606:463
0.609:465
0.610:468
0.610:487
0.610:483
0.610:481
0.610:480
0.610:471
0.611:465
0.611:442
0.614:406
0.614:382
0.614:378
0.614:384
0.614:410
0.615:462
0.615:476
0.615:491
0.615:516
0.615:546
0.618:581
0.618:604
0.618:608
0.618:615
0.619:589
0.619:567
0.619:572
0.634:572
0.634:550
0.634:505
0.638:475
0.638:476
0.638:476
0.639:479
0.639:503
0.639:525
0.639:539
0.640:550
0.640:575
0.643:591
0.643:609
0.644:622
0.644:640
0.644:658
0.645:680
0.645:666
0.646:637
0.646:620
0.646:611
0.646:606
0.647:588
0.647:586
0.647:562
0.648:546
0.648:561
0.648:572
0.648:571
0.667:573
0.668:594
0.668:612
0.668:644
0.668:659
0.669:674
0.669:659
0.669:674
0.669:665
0.670:651
0.670:637
0.671:601
0.671:576
0.671:563
0.671:549
0.671:522
0.671:508
0.671:530
0.671:548
0.675:566
0.676:573
0.676:585
0.677:596
0.677:614
0.677:627
0.678:638
0.678:647
0.678:683
0.679:689
0.679:685
0.695:685
0.696:657
0.696:597
0.696:553
0.697:512
0.698:500
0.698:498
0.698:497
0.700:512
0.700:531
0.700:540
0.701:539
0.701:570
0.701:601
0.701:631
0.701:636
0.702:638
0.702:663
0.703:677
0.704:650
0.704:627
0.704:617
0.704:581
0.705:556
0.705:505
0.705:483
0.705:487
0.707:495
0.707:518
0.707:533
0.725:529
0.725:516
0.725:538
0.725:554
0.725:581
0.729:621
0.729:659
0.729:677
0.729:679
0.729:640
0.729:608
0.729:586
0.729:534
0.729:495
0.729:477
0.732:466
0.732:467
0.733:477
0.733:517
0.733:556
0.733:553
0.733:551
0.734:578
0.734:603
0.736:622
0.736:618
0.737:609
0.737:609
0.737:613
0.737:592
0.753:592
0.753:559
0.753:516
0.754:495
0.757:500
0.757:475
0.757:456
0.758:455
0.758:471
0.758:484
0.759:496
0.759:503
0.759:504
0.760:521
0.761:543
0.761:580
0.761:599
0.761:601
0.762:592
0.762:593
0.763:579
0.763:551
0.763:533
0.765:505
0.766:473
0.766:454
0.766:437
0.766:414
0.766:426
0.766:460
0.782:482
0.786:493
0.786:513
0.787:550
0.787:555
0.787:574
0.787:594
0.788:604
0.788:602
0.789:588
0.789:558
0.790:539
0.791:536
0.791:505
0.791:483
0.791:459
0.791:449
0.791:432
0.791:426
0.792:441
0.794:473
0.794:490
0.794:501
0.794:528
0.795:536
0.795:558
0.795:575
0.795:585
0.795:592
0.795:592
0.814:592
0.815:576
0.815:563
0.815:557
0.815:529
0.815:520
0.815:496
0.816:457
0.816:430
0.816:435
0.818:450
0.819:465
0.819:469
0.819:479
0.819:520
0.819:535
0.820:561
0.820:579
0.821:589
0.822:595
0.822:583
0.823:553
0.823:524
0.823:511
0.823:480
0.823:468
0.824:455
0.824:460
0.824:440
0.826:419
0.842:424
0.842:446
0.842:460
0.844:474
0.844:500
0.844:523
0.847:560
0.848:581
0.848:580
0.848:586
0.849:577
0.849:564
0.849:554
0.849:526
0.850:460
0.850:416
0.851:399
0.851:409
0.851:414
0.852:410
0.852:417
0.852:440
0.853:462
0.853:476
0.853:502
0.854:517
0.855:545
0.855:564
0.855:577
0.855:577
0.871:577
0.872:584
0.872:562
0.872:548
0.872:532
0.874:478
0.876:452
0.877:423
0.877:406
0.877:401
0.877:420
0.877:443
0.878:465
0.878:480
0.878:485
0.880:514
0.880:529
0.880:543
0.880:563
0.880:579
0.880:593
0.881:578
0.881:550
0.881:533
0.881:518
0.884:470
0.884:452
0.884:419
0.884:398
0.885:393
0.901:425
0.901:464
0.905:487
0.905:487
0.905:480
0.906:498
0.906:508
0.906:532
0.907:557
0.907:597
0.907:627
0.908:595
0.909:561
0.909:533
0.909:516
0.910:473
0.910:458
0.910:431
0.911:412
0.911:403
0.911:409
0.913:432
0.913:469
0.913:500
0.914:507
0.914:510
0.914:519
0.914:549
0.914:566
0.915:579
0.928:579
0.933:596
0.934:582
0.934:563
0.934:555
0.934:533
0.935:476
0.935:444
0.935:426
0.935:420
0.936:422
0.937:439
0.937:463
0.937:476
0.938:476
0.938:478
0.938:495
0.938:510
0.939:538
0.939:563
0.940:575
0.941:595
0.942:581
0.942:553
0.942:524
0.942:496
0.942:441
0.943:419
0.943:410
0.943:401
0.961:397
0.961:411
0.962:423
0.962:430
0.962:438
0.962:443
0.962:464
0.963:496
0.966:525
0.966:539
0.966:556
0.966:569
0.966:539
0.967:506
0.967:488
0.967:474
0.967:434
0.970:404
0.970:387
0.970:372
0.971:370
0.971:401
0.971:433
0.971:451
0.971:446
0.972:437
0.972:461
0.974:489
0.974:536
0.974:572
0.990:572
0.990:572
0.990:570
0.990:547
0.991:518
0.991:492
0.991:460
0.994:422
0.994:420
0.995:400
0.995:371
0.995:373
0.995:395
0.995:428
0.996:464
0.996:477
0.998:479
0.998:497
0.999:507
0.999:515
0.999:540
1.000:573
1.000:620
1.001:628
1.001:612
1.001:579
1.002:542
1.003:492
1.003:462
1.003:453
1.019:455
1.019:451
1.019:466
1.019:470
1.023:472
1.024:476
1.024:494
1.024:531
1.024:561
1.025:579
1.025:587
1.025:592
1.025:606
1.027:583
1.027:560
1.028:540
1.028:516
1.028:477
1.029:465
1.029:470
1.030:457
1.030:441
1.031:450
1.032:467
1.032:486
1.032:487
1.033:495
1.033:518
1.033:543
1.034:572
1.047:572
1.048:606
1.048:609
1.052:606
1.052:574
1.052:555
1.052:545
1.053:519
1.053:483
1.053:459
1.053:444
1.053:436
1.056:433
1.056:451
1.056:468
1.056:479
1.057:486
1.057:501
1.057:521
1.057:564
1.057:592
1.057:603
1.060:604
1.060:607
1.060:572
1.060:543
1.060:538
1.061:532
1.061:507
1.061:465
1.080:451
1.080:428
1.081:432
1.081:462
1.081:474
1.081:469
1.081:482
1.082:519
1.082:565
1.084:588
1.084:595
1.085:602
1.085:601
1.085:610
1.085:587
1.085:568
1.085:563
1.086:515
1.086:464
1.088:439
1.088:417
1.089:415
1.089:432
1.089:442
1.089:457
1.089:480
1.090:490
1.090:527
1.092:534
1.093:560
1.109:560
1.109:589
1.110:590
1.110:600
1.110:608
1.110:581
1.110:557
1.110:550
1.113:517
1.114:465
1.114:430
1.114:440
1.114:446
1.115:436
1.115:417
1.116:391
1.116:369
1.116:360
1.117:360
1.118:349
1.118:353
1.118:333
1.119:312
1.119:278
1.119:232
1.119:174
1.120:103
1.120:41
1.121:17
1.122:17
1.138:18
1.138:18
1.138:18
1.138:18
1.138:19
1.138:19
1.138:18
1.142:19
1.142:19
1.142:18
1.142:18
1.142:18
1.142:17
1.143:17
1.143:86
1.143:141
1.144:200
1.144:265
1.146:308
1.146:374
1.147:464
1.147:547
1.147:590
1.147:629
1.147:671
1.147:689
1.148:677
1.150:664
1.150:683
1.151:680
1.166:680
1.167:688
1.167:695
1.167:705
1.170:715
1.170:733
1.170:715
1.171:677
1.171:628
1.171:573
1.171:554
1.171:519
1.171:503
1.172:498
1.174:509
1.174:526
1.174:541
1.175:558
1.175:576
1.175:589
1.175:588
1.175:602
1.177:615
1.179:629
1.179:645
1.179:643
1.179:636
1.179:622
1.179:618
1.179:576
1.194:542
1.199:511
1.199:496
1.200:494
1.200:499
1.200:516
1.200:540
1.200:561
1.201:567
1.201:577
1.203:584
1.203:608
1.203:632
1.203:640
1.204:631
1.204:625
1.204:601
1.204:602
1.204:628
1.204:601
1.207:568
1.207:533
1.207:501
1.208:473
1.208:480
1.208:510
1.208:528
1.208:527
1.208:530
1.208:553
1.227:553
1.228:563
1.228:584
1.228:602
1.228:617
1.228:624
1.229:614
1.229:587
1.229:567
1.229:557
1.232:516
1.232:495
1.232:463
1.233:443
1.233:437
1.233:464
1.233:501
1.233:515
1.234:509
1.236:517
1.236:543
1.236:543
1.237:537
1.237:551
1.237:597
1.237:639
1.237:617
1.238:587
1.238:580
1.239:568
1.257:513
1.257:478
1.257:443
1.258:425
1.258:418
1.258:427
1.261:444
1.261:473
1.261:492
1.261:498
1.261:519
1.262:524
1.262:540
1.262:556
1.262:566
1.262:579
1.265:573
1.265:535
1.266:510
1.266:497
1.266:466
1.266:445
1.266:410
1.266:400
1.267:404
1.269:421
1.269:438
1.269:452
1.269:456
1.269:457
1.285:457
1.285:486
1.286:499
1.286:542
1.286:572
1.289:573
1.289:573
1.290:557
1.290:530
1.291:516
1.291:498
1.291:450
1.291:425
1.291:398
1.292:380
1.293:366
1.293:382
1.293:403
1.293:425
1.294:442
1.294:448
1.294:464
1.294:476
1.294:502
1.294:519
1.297:524
1.298:529
1.298:517
1.298:492
1.298:466
1.314:449
1.314:423
1.318:436
1.318:426
1.319:394
1.319:353
1.319:354
1.319:361
1.319:396
1.319:409
1.319:395
1.319:440
1.321:481
1.321:493
1.323:510
1.323:506
1.323:501
1.324:490
1.324:466
1.324:444
1.325:433
1.326:388
1.326:357
1.326:328
1.326:305
1.327:293
1.327:312
1.327:352
1.327:387
1.327:392
1.342:392
1.347:384
1.347:402
1.348:418
1.348:443
1.348:464
1.348:473
1.348:485
1.349:467
1.349:434
1.349:414
1.351:403
1.351:358
1.351:342
1.351:324
1.351:296
1.351:290
1.352:307
1.352:342
1.353:359
1.354:375
1.355:387
1.355:408
1.355:417
1.356:438
1.356:456
1.357:468
1.357:486
1.357:473
1.358:450
1.376:442
1.376:438
1.376:398
1.376:375
1.376:348
1.377:327
1.377:322
1.377:348
1.379:373
1.380:385
1.380:396
1.380:423
1.381:463
1.381:499
1.381:541
1.381:570
1.381:574
1.384:564
1.384:554
1.384:549
1.384:537
1.384:523
1.385:480
1.385:459
1.385:438
1.385:426
1.385:427
1.388:467
1.388:488
1.388:487
1.404:487
1.404:506
1.404:547
1.404:602
1.404:636
1.405:649
1.405:648
1.408:644
1.408:660
1.408:640
1.409:619
1.410:616
1.410:608
1.411:564
1.411:545
1.411:530
1.412:521
1.412:511
1.412:536
1.413:556
1.413:573
1.413:583
1.413:588
1.414:605
1.414:634
1.414:672
1.416:698
1.416:692
1.416:698
1.416:672
1.433:647
1.433:637
1.433:620
1.433:577
1.437:550
1.437:543
1.437:538
1.438:537
1.438:558
1.438:572
1.438:572
1.438:565
1.438:568
1.441:601
1.441:642
1.441:661
1.442:662
1.442:670
1.442:692
1.444:684
1.444:666
1.444:646
1.444:607
1.445:571
1.445:555
1.446:536
1.446:513
1.446:500
1.446:524
1.447:554
1.461:554
1.462:550
1.462:540
1.465:567
1.465:597
1.466:616
1.466:638
1.466:666
1.466:667
1.466:677
1.466:659
1.467:625
1.470:604
1.470:580
1.470:542
1.470:512
1.470:500
1.471:488
1.471:498
1.471:546
1.471:565
1.471:550
1.474:526
1.474:535
1.474:552
1.474:580
1.475:603
1.475:621
1.475:625
1.475:653
1.494:641
1.494:610
1.494:591
1.494:577
1.494:556
1.494:519
1.494:479
1.495:471
1.495:481
1.499:499
1.499:520
1.499:528
1.499:529
1.499:540
1.499:555
1.500:583
1.500:614
1.500:648
1.500:644
1.502:605
1.502:573
1.502:570
1.502:580
1.502:569
1.502:540
1.503:518
1.503:503
1.503:485
1.506:472
1.506:487
1.523:487
1.523:503
1.523:523
1.524:528
1.524:536
1.524:545
1.524:566
1.524:581
1.527:601
1.527:618
1.527:634
1.527:619
1.527:600
1.528:587
1.528:551
1.528:511
1.528:478
1.529:455
1.531:444
1.531:440
1.531:453
1.531:475
1.531:490
1.532:497
1.532:520
1.532:539
1.532:563
1.535:578
1.535:596
1.535:592
1.551:596
1.551:566
1.552:551
1.552:550
1.552:516
1.556:473
1.556:440
1.556:447
1.556:440
1.557:413
1.557:437
1.557:477
1.557:512
1.557:528
1.558:538
1.559:544
1.559:561
1.559:588
1.559:599
1.560:588
1.560:576
1.560:550
1.560:532
1.560:526
1.564:492
1.564:469
1.564:436
1.564:414
1.565:400
1.565:405
1.579:405
1.579:431
1.580:458
1.580:478
1.585:501
1.585:533
1.585:540
1.585:558
1.585:569
1.585:575
1.586:571
1.586:578
1.586:568
1.586:552
1.588:534
1.588:490
1.588:457
1.588:407
1.589:403
1.589:426
1.589:448
1.589:466
1.589:475
1.592:481
1.592:484
1.594:514
1.594:528
1.594:545
1.594:548
1.594:551
1.608:552
1.613:550
1.613:542
1.613:519
1.613:499
1.614:521
1.614:513
1.614:455
1.614:423
1.614:424
1.617:438
1.617:458
1.617:471
1.617:475
1.618:486
1.618:515
1.618:523
1.618:542
1.618:552
1.618:567
1.621:577
1.621:582
1.621:559
1.621:534
1.621:522
1.622:484
1.622:469
1.622:441
1.622:425
1.622:423
1.641:423
1.641:435
1.641:440
1.643:450
1.643:456
1.644:466
1.644:512
1.644:541
1.644:565
1.646:571
1.646:569
1.646:572
1.646:570
1.647:556
1.647:537
1.647:525
1.647:488
1.648:467
1.648:467
1.649:455
1.650:424
1.650:406
1.650:422
1.650:453
1.650:474
1.652:489
1.652:520
1.652:532
1.652:568
1.654:581
1.669:582
1.669:585
1.670:579
1.670:548
1.670:527
1.670:522
1.674:485
1.675:476
1.675:464
1.675:449
1.675:435
1.675:437
1.676:446
1.676:466
1.676:481
1.676:491
1.679:517
1.679:528
1.679:550
1.679:564
1.679:571
1.679:585
1.679:583
1.680:554
1.680:535
1.682:528
1.682:469
1.682:448
1.682:435
1.683:437
1.699:437
1.699:439
1.699:445
1.699:461
1.699:471
1.703:469
1.703:466
1.704:482
1.704:519
1.704:565
1.704:572
1.704:567
1.705:575
1.705:565
1.705:537
1.707:516
1.708:502
1.708:481
1.708:485
1.708:466
1.708:440
1.709:414
1.709:422
1.709:444
1.711:468
1.711:477
1.711:481
1.711:503
1.711:535
1.712:564
1.728:572
1.728:561
1.731:554
1.731:543
1.731:536
1.732:559
1.732:565
1.732:505
1.732:446
1.732:402
1.733:381
1.733:388
1.736:415
1.736:435
1.736:445
1.736:456
1.737:472
1.737:498
1.737:505
1.737:522
1.737:536
1.739:536
1.740:552
1.740:545
1.741:526
1.741:502
1.741:473
1.741:428
1.741:408
1.742:382
1.756:382
1.760:366
1.760:356
1.760:359
1.761:392
1.761:433
1.761:441
1.761:439
1.761:470
1.762:486
1.762:510
1.765:545
1.765:563
1.765:574
1.765:547
1.766:498
1.766:478
1.766:467
1.766:415
1.766:395
1.769:390
1.769:405
1.769:422
1.769:429
1.769:428
1.769:431
1.769:437
1.771:449
1.771:495
1.771:521
1.789:541
1.789:556
1.789:558
1.789:575
1.789:566
1.789:558
1.789:554
1.790:537
1.792:488
1.794:468
1.794:439
1.794:446
1.794:454
1.794:465
1.794:466
1.795:462
1.795:464
1.797:499
1.797:542
1.797:576
1.797:592
1.798:602
1.798:611
1.798:626
1.798:607
1.798:574
1.799:547
1.800:521
1.802:466
1.802:445
1.818:445
1.818:435
1.818:428
1.818:417
1.819:444
1.819:472
1.819:486
1.821:492
1.822:490
1.822:529
1.822:564
1.822:585
1.823:582
1.823:587
1.823:623
1.823:616
1.826:583
1.826:558
1.827:536
1.827:482
1.827:449
1.827:429
1.827:424
1.827:434
1.828:452
1.828:468
1.830:487
1.830:500
1.830:504
1.830:522
1.846:535
1.846:561
1.846:589
1.846:610
1.851:634
1.851:603
1.851:561
1.851:533
1.851:515
1.852:479
1.852:448
1.852:438
1.852:453
1.855:464
1.855:479
1.855:473
1.855:503
1.855:504
1.856:511
1.856:545
1.856:560
1.856:575
1.856:589
1.859:600
1.859:596
1.859:581
1.859:570
1.859:559
1.859:534
1.860:478
1.874:478
1.875:457
1.875:461
1.879:463
1.879:441
1.879:442
1.879:453
1.879:462
1.879:484
1.880:491
1.880:500
1.880:550
1.884:582
1.884:610
1.884:624
1.884:641
1.884:632
1.885:635
1.885:612
1.885:580
1.885:525
1.885:471
1.888:436
1.888:422
1.888:410
1.888:415
1.889:413
1.889:401
1.889:398
1.889:398
1.908:393
1.908:389
1.908:368
1.908:336
1.908:290
1.909:262
1.909:204
1.909:130
1.909:61
1.912:17
1.912:17
1.912:17
1.912:18
1.912:18
1.913:19
1.913:19
1.913:19
1.913:19
1.913:19
1.913:19
1.913:19
1.916:19
1.916:19
1.916:19
1.916:18
1.916:17
1.916:17
1.917:19
1.917:103
1.917:171
1.936:171
1.936:223
1.936:308
1.936:426
1.937:516
1.937:597
1.937:665
1.937:692
1.941:690
1.941:683
1.941:688
1.942:684
1.942:697
1.942:706
1.942:705
1.943:695
1.943:698
1.943:675
1.944:649
1.945:621
1.945:585
1.945:557
1.945:528
1.945:529
1.945:548
1.946:545
1.946:543
1.949:541
1.949:564
1.949:574
1.964:583
1.965:613
1.965:650
1.965:675
1.965:692
1.969:692
1.970:699
1.970:670
1.970:652
1.970:645
1.970:620
1.970:584
1.971:548
1.971:527
1.974:512
1.974:501
1.974:518
1.974:533
1.974:563
1.975:600
1.975:643
1.975:658
1.975:664
1.976:656
1.977:660
1.977:664
1.977:663
1.977:617
1.977:618
1.978:630
1.993:630
1.994:604
1.994:565
1.994:531
1.998:517
1.998:503
1.998:496
1.999:504
1.999:521
1.999:534
1.999:545
1.999:573
1.999:600
1.999:628
2.002:637
2.002:641
2.003:644
2.003:646
2.003:621
2.003:600
2.004:593
2.004:561
2.004:528
2.006:488
2.006:468
2.007:456
2.007:464
2.007:476
2.007:489
2.008:502
2.022:509
2.026:533
2.026:551
2.026:596
2.026:608
2.027:625
2.027:642
2.027:650
2.027:625
2.027:587
2.031:561
2.031:511
2.031:479
2.031:450
2.031:446
2.032:441
2.032:450
2.032:470
2.032:488
2.032:500
2.035:503
2.035:524
2.035:532
2.035:554
2.036:576
2.036:597
2.036:605
2.036:617
2.036:598
2.039:566
2.055:566
2.055:550
2.055:506
2.055:480
2.056:450
2.056:425
2.056:403
2.056:409
2.057:432
2.058:448
2.059:468
2.059:521
2.059:573
2.059:560
2.060:529
2.060:534
2.061:552
2.061:553
2.061:538
2.064:534
2.064:523
2.064:527
2.065:496
2.065:466
2.065:435
2.065:413
2.065:402
2.066:411
2.066:426
2.067:436
2.084:421
2.084:416
2.084:469
2.084:524
2.085:563
2.085:565
2.088:553
2.088:560
2.088:552
2.088:520
2.088:487
2.089:490
2.089:458
2.089:429
2.089:392
2.089:371
2.093:353
2.093:374
2.093:399
2.094:412
2.094:412
2.094:422
2.094:451
2.094:458
2.095:484
2.096:507
2.096:500
2.096:491
2.096:490
2.097:496
2.112:496
2.112:480
2.112:466
2.112:425
2.113:394
2.117:372
2.117:352
2.117:337
2.117:349
2.118:373
2.118:390
2.118:394
2.118:399
2.118:428
2.119:445
2.121:462
2.121:475
2.121:492
2.121:499
2.122:480
2.122:455
2.122:433
2.122:427
2.122:387
2.125:364
2.125:334
2.125:325
2.126:327
2.126:340
2.126:354
2.141:381
2.141:397
2.145:402
2.145:424
2.145:435
2.145:447
2.146:459
2.146:476
2.146:499
2.146:492
2.146:487
2.147:471
2.149:462
2.149:418
2.149:393
2.149:363
2.149:359
2.150:380
2.150:410
2.150:418
2.151:408
2.154:407
2.154:422
2.154:452
2.154:481
2.154:517
2.154:549
2.155:564
2.155:580
2.155:570
2.169:570
2.174:540
2.174:518
2.174:505
2.174:470
2.175:468
2.175:457
2.175:430
2.175:409
2.175:430
2.176:488
2.178:509
2.178:520
2.178:535
2.178:564
2.179:576
2.179:612
2.179:644
2.179:642
2.179:646
2.182:629
2.182:606
2.182:609
2.182:600
2.183:555
2.183:531
2.183:503
2.183:490
2.183:495
2.184:509
2.202:542
2.202:565
2.202:586
2.203:595
2.203:619
2.203:633
2.203:650
2.203:669
2.206:674
2.206:682
2.207:662
2.207:643
2.207:636
2.207:626
2.207:585
2.208:567
2.208:536
2.210:511
2.210:502
2.210:512
2.210:529
2.210:551
2.210:564
2.212:572
2.212:603
2.212:631
2.212:655
2.215:656
2.215:657
2.215:668
2.231:668
2.231:651
2.231:621
2.231:607
2.232:628
2.232:620
2.232:600
2.235:562
2.235:515
2.235:486
2.236:497
2.236:520
2.236:550
2.236:561
2.236:577
2.237:608
2.240:606
2.240:628
2.240:649
2.240:641
2.240:646
2.240:621
2.241:624
2.241:630
2.241:615
2.241:552
2.243:504
2.243:481
2.243:478
2.243:482
2.259:506
2.260:508
2.260:528
2.264:542
2.264:551
2.264:571
2.264:588
2.265:614
2.265:635
2.265:642
2.265:654
2.265:629
2.266:600
2.268:578
2.268:563
2.268:520
2.268:493
2.269:474
2.269:460
2.269:446
2.269:463
2.269:480
2.270:487
2.272:485
2.272:512
2.272:564
2.273:615
2.273:636
2.273:631
2.273:619
2.288:619
2.288:633
2.289:638
2.292:617
2.292:578
2.292:562
2.292:532
2.292:488
2.292:461
2.293:449
2.293:452
2.293:495
2.297:531
2.297:532
2.297:518
2.297:509
2.298:538
2.298:576
2.298:591
2.298:591
2.298:588
2.299:602
2.301:596
2.301:588
2.301:580
2.301:543
2.301:487
2.302:457
2.302:451
2.302:454
2.321:453
2.321:471
2.321:481
2.321:470
2.321:462
2.321:492
2.321:532
2.321:569
2.321:604
2.325:607
2.325:603
2.325:625
2.325:611
2.325:569
2.325:539
2.327:507
2.327:474
2.327:456
2.330:448
2.330:438
2.330:431
2.330:446
2.331:460
2.331:464
2.331:485
2.331:512
2.331:537
2.331:553
2.334:568
2.334:583
2.350:583
2.350:588
2.350:605
2.351:579
2.351:556
2.351:547
2.351:520
2.351:486
2.354:453
2.354:439
2.354:427
2.354:422
2.355:429
2.355:450
2.355:466
2.355:473
2.355:480
2.356:468
2.358:531
2.359:587
2.359:603
2.359:619
2.359:619
2.359:585
2.360:544
2.360:525
2.360:510
2.362:483
2.362:455
2.362:434
2.379:416
2.379:410
2.379:425
2.379:440
2.379:475
2.383:500
2.383:521
2.383:532
2.383:540
2.384:553
2.384:568
2.384:570
2.384:580
2.384:557
2.387:536
2.387:521
2.387:483
2.387:441
2.388:427
2.388:442
2.388:434
2.388:417
2.388:438
2.389:459
2.391:472
2.391:472
2.392:496
2.392:518
2.392:528
2.392:528
2.407:528
2.407:535
2.407:558
2.407:593
2.411:605
2.411:583
2.411:540
2.412:478
2.412:445
2.413:416
2.413:413
2.413:437
2.413:458
2.413:495
2.415:513
2.415:497
2.415:486
2.415:499
2.415:513
2.415:539
2.416:545
2.416:558
2.416:566
2.420:571
2.420:553
2.420:531
2.420:533
2.420:523
2.421:499
2.421:452
2.435:415
2.440:401
2.441:414
2.441:448
2.442:468
2.443:488
2.443:494
2.443:508
2.443:519
2.443:548
2.445:559
2.445:568
2.445:572
2.445:576
2.446:557
2.446:539
2.446:530
2.446:495
2.446:478
2.446:452
2.448:430
2.448:412
2.448:416
2.448:432
2.449:449
2.449:465
2.449:468
2.449:492
2.449:509
2.452:540
2.469:540
2.469:563
2.469:582
2.469:590
2.469:596
2.469:568
2.470:539
2.470:520
2.470:472
2.473:431
2.473:408
2.473:418
2.473:405
2.474:417
2.474:472
2.474:517
2.474:515
2.475:508
2.475:500
2.477:486
2.477:549
2.477:567
2.477:573
2.478:584
2.478:588
2.478:560
2.478:531
2.479:523
2.479:484
2.481:458
2.497:432
2.497:417
2.498:404
2.498:417
2.498:431
2.498:443
2.501:449
2.501:484
2.501:567
2.501:586
2.502:589
2.502:578
2.502:562
2.502:563
2.502:557
2.503:531
2.506:514
2.506:512
2.506:486
2.506:461
2.507:425
2.507:410
2.507:412
2.507:426
2.507:441
2.509:459
2.509:480
2.509:501
2.509:530
2.509:534
2.526:534
2.526:548
2.526:556
2.527:577
2.527:601
2.530:610
2.530:573
2.530:533
2.530:497
2.531:456
2.531:446
2.531:418
2.531:407
2.531:398
2.531:406
2.534:416
2.534:426
2.534:440
2.534:446
2.535:464
2.535:477
2.535:494
2.535:504
2.535:513
2.538:526
2.538:517
2.538:495
2.538:516
2.539:515
2.539:450
2.554:411
2.554:387
2.558:382
2.559:384
2.559:391
2.559:409
2.559:421
2.559:424
2.560:434
2.560:466
2.560:474
2.560:495
2.563:513
2.563:529
2.564:553
2.564:544
2.565:523
2.566:509
2.568:495
2.568:447
2.568:427
2.569:406
2.569:389
2.569:379
2.569:394
2.569:420
2.569:439
2.569:443
2.569:456
2.570:500
2.583:500
2.588:525
2.588:553
2.588:576
2.588:577
2.589:606
2.589:599
2.589:559
2.589:534
2.589:539
2.589:502
2.591:476
2.592:451
2.592:438
2.592:432
2.592:441
2.592:460
2.592:480
2.593:486
2.593:486
2.596:504
2.596:515
2.596:556
2.596:601
2.597:611
2.597:614
2.597:600
2.597:591
2.597:573
2.597:546
2.616:486
2.616:457
2.617:437
2.617:452
2.617:471
2.617:468
2.617:460
2.617:489
2.620:501
2.620:500
2.620:506
2.620:520
2.621:543
2.621:559
2.621:595
2.621:639
2.621:625
2.624:584
2.625:546
2.625:525
2.625:487
2.625:477
2.625:450
2.625:429
2.625:428
2.625:470
2.625:495
2.627:507
2.628:503
2.628:501
2.645:501
2.645:532
2.645:549
2.645:571
2.646:599
2.646:599
2.647:603
2.648:592
2.649:581
2.649:566
2.649:536
2.649:462
2.649:440
2.649:428
2.650:411
2.650:438
2.653:477
2.653:490
2.653:516
2.653:522
2.654:517
2.654:530
2.654:541
2.654:546
2.654:563
2.655:582
2.657:605
2.658:589
2.659:573
2.659:564
2.673:547
2.673:496
2.673:457
2.677:427
2.677:421
2.679:423
2.679:453
2.679:485
2.679:498
2.679:497
2.680:498
2.680:523
2.680:546
2.682:569
2.682:582
2.682:604
2.682:632
2.682:622
2.682:617
2.682:616
2.682:599
2.682:530
2.682:473
2.686:430
2.686:402
2.686:376
2.686:375
2.686:365
2.687:337
2.687:383
2.702:383
2.702:391
2.702:359
2.706:313
2.706:266
2.706:233
2.706:192
2.707:153
2.707:92
2.707:19
2.707:17
2.707:18
2.708:18
2.710:18
2.710:19
2.710:19
2.710:19
2.710:19
2.711:19
2.711:19
2.711:19
2.711:19
2.711:19
2.712:19
2.712:18
2.714:18
2.714:18
2.714:17
2.715:18
2.715:103
2.734:200
2.735:281
2.735:364
2.735:452
2.735:520
2.735:576
2.735:626
2.736:677
2.736:691
2.739:687
2.739:669
2.740:655
2.740:641
2.740:639
2.740:648
2.740:658
2.740:656
2.741:670
2.743:641
2.743:623
2.743:608
2.743:582
2.743:549
2.743:528
2.743:545
2.743:545
2.744:540
2.744:561
2.747:580
2.747:593
2.764:593
2.764:604
2.764:611
2.764:627
2.764:650
2.765:668
2.765:681
2.765:686
2.768:706
2.768:688
2.768:658
2.768:641
2.769:614
2.769:579
2.769:541
2.769:526
2.769:528
2.769:538
2.771:551
2.771:564
2.772:581
2.772:616
2.772:654
2.772:650
2.772:652
2.773:678
2.773:705
2.776:697
2.776:690
2.777:675
2.791:658
2.791:636
2.793:593
2.793:563
2.793:536
2.796:522
2.796:505
2.796:503
2.796:528
2.797:548
2.797:567
2.797:581
2.797:597
2.797:605
2.800:606
2.800:601
2.800:620
2.800:623
2.800:636
2.800:621
2.801:602
2.801:611
2.801:598
2.801:579
2.805:541
2.805:508
2.805:479
2.805:478
2.806:491
2.806:509
2.821:509
2.821:517
2.821:514
2.821:539
2.825:574
2.826:604
2.826:609
2.826:612
2.826:624
2.827:619
2.827:573
2.827:555
2.827:589
2.829:549
2.829:505
2.829:469
2.829:456
2.829:454
2.830:452
2.830:474
2.830:492
2.831:503
2.831:505
2.833:527
2.833:548
2.833:566
2.833:580
2.833:591
2.834:593
2.834:601
2.849:572
2.854:546
2.854:534
2.854:500
2.854:469
2.854:444
2.855:432
2.855:422
2.855:421
2.855:422
2.858:454
2.859:474
2.859:481
2.859:499
2.859:526
2.859:576
2.859:592
2.859:615
2.860:631
2.860:624
2.861:583
2.861:554
2.861:527
2.861:476
2.862:445
2.862:413
2.862:398
2.862:391
2.863:399
2.866:423
2.882:423
2.882:437
2.882:441
2.882:445
2.883:481
2.883:505
2.883:537
2.883:542
2.883:544
2.887:556
2.887:552
2.887:522
2.887:496
2.888:473
2.888:433
2.888:414
2.888:396
2.888:376
2.888:359
2.890:381
2.892:403
2.892:423
2.893:433
2.893:433
2.893:455
2.893:464
2.893:484
2.893:495
2.894:499
2.894:502
2.910:499
2.910:469
2.911:438
2.911:421
2.911:378
2.911:355
2.915:321
2.915:343
2.915:391
2.915:399
2.916:381
2.916:372
2.916:387
2.916:391
2.916:427
2.916:449
2.919:456
2.919:464
2.919:470
2.919:470
2.920:466
2.920:448
2.920:432
2.921:417
2.921:387
2.923:370
2.923:342
2.923:327
2.923:321
2.924:334
2.939:334
2.939:357
2.939:377
2.939:388
2.940:395
2.943:417
2.944:425
2.944:447
2.944:471
2.945:496
2.945:515
2.945:492
2.945:477
2.946:465
2.946:458
2.948:437
2.948:423
2.948:385
2.948:366
2.949:358
2.949:375
2.949:397
2.949:420
2.949:439
2.952:450
2.952:488
2.952:510
2.952:532
2.952:545
2.953:547
2.968:571
2.968:571
2.972:548
2.972:531
2.972:524
2.972:489
2.973:474
2.973:449
2.973:431
2.973:438
2.973:458
2.974:483
2.976:509
2.978:520
2.978:532
2.978:572
2.978:608
2.978:637
2.978:648
2.978:645
2.978:649
2.980:624
2.980:592
2.980:584
2.980:594
2.980:560
2.980:546
2.980:528
2.980:523
2.982:512
2.997:512
3.001:499
3.001:513
3.001:540
3.001:552
3.001:574
3.001:620
3.001:645
3.001:662
3.001:666
3.001:660
3.005:678
3.005:668
3.005:638
3.005:634
3.006:629
3.006:587
3.006:567
3.006:558
3.006:557
3.009:538
3.009:523
3.009:540
3.009:571
3.010:580
3.011:606
3.011:648
3.011:652
3.011:655
3.011:657
3.029:653
3.030:661
3.030:651
3.030:630
3.031:622
3.031:616
3.031:564
3.031:536
3.034:516
3.034:497
3.034:480
3.034:509
3.034:566
3.034:613
3.035:613
3.035:572
3.035:572
3.038:596
3.038:643
3.038:666
3.038:673
3.039:664
3.039:647
3.039:615
3.039:605
3.039:592
3.040:541
3.042:519
3.042:509
3.042:500
3.058:500
3.059:484
3.059:506
3.059:522
3.059:532
3.059:537
3.059:553
3.063:580
3.063:591
3.063:607
3.064:620
3.064:624
3.064:636
3.064:613
3.064:589
3.065:590
3.067:574
3.067:530
3.067:515
3.067:488
3.067:455
3.068:444
3.068:465
3.068:490
3.068:513
3.068:515
3.071:516
3.071:535
3.071:571
3.071:600
3.087:650
3.087:663
3.087:658
3.091:624
3.092:588
3.092:565
3.092:550
3.092:511
3.093:487
3.093:467
3.094:455
3.094:447
3.094:473
3.095:493
3.095:502
3.095:504
3.096:511
3.096:536
3.096:573
3.096:614
3.096:629
3.096:615
3.099:616
3.099:604
3.099:584
3.099:563
3.100:559
3.100:529
3.100:504
3.100:468
3.115:468
3.116:431
3.120:417
3.120:450
3.120:479
3.120:490
3.121:498
3.121:513
3.121:527
3.121:538
3.121:552
3.121:571
3.124:580
3.124:606
3.124:600
3.124:567
3.124:542
3.124:539
3.124:484
3.125:451
3.125:442
3.125:427
3.127:414
3.129:458
3.129:512
3.129:535
3.129:527
3.129:509
3.129:507
3.129:520
3.149:547
3.149:576
3.149:594
3.149:611
3.149:588
3.149:590
3.149:567
3.149:512
3.150:469
3.153:441
3.153:416
3.153:400
3.153:414
3.154:446
3.154:457
3.154:481
3.154:509
3.154:521
3.157:532
3.157:548
3.158:565
3.158:577
3.158:583
3.158:600
3.158:584
3.159:553
3.159:528
3.159:503
3.161:482
3.161:457
3.177:457
3.177:432
3.177:416
3.177:406
3.177:426
3.177:444
3.177:460
3.178:471
3.180:481
3.180:499
3.180:530
3.182:561
3.182:573
3.182:568
3.182:572
3.182:559
3.182:541
3.185:526
3.185:498
3.185:468
3.185:445
3.186:426
3.186:414
3.186:405
3.186:428
3.186:450
3.186:467
3.189:472
3.189:485
3.190:518
3.205:556
3.205:576
3.205:586
3.206:581
3.206:577
3.210:547
3.210:529
3.211:537
3.211:508
3.211:474
3.212:440
3.212:425
3.212:418
3.212:413
3.214:424
3.214:439
3.214:451
3.215:464
3.215:488
3.215:509
3.215:530
3.215:547
3.216:573
3.216:578
3.218:619
3.218:624
3.218:594
3.218:556
3.219:493
3.219:452
3.234:452
3.234:425
3.234:408
3.234:394
3.239:405
3.239:431
3.239:464
3.239:480
3.239:486
3.240:507
3.240:521
3.240:533
3.241:533
3.242:545
3.242:559
3.242:572
3.243:560
3.243:551
3.243:552
3.244:524
3.244:479
3.244:438
3.244:430
3.246:413
3.246:405
3.246:427
3.246:447
3.247:464
3.247:475
3.247:506
3.262:539
3.267:565
3.267:545
3.267:551
3.267:572
3.267:585
3.267:568
3.267:547
3.267:536
3.267:499
3.271:471
3.271:440
3.271:422
3.271:411
3.272:420
3.272:438
3.272:461
3.272:471
3.272:462
3.272:492
3.274:513
3.274:545
3.274:553
3.276:563
3.276:573
3.276:583
3.276:572
3.277:560
3.277:548
3.279:503
3.296:503
3.296:473
3.296:435
3.296:411
3.297:398
3.297:412
3.297:451
3.297:466
3.297:464
3.300:475
3.300:501
3.300:514
3.301:537
3.301:550
3.301:554
3.301:572
3.301:610
3.301:598
3.301:565
3.304:554
3.304:511
3.304:481
3.304:438
3.305:412
3.305:408
3.305:421
3.305:442
3.305:472
3.307:486
3.308:471
3.324:477
3.324:477
3.324:518
3.325:543
3.325:573
3.325:580
3.329:564
3.329:526
3.329:526
3.329:523
3.329:467
3.329:442
3.329:428
3.329:428
3.329:420
3.329:411
3.333:427
3.333:455
3.333:466
3.333:472
3.334:490
3.334:521
3.334:546
3.334:560
3.334:552
3.337:546
3.337:546
3.337:528
3.337:522
3.338:509
3.353:509
3.353:458
3.353:432
3.353:391
3.354:370
3.357:358
3.357:358
3.357:386
3.358:402
3.358:418
3.358:429
3.358:461
3.358:487
3.359:514
3.359:526
3.362:526
3.362:533
3.362:534
3.363:521
3.363:514
3.363:505
3.364:446
3.364:415
3.364:393
3.365:378
3.365:371
3.365:384
3.365:409
3.366:430
3.366:434
3.382:437
3.382:466
3.386:477
3.386:488
3.386:523
3.386:539
3.386:549
3.387:546
3.387:521
3.387:509
3.387:525
3.387:485
3.390:445
3.390:412
3.390:405
3.390:408
3.390:422
3.390:452
3.390:483
3.391:489
3.391:501
3.394:532
3.394:547
3.394:559
3.394:565
3.394:567
3.394:573
3.394:580
3.394:574
3.394:544
3.411:544
3.415:545
3.415:518
3.415:498
3.415:469
3.416:450
3.416:449
3.416:453
3.416:486
3.416:506
3.417:492
3.419:486
3.419:511
3.419:529
3.419:553
3.419:581
3.419:592
3.419:587
3.419:557
3.420:525
3.423:522
3.423:526
3.423:490
3.423:473
3.424:445
3.424:423
3.424:424
3.425:448
3.425:468
3.425:476
3.443:477
3.443:476
3.443:497
3.443:524
3.444:566
3.444:592
3.444:586
3.447:600
3.447:606
3.447:587
3.448:564
3.448:545
3.448:496
3.448:466
3.448:440
3.449:423
3.449:411
3.451:445
3.451:481
3.452:514
3.452:523
3.452:523
3.452:539
3.452:547
3.453:571
3.453:593
3.453:596
3.455:600
3.455:590
3.455:570
3.472:570
3.472:555
3.472:550
3.472:498
3.473:464
3.473:432
3.473:428
3.476:444
3.477:473
3.477:486
3.477:479
3.477:462
3.477:474
3.477:520
3.478:560
3.478:578
3.480:591
3.480:603
3.480:611
3.480:573
3.480:544
3.480:528
3.480:519
3.480:480
3.482:458
3.482:436
3.484:425
3.484:420
3.484:423
3.484:439
3.500:457
3.500:487
3.500:515
3.505:548
3.505:576
3.505:606
3.505:640
3.505:655
3.506:658
3.506:617
3.506:578
3.506:541
3.506:505
3.509:432
3.509:369
3.509:348
3.509:322
3.509:289
3.510:278
3.510:268
3.510:239
3.510:196
3.513:158
3.513:132
3.513:110
3.513:73
3.513:27
3.514:17
3.514:17
3.514:17
3.529:17
3.529:17
3.529:18
3.534:18
3.534:19
3.534:19
3.534:20
3.534:20
3.535:20
3.535:20
3.535:20
3.535:20
3.535:19
3.535:19
3.536:18
3.538:17
3.538:17
3.538:111
3.538:234
3.539:361
3.539:467
3.539:575
3.539:657
3.539:704
3.539:712
3.541:672
3.541:619
3.541:593
3.541:572
3.541:579
3.562:607
3.562:625
3.563:613
3.563:611
3.563:628
3.563:646
3.563:651
3.563:655
3.564:653
3.566:664
3.566:665
3.566:666
3.566:660
3.567:635
3.567:605
3.567:586
3.567:561
3.567:524
3.570:513
3.570:556
3.570:578
3.570:582
3.571:595
3.571:606
3.571:625
3.571:649
3.571:669
3.572:679
3.574:687
3.574:714
3.590:714
3.591:697
3.591:676
3.591:655
3.591:622
3.592:589
3.592:563
3.592:544
3.595:514
3.595:506
3.595:524
3.595:558
3.595:577
3.596:593
3.596:597
3.596:598
3.596:609
3.599:639
3.599:656
3.599:661
3.599:684
3.599:662
3.600:635
3.600:631
3.600:615
3.600:582
3.600:535
3.603:499
3.603:482
3.603:472
3.619:489
3.619:530
3.619:557
3.619:565
3.619:574
3.623:586
3.623:597
3.623:598
3.625:605
3.625:627
3.625:646
3.625:623
3.625:607
3.626:605
3.627:594
3.627:563
3.627:522
3.627:485
3.627:452
3.627:449
3.627:472
3.629:492
3.629:509
3.629:521
3.631:534
3.631:548
3.631:576
3.631:603
3.632:618
3.632:615
3.648:615
3.648:619
3.648:600
3.648:565
3.651:549
3.651:525
3.651:512
3.651:471
3.651:449
3.651:434
3.653:433
3.653:450
3.653:476
3.656:498
3.656:510
3.656:529
3.658:529
3.658:555
3.658:567
3.659:566
3.659:568
3.659:592
3.659:583
3.660:553
3.660:530
3.660:498
3.660:464
3.660:458
3.660:454
3.660:431
3.676:429
3.681:439
3.681:459
3.681:475
3.681:473
3.681:491
3.681:512
3.681:530
3.681:538
3.682:547
3.685:546
3.685:553
3.685:544
3.685:529
3.686:520
3.686:482
3.686:453
3.686:428
3.686:407
3.687:387
3.689:395
3.689:411
3.689:430
3.689:432
3.689:430
3.690:469
3.691:488
3.691:508
3.691:515
3.692:518
3.709:518
3.709:522
3.709:534
3.709:526
3.709:511
3.709:501
3.710:448
3.710:382
3.710:356
3.713:374
3.714:385
3.714:385
3.714:395
3.715:399
3.715:402
3.715:412
3.715:435
3.716:442
3.716:456
3.718:454
3.718:471
3.718:485
3.718:491
3.718:479
3.718:460
3.718:449
3.719:411
3.719:391
3.721:351
3.721:332
3.738:329
3.738:333
3.738:349
3.739:367
3.739:373
3.739:384
3.741:412
3.742:421
3.742:441
3.742:455
3.742:467
3.742:477
3.742:475
3.742:451
3.742:429
3.743:411
3.746:379
3.746:360
3.746:321
3.746:287
3.746:288
3.746:325
3.747:359
3.747:393
3.747:428
3.750:427
3.750:442
3.750:447
3.750:472
3.750:486
3.766:486
3.766:487
3.767:501
3.767:502
3.767:483
3.771:471
3.771:469
3.771:435
3.771:409
3.772:381
3.772:360
3.772:352
3.772:373
3.772:405
3.772:443
3.774:464
3.776:447
3.776:484
3.776:510
3.776:531
3.776:538
3.776:562
3.776:600
3.776:596
3.779:575
3.779:567
3.779:560
3.779:514
3.780:498
3.780:489
3.795:481
3.795:471
3.800:480
3.800:496
3.800:516
3.800:531
3.800:547
3.801:577
3.801:589
3.801:617
3.801:641
3.804:658
3.804:676
3.804:669
3.804:650
3.805:624
3.805:600
3.805:545
3.805:508
3.805:487
3.805:491
3.807:514
3.808:559
3.808:581
3.808:602
3.808:589
3.808:587
3.808:609
3.808:621
3.809:651
3.824:651
3.828:681
3.828:690
3.828:701
3.828:687
3.829:664
3.829:634
3.829:613
3.829:581
3.829:567
3.830:532
3.832:506
3.832:499
3.832:523
3.832:546
3.833:576
3.833:588
3.833:584
3.833:605
3.833:634
3.837:652
3.837:659
3.837:655
3.837:676
3.837:671
3.838:646
3.838:630
3.838:613
3.838:564
3.839:539
3.857:515
3.857:503
3.857:501
3.857:524
3.857:532
3.859:538
3.859:551
3.861:565
3.861:588
3.861:601
3.861:629
3.862:655
3.862:652
3.862:665
3.862:641
3.862:623
3.862:604
3.865:583
3.865:529
3.865:507
3.865:509
3.866:512
3.866:499
3.866:499
3.866:508
3.866:520
3.869:536
3.869:553
3.869:585
3.869:612
3.885:612
3.885:639
3.886:642
3.886:626
3.886:628
3.886:620
3.886:594
3.889:568
3.889:565
3.889:519
3.889:476
3.890:450
3.890:436
3.891:449
3.891:498
3.892:526
3.893:540
3.894:539
3.894:537
3.894:561
3.894:583
3.895:595
3.895:608
3.895:611
3.895:627
3.895:621
3.897:603
3.898:575
3.898:540
3.898:497
3.914:485
3.914:469
3.914:454
3.918:460
3.918:473
3.919:488
3.919:512
3.919:531
3.919:538
3.919:566
3.919:585
3.919:591
3.920:582
3.922:591
3.922:612
3.922:592
3.922:570
3.923:551
3.923:535
3.925:507
3.925:489
3.925:468
3.925:455
3.926:439
3.926:453
3.926:471
3.926:485
3.926:495
3.928:513
3.928:540
3.942:540
3.942:558
3.947:571
3.947:573
3.947:569
3.947:576
3.947:568
3.947:567
3.949:565
3.949:541
3.949:492
3.949:453
3.951:431
3.951:446
3.951:446
3.951:463
3.952:481
3.952:485
3.952:486
3.952:480
3.952:504
3.955:547
3.955:553
3.955:565
3.955:581
3.956:599
3.956:589
3.956:569
3.956:543
3.957:505
3.975:470
3.975:440
3.976:418
3.976:401
3.976:414
3.976:444
3.976:468
3.977:490
3.977:503
3.979:505
3.980:529
3.980:551
3.981:565
3.981:579
3.981:598
3.981:611
3.981:580
3.981:539
3.984:511
3.984:483
3.984:454
3.984:435
3.985:421
3.985:412
3.985:415
3.985:434
3.985:452
3.986:454
3.988:455
3.988:477
4.004:477
4.004:505
4.004:548
4.004:581
4.004:590
4.005:576
4.005:590
4.005:565
4.008:530
4.008:528
4.008:501
4.009:462
4.009:425
4.009:408
4.009:407
4.009:416
4.010:452
4.012:471
4.012:479
4.012:486
4.012:498
4.012:510
4.012:532
4.012:551
4.013:564
4.013:574
4.013:585
4.016:549
4.016:517
4.016:517
4.033:495
4.033:447
4.033:409
4.033:394
4.034:407
4.037:438
4.037:468
4.037:468
4.038:476
4.038:491
4.038:525
4.038:549
4.038:563
4.038:549
4.042:546
4.042:562
4.042:588
4.042:574
4.043:547
4.043:529
4.043:495
4.043:464
4.044:430
4.044:417
4.045:413
4.045:422
4.045:450
4.045:465
4.045:473
4.045:483
4.061:483
4.061:505
4.061:517
4.061:539
4.066:538
4.066:529
4.066:540
4.066:557
4.067:550
4.067:534
4.067:539
4.067:541
4.067:534
4.070:495
4.070:473
4.071:441
4.071:418
4.071:423
4.071:448
4.072:476
4.072:493
4.072:508
4.072:512
4.074:537
4.074:556
4.074:564
4.074:572
4.075:572
4.075:549
4.075:543
4.090:535
4.094:495
4.094:473
4.095:456
4.095:442
4.095:419
4.095:391
4.095:432
4.096:475
4.096:488
4.099:488
4.099:496
4.099:494
4.099:523
4.099:551
4.099:557
4.100:563
4.100:563
4.100:550
4.100:544
4.102:538
4.102:493
4.102:464
4.103:441
4.103:423
4.103:423
4.103:411
4.103:422
4.104:439
4.106:447
4.122:447
4.123:453
4.123:483
4.123:507
4.125:549
4.125:577
4.125:585
4.125:592
4.125:587
4.127:541
4.127:517
4.127:513
4.127:476
4.128:452
4.128:423
4.128:416
4.128:410
4.128:402
4.128:391
4.131:402
4.131:414
4.132:420
4.132:443
4.132:462
4.132:483
4.132:484
4.133:516
4.133:567
4.135:592
4.135:561
4.151:520
4.151:489
4.152:444
4.152:430
4.152:414
4.152:397
4.156:381
4.156:400
4.156:420
4.157:428
4.157:444
4.157:457
4.157:470
4.157:474
4.157:503
4.157:521
4.159:531
4.159:543
4.160:537
4.160:527
4.160:508
4.161:486
4.161:452
4.161:443
4.161:418
4.164:392
4.164:393
4.164:421
4.164:427
4.165:451
4.180:451
4.180:475
4.180:492
4.180:522
4.180:524
4.184:548
4.184:566
4.185:581
4.185:626
4.185:624
4.185:588
4.185:570
4.185:552
4.186:492
4.186:460
4.188:441
4.188:443
4.188:446
4.188:441
4.189:454
4.189:470
4.189:479
4.190:472
4.190:507
4.193:543
4.193:576
4.193:590
4.193:592
4.194:600
4.194:610
4.209:598
4.209:583
4.213:558
4.213:498
4.213:459
4.213:460
4.214:455
4.214:447
4.214:454
4.214:457
4.214:471
4.216:484
4.217:503
4.217:528
4.217:545
4.217:560
4.217:571
4.217:577
4.217:586
4.218:582
4.218:573
4.221:554
4.221:562
4.221:514
4.221:485
4.221:456
4.222:448
4.222:441
4.222:446
4.222:450
4.237:450
4.242:463
4.242:477
4.242:493
4.243:529
4.243:560
4.243:591
4.243:601
4.243:595
4.243:599
4.243:582
4.246:555
4.246:560
4.246:541
4.246:495
4.247:476
4.247:468
4.247:458
4.247:442
4.247:449
4.250:461
4.250:469
4.250:464
4.250:457
4.250:513
4.251:564
4.251:577
4.251:574
4.251:566
4.251:582
4.270:580
4.270:555
4.270:527
4.270:521
4.270:504
4.270:495
4.271:474
4.275:452
4.275:438
4.275:439
4.275:460
4.276:478
4.276:489
4.276:508
4.276:540
4.276:555
4.277:565
4.279:582
4.279:593
4.279:605
4.279:595
4.279:586
4.280:565
4.280:543
4.280:508
4.280:495
4.283:476
4.283:444
4.283:414
4.283:430
4.299:430
4.299:440
4.299:436
4.299:435
4.299:438
4.300:453
4.303:442
4.303:420
4.303:386
4.303:340
4.304:319
4.304:278
4.304:224
4.304:157
4.304:73
4.305:17
4.305:17
4.306:17
4.306:18
4.306:18
4.308:18
4.308:18
4.308:19
4.308:19
4.308:19
4.308:19
4.308:19
4.309:18
4.309:18
4.310:18
4.327:17
4.328:17
4.328:17
4.328:18
4.332:71
4.332:115
4.332:187
4.333:253
4.333:348
4.333:469
4.333:587
4.333:655
4.333:685
4.334:704
4.336:701
4.336:693
4.336:681
4.336:692
4.337:709
4.337:699
4.337:703
4.337:682
4.337:664
4.339:652
4.341:627
4.341:583
4.342:549
4.342:528
4.342:516
4.342:509
4.356:509
4.356:521
4.361:544
4.361:559
4.361:576
4.361:576
4.361:607
4.362:626
4.362:632
4.362:645
4.362:651
4.362:655
4.365:637
4.365:635
4.365:628
4.366:606
4.366:565
4.366:540
4.366:531
4.366:517
4.366:505
4.369:521
4.369:542
4.369:558
4.369:563
4.369:586
4.370:615
4.370:627
4.370:645
4.370:657
4.389:651
4.389:659
4.389:640
4.389:628
4.390:634
4.390:587
4.390:539
4.390:506
4.390:479
4.393:450
4.393:459
4.393:498
4.393:541
4.393:561
4.393:559
4.393:564
4.395:574
4.395:584
4.397:596
4.397:621
4.397:640
4.397:639
4.398:607
4.398:591
4.398:583
4.398:564
4.398:557
4.399:543
4.401:525
4.401:498
4.417:498
4.417:479
4.418:485
4.418:497
4.418:509
4.418:524
4.418:555
4.419:569
4.421:576
4.422:585
4.422:605
4.422:620
4.423:626
4.423:605
4.423:580
4.424:571
4.424:530
4.426:490
4.426:456
4.426:436
4.426:451
4.427:464
4.427:489
4.427:494
4.427:483
4.427:467
4.428:480
4.430:497
4.431:530
4.431:561
4.446:584
4.446:587
4.446:591
4.446:569
4.446:547
4.450:531
4.451:489
4.451:467
4.451:459
4.451:440
4.451:412
4.452:405
4.452:424
4.452:442
4.455:458
4.455:471
4.455:499
4.455:514
4.456:536
4.456:546
4.456:555
4.456:560
4.457:570
4.457:552
4.458:524
4.458:501
4.458:457
4.458:423
4.459:403
4.459:391
4.474:391
4.475:381
4.475:371
4.475:403
4.479:432
4.479:446
4.479:464
4.479:502
4.479:512
4.480:513
4.480:507
4.480:508
4.481:518
4.483:538
4.483:535
4.483:536
4.483:533
4.484:465
4.484:405
4.484:365
4.484:353
4.484:356
4.485:360
4.487:375
4.487:391
4.487:422
4.487:442
4.488:464
4.488:462
4.488:458
4.507:457
4.507:466
4.507:491
4.509:505
4.509:487
4.509:474
4.509:459
4.509:398
4.509:367
4.509:349
4.512:334
4.512:323
4.512:326
4.512:347
4.513:376
4.513:394
4.513:396
4.513:416
4.513:419
4.513:437
4.516:445
4.516:460
4.516:471
4.516:486
4.516:466
4.517:436
4.517:416
4.517:368
4.517:345
4.520:309
4.536:309
4.537:285
4.537:280
4.537:297
4.537:324
4.537:348
4.538:358
4.538:366
4.538:401
4.540:420
4.541:440
4.541:458
4.541:459
4.541:470
4.541:472
4.541:456
4.543:438
4.543:431
4.543:404
4.545:383
4.545:355
4.545:333
4.545:326
4.545:340
4.546:360
4.546:376
4.546:392
4.546:406
4.549:465
4.549:484
4.564:517
4.565:545
4.565:558
4.565:571
4.565:573
4.565:545
4.569:530
4.570:510
4.570:448
4.570:429
4.570:421
4.570:425
4.570:426
4.571:448
4.571:480
4.573:506
4.575:512
4.575:528
4.575:570
4.575:590
4.575:599
4.576:614
4.576:625
4.576:644
4.576:642
4.577:629
4.577:621
4.577:613
4.577:570
4.578:534
4.594:534
4.594:517
4.594:502
4.594:513
4.594:533
4.598:559
4.598:568
4.598:566
4.598:566
4.599:610
4.599:651
4.599:686
4.599:681
4.599:671
4.600:678
4.602:669
4.602:674
4.602:677
4.602:667
4.602:597
4.603:550
4.603:523
4.603:511
4.603:525
4.606:535
4.606:549
4.606:571
4.607:586
4.607:596
4.607:619
4.622:628
4.622:624
4.627:625
4.627:645
4.627:691
4.627:693
4.628:668
4.628:643
4.628:620
4.628:566
4.628:542
4.631:523
4.631:513
4.631:512
4.632:534
4.632:551
4.632:554
4.632:567
4.632:565
4.633:600
4.633:625
4.635:647
4.635:658
4.635:675
4.635:702
4.636:681
4.636:632
4.636:593
4.636:567
4.636:537
4.651:537
4.656:521
4.656:513
4.657:512
4.657:512
4.657:516
4.657:524
4.657:533
4.657:535
4.658:538
4.660:565
4.660:588
4.660:613
4.660:629
4.660:629
4.660:638
4.661:624
4.661:620
4.661:629
4.661:614
4.664:554
4.664:533
4.664:526
4.664:481
4.665:465
4.665:487
4.665:504
4.665:515
4.665:519
4.666:527
4.684:557
4.684:588
4.684:627
4.684:651
4.685:644
4.685:638
4.685:605
4.688:579
4.688:563
4.688:545
4.688:507
4.689:489
4.690:494
4.690:484
4.690:473
4.690:480
4.691:503
4.691:523
4.692:517
4.692:526
4.692:546
4.692:569
4.693:590
4.693:607
4.693:615
4.693:630
4.696:623
4.696:604
4.696:583
4.696:554
4.712:554
4.712:505
4.712:485
4.713:475
4.713:456
4.713:436
4.717:442
4.717:465
4.717:462
4.717:467
4.718:503
4.718:556
4.718:610
4.718:635
4.718:638
4.719:613
4.721:598
4.721:578
4.721:567
4.721:552
4.722:536
4.722:499
4.722:478
4.722:464
4.722:449
4.724:425
4.725:434
4.725:455
4.725:471
4.725:471
4.741:481
4.741:503
4.741:538
4.746:565
4.746:600
4.746:607
4.746:611
4.747:580
4.747:559
4.747:543
4.747:524
4.747:486
4.748:443
4.749:430
4.750:446
4.750:450
4.750:460
4.750:458
4.750:466
4.751:490
4.751:519
4.751:533
4.754:545
4.754:558
4.754:573
4.754:582
4.754:595
4.754:576
4.755:554
4.755:535
4.769:535
4.769:503
4.774:460
4.774:439
4.774:423
4.775:410
4.775:409
4.775:426
4.775:444
4.776:452
4.776:453
4.776:472
4.778:485
4.778:515
4.778:545
4.779:589
4.779:591
4.779:579
4.779:539
4.779:528
4.779:571
4.781:568
4.781:513
4.781:463
4.783:426
4.783:402
4.783:408
4.783:444
4.783:467
4.784:471
4.802:476
4.802:498
4.802:520
4.802:545
4.804:559
4.804:573
4.804:582
4.804:580
4.804:549
4.806:525
4.806:505
4.807:461
4.807:453
4.807:427
4.807:415
4.808:416
4.808:424
4.808:451
4.811:465
4.811:478
4.811:490
4.811:508
4.811:511
4.812:520
4.812:528
4.812:549
4.812:577
4.812:599
4.815:598
4.815:578
4.831:578
4.831:556
4.831:520
4.831:492
4.831:453
4.832:426
4.832:418
4.832:415
4.836:441
4.836:475
4.836:492
4.836:484
4.837:491
4.837:516
4.837:536
4.837:538
4.837:559
4.840:579
4.840:590
4.841:572
4.841:555
4.841:539
4.841:496
4.842:468
4.842:438
4.842:424
4.843:411
4.843:413
4.843:438
4.843:466
4.859:473
4.859:473
4.860:495
4.860:514
4.860:536
4.863:554
4.864:562
4.864:571
4.864:582
4.864:560
4.864:543
4.865:520
4.865:468
4.865:443
4.868:417
4.868:393
4.868:394
4.868:413
4.869:459
4.869:480
4.869:484
4.869:492
4.869:512
4.870:545
4.872:586
4.873:605
4.873:605
4.873:602
4.873:583
4.873:537
4.888:537
4.888:530
4.889:521
4.889:480
4.893:473
4.893:460
4.893:439
4.893:442
4.894:454
4.894:467
4.894:465
4.894:459
4.894:468
4.897:499
4.897:514
4.897:545
4.897:560
4.898:579
4.898:600
4.898:601
4.898:575
4.898:537
4.899:522
4.901:478
4.901:447
4.901:416
4.901:414
4.901:414
4.901:423
4.902:434
4.921:448
4.921:454
4.921:465
4.922:511
4.922:539
4.922:565
4.924:578
4.924:568
4.924:592
4.924:591
4.925:555
4.925:528
4.926:508
4.926:467
4.926:473
4.926:471
4.927:455
4.927:420
4.927:403
4.927:422
4.929:455
4.929:479
4.929:492
4.930:500
4.930:501
4.931:539
4.931:558
4.931:564
4.931:571
4.934:560
4.950:560
4.950:542
4.950:528
4.950:514
4.950:451
4.951:413
4.951:386
4.951:397
4.951:422
4.954:435
4.954:446
4.954:454
4.954:465
4.955:488
4.955:519
4.955:527
4.955:540
4.957:555
4.957:559
4.958:574
4.958:574
4.959:548
4.959:526
4.959:501
4.959:443
4.959:413
4.959:384
4.959:372
4.962:361
4.962:360
4.978:393
4.978:422
4.979:426
4.979:421
4.979:423
4.979:454
4.983:522
4.983:557
4.983:558
4.983:559
4.983:550
4.984:522
4.984:487
4.984:468
4.984:431
4.987:414
4.987:404
4.987:395
4.987:378
4.988:386
4.988:412
4.988:441
4.988:454
4.988:465
4.989:495
4.991:498
4.991:511
4.991:522
4.991:529
4.991:541
5.007:541
5.007:530
5.007:516
5.007:523
5.007:525
5.011:482
5.011:447
5.011:415
5.011:398
5.012:402
5.012:423
5.012:442
5.012:464
5.012:477
5.013:493
5.015:523
5.015:540
5.015:566
5.016:583
5.016:587
5.016:602
5.016:596
5.017:574
5.017:557
5.020:534
5.020:486
5.020:458
5.020:433
5.020:425
5.021:414
5.036:432
5.036:461
5.040:465
5.040:478
5.040:494
5.040:522
5.040:529
5.040:548
5.041:590
5.041:588
5.041:590
5.044:591
5.044:591
5.044:577
5.044:545
5.045:500
5.045:485
5.045:469
5.045:459
5.045:453
5.047:466
5.048:474
5.048:477
5.048:481
5.048:494
5.049:530
5.049:547
5.049:568
5.049:588
5.049:583
5.064:583
5.069:598
5.069:608
5.069:593
5.069:578
5.069:548
5.069:492
5.069:467
5.069:441
5.070:418
5.072:420
5.072:455
5.073:479
5.073:487
5.073:489
5.073:488
5.073:508
5.074:522
5.074:544
5.074:560
5.077:566
5.077:572
5.077:572
5.078:578
5.078:583
5.078:569
5.079:514
5.079:475
5.079:436
5.079:433
5.097:439
5.098:455
5.098:469
5.098:479
5.098:480
5.098:479
5.098:510
5.101:551
5.101:582
5.101:587
5.101:592
5.102:599
5.102:569
5.102:543
5.102:518
5.102:501
5.103:473
5.105:447
5.105:426
5.105:426
5.107:437
5.107:455
5.107:464
5.107:480
5.108:501
5.108:522
5.109:545
5.109:565
5.109:575
5.110:590
5.125:590
5.126:615
5.126:647
5.126:633
5.126:609
5.126:584
5.130:552
5.130:505
5.131:465
5.131:427
5.131:384
5.131:349
5.131:356
5.131:357
5.131:346
5.131:322
5.134:298
5.134:281
5.135:266
5.135:240
5.135:228
5.135:207
5.135:187
5.136:138
5.136:98
5.136:23
5.138:17
5.138:18
5.138:18
5.139:19
5.154:19
5.154:19
5.154:19
5.154:19
5.158:19
5.158:19
5.159:19
5.159:19
5.159:18
5.160:17
5.160:17
5.161:17
5.161:32
5.161:116
5.161:193
5.163:291
5.163:374
5.163:454
5.164:528
5.164:584
5.164:621
5.165:645
5.165:663
5.165:661
5.166:650
5.167:640
5.167:631
5.167:640
5.167:659
5.168:675
5.182:675
5.183:695
5.187:686
5.188:674
5.188:636
5.188:610
5.188:594
5.188:570
5.189:580
5.189:585
5.189:561
5.189:529
5.191:524
5.191:541
5.191:551
5.191:565
5.193:569
5.193:588
5.193:606
5.193:638
5.193:668
5.196:703
5.196:710
5.196:710
5.196:665
5.196:631
5.197:611
5.197:581
5.197:553
5.197:529
5.216:532
5.216:529
5.216:545
5.216:577
5.216:572
5.216:561
5.217:565
5.217:588
5.217:607
5.220:627
5.220:643
5.220:657
5.221:683
5.221:703
5.221:669
5.221:635
5.221:616
5.222:577
5.224:554
5.224:538
5.224:517
5.225:503
5.225:502
5.225:510
5.225:519
5.225:530
5.225:549
5.226:580
5.228:594
5.228:611
5.244:611
5.245:616
5.245:624
5.245:623
5.245:630
5.245:591
5.246:576
5.246:618
5.249:598
5.249:549
5.249:495
5.249:470
5.249:467
5.250:471
5.250:478
5.250:493
5.250:509
5.253:521
5.253:535
5.254:547
5.254:573
5.254:592
5.254:606
5.254:602
5.255:601
5.255:582
5.255:560
5.257:558
5.257:507
5.258:476
5.274:460
5.274:447
5.274:438
5.274:448
5.278:463
5.278:479
5.278:502
5.278:513
5.278:536
5.279:546
5.279:568
5.279:592
5.279:618
5.279:623
5.281:614
5.282:579
5.282:553
5.282:535
5.282:492
5.282:460
5.282:429
5.284:419
5.284:420
5.284:437
5.286:448
5.286:446
5.286:452
5.287:469
5.287:498
5.287:509
5.302:509
5.302:526
5.302:553
5.302:566
5.305:568
5.306:574
5.306:567
5.306:547
5.306:529
5.306:474
5.306:448
5.307:415
5.307:386
5.310:371
5.310:372
5.311:390
5.311:425
5.311:470
5.312:488
5.312:497
5.312:484
5.312:496
5.313:523
5.314:540
5.315:531
5.315:521
5.315:511
5.315:507
5.316:506
5.316:459
5.335:452
5.335:440
5.336:406
5.336:373
5.336:364
5.336:381
5.337:405
5.337:414
5.337:415
5.337:449
5.339:471
5.339:489
5.339:498
5.339:506
5.340:508
5.340:498
5.340:480
5.340:474
5.340:471
5.343:407
5.344:365
5.344:337
5.344:320
5.344:307
5.344:327
5.345:351
5.345:367
5.345:368
5.345:368
5.347:405
5.363:405
5.364:444
5.364:466
5.364:466
5.364:459
5.364:483
5.365:495
5.365:457
5.365:430
5.368:415
5.368:363
5.368:334
5.368:328
5.369:335
5.369:331
5.369:331
5.369:348
5.369:366
5.369:376
5.372:389
5.372:417
5.372:435
5.372:454
5.372:471
5.372:490
5.372:514
5.373:503
5.373:466
5.376:446
5.376:433
5.392:390
5.392:374
5.392:365
5.392:366
5.393:367
5.393:391
5.397:406
5.397:429
5.397:437
5.398:435
5.398:464
5.398:503
5.398:537
5.398:550
5.398:554
5.400:566
5.400:554
5.400:537
5.401:525
5.401:520
5.401:486
5.401:463
5.401:446
5.401:447
5.402:456
5.405:477
5.405:503
5.406:518
5.406:518
5.406:522
5.421:522
5.421:560
5.421:574
5.421:603
5.422:623
5.425:627
5.425:667
5.425:664
5.425:650
5.425:632
5.426:608
5.426:554
5.426:527
5.426:499
5.426:478
5.428:481
5.429:517
5.429:552
5.429:569
5.429:566
5.429:575
5.430:603
5.430:623
5.430:651
5.434:676
5.434:684
5.434:691
5.434:675
5.434:650
5.435:635
5.449:612
5.449:555
5.454:534
5.454:529
5.454:537
5.454:542
5.454:548
5.455:547
5.455:573
5.455:577
5.455:576
5.458:592
5.458:616
5.458:644
5.458:669
5.459:675
5.459:683
5.459:665
5.459:645
5.459:627
5.459:602
5.462:550
5.462:510
5.462:483
5.462:477
5.462:511
5.462:552
5.463:567
5.463:563
5.463:564
5.478:564
5.482:571
5.482:599
5.482:633
5.482:658
5.482:662
5.482:652
5.482:661
5.484:634
5.484:605
5.487:593
5.487:585
5.487:540
5.487:501
5.488:474
5.488:463
5.488:483
5.488:532
5.488:537
5.489:546
5.490:538
5.490:542
5.490:567
5.492:591
5.492:624
5.492:650
5.492:649
5.492:662
5.492:653
5.495:634
5.510:592
5.510:554
5.510:512
5.510:486
5.512:470
5.512:456
5.512:456
5.515:478
5.515:496
5.516:506
5.516:521
5.516:543
5.516:566
5.516:587
5.517:601
5.517:592
5.517:608
5.519:626
5.519:605
5.519:584
5.519:571
5.519:543
5.519:503
5.521:485
5.521:461
5.521:445
5.523:442
5.523:466
5.523:506
5.524:517
5.539:517
5.539:515
5.539:530
5.540:558
5.540:573
5.540:583
5.544:598
5.544:606
5.544:615
5.544:596
5.545:583
5.545:573
5.545:552
5.545:506
5.545:454
5.545:431
5.548:422
5.548:421
5.548:443
5.548:480
5.549:522
5.549:524
5.549:515
5.549:523
5.549:564
5.551:599
5.552:620
5.552:625
5.552:642
5.552:613
5.568:574
5.568:544
5.568:525
5.572:506
5.572:472
5.574:444
5.574:422
5.574:427
5.574:454
5.575:475
5.575:486
5.575:491
5.575:520
5.577:541
5.577:563
5.577:562
5.577:564
5.577:570
5.577:581
5.578:555
5.578:531
5.578:518
5.581:489
5.581:479
5.581:474
5.582:461
5.582:444
5.582:424
5.582:452
5.582:479
5.596:479
5.596:490
5.602:491
5.602:511
5.602:540
5.602:571
5.602:575
5.603:573
5.603:574
5.603:585
5.603:565
5.603:549
5.605:535
5.606:499
5.606:466
5.606:434
5.606:420
5.606:410
5.607:411
5.607:433
5.607:455
5.609:474
5.609:488
5.609:509
5.610:516
5.610:531
5.610:542
5.610:561
5.610:559
5.611:563
5.629:546
5.630:557
5.630:576
5.630:519
5.630:474
5.630:433
5.631:411
5.631:389
5.631:384
5.634:404
5.634:434
5.634:491
5.634:509
5.635:530
5.635:543
5.635:550
5.635:538
5.635:550
5.638:578
5.638:605
5.639:578
5.639:546
5.639:531
5.640:485
5.640:462
5.640:435
5.640:407
5.640:385
5.641:413
5.641:455
5.658:455
5.658:490
5.658:498
5.658:482
5.659:498
5.659:515
5.659:526
5.659:538
5.662:564
5.663:580
5.663:588
5.663:563
5.663:539
5.663:526
5.664:483
5.664:458
5.664:447
5.667:457
5.667:448
5.667:441
5.667:441
5.668:445
5.668:449
5.668:461
5.668:507
5.668:530
5.668:562
5.670:598
5.670:604
5.671:596
5.687:586
5.687:558
5.687:538
5.687:529
5.691:491
5.691:462
5.691:423
5.692:407
5.692:394
5.692:414
5.692:451
5.692:467
5.693:467
5.693:474
5.695:506
5.695:520
5.695:552
5.695:580
5.696:597
5.696:604
5.696:590
5.696:550
5.696:526
5.699:513
5.699:475
5.700:460
5.700:432
5.700:429
5.700:432
5.700:433
5.716:433
5.716:442
5.716:454
5.716:476
5.719:484
5.719:507
5.720:521
5.720:547
5.720:567
5.720:581
5.720:589
5.720:586
5.721:551
5.724:532
5.724:517
5.724:481
5.724:473
5.724:455
5.725:432
5.725:416
5.725:407
5.725:425
5.725:439
5.727:462
5.727:490
5.728:520
5.728:533
5.728:554
5.728:562
5.728:568
5.749:582
5.749:585
5.749:558
5.749:543
5.749:516
5.751:463
5.751:449
5.751:428
5.751:419
5.751:431
5.753:456
5.753:470
5.754:482
5.754:488
5.754:487
5.755:515
5.755:532
5.756:538
5.756:539
5.757:550
5.757:584
5.757:585
5.758:578
5.758:594
5.758:599
5.759:522
5.759:454
5.759:410
5.759:401
5.760:407
5.777:407
5.777:431
5.778:457
5.778:470
5.778:465
5.778:483
5.778:509
5.778:520
5.779:545
5.781:555
5.781:554
5.781:571
5.781:578
5.781:578
5.781:565
5.781:539
5.781:480
5.783:448
5.783:424
5.785:415
5.785:413
5.785:421
5.785:450
5.786:477
5.786:479
5.786:483
5.786:513
5.786:525
5.789:535
5.790:545
5.806:546
5.806:566
5.806:565
5.807:556
5.807:550
5.807:532
5.810:476
5.810:471
5.810:450
5.810:414
5.811:399
5.811:411
5.811:429
5.811:453
5.812:470
5.814:476
5.814:506
5.814:526
5.814:542
5.815:563
5.815:588
5.815:601
5.815:570
5.815:542
5.816:527
5.818:515
5.818:472
5.818:447
5.818:425
5.819:410
5.835:410
5.835:399
5.835:415
5.835:439
5.835:459
5.839:467
5.839:477
5.839:501
5.840:520
5.840:541
5.840:547
5.840:566
5.840:595
5.842:585
5.843:545
5.843:509
5.843:481
5.843:452
5.844:443
5.844:452
5.844:448
5.844:411
5.844:401
5.844:411
5.847:426
5.847:438
5.847:442
5.847:460
5.847:476
5.847:506
5.862:531
5.862:520
5.867:517
5.867:532
5.867:533
5.867:511
5.867:454
5.868:414
5.868:422
5.868:405
5.868:392
5.871:380
5.871:388
5.872:399
5.872:403
5.872:423
5.872:454
5.872:477
5.872:485
5.874:500
5.874:523
5.875:539
5.875:557
5.875:540
5.876:529
5.876:530
5.876:511
5.876:453
5.876:422
5.876:410
5.891:410
5.896:406
5.896:400
5.896:403
5.896:414
5.897:419
5.897:422
5.897:448
5.897:503
5.897:544
5.900:557
5.900:540
5.900:547
5.901:582
5.901:576
5.901:566
5.901:564
5.901:545
5.901:502
5.901:466
5.904:446
5.904:431
5.906:434
5.906:465
5.906:472
5.906:469
5.906:465
5.907:489
5.907:521
5.908:550
5.924:576
5.924:601
5.924:602
5.925:592
5.925:561
5.925:541
5.925:540
5.929:537
5.929:504
5.929:456
5.929:436
5.929:432
5.930:431
5.930:441
5.930:458
5.930:484
5.930:502
5.932:522
5.933:540
5.933:558
5.933:568
5.933:584
5.933:592
5.934:607
5.934:588
5.934:566
5.937:548
5.937:510
5.937:473
5.938:444
5.953:444
5.953:443
5.953:441
5.953:417
5.953:429
5.954:462
5.958:481
5.958:492
5.958:509
5.958:552
5.959:586
5.959:569
5.959:567
5.959:603
5.959:632
5.959:609
5.961:597
5.961:582
5.961:538
5.962:507
5.962:472
5.962:449
5.962:440
5.962:434
5.962:453
5.966:469
5.966:478
5.966:477
5.966:495
5.967:536
5.982:558
5.982:571
5.982:590
5.986:599
5.986:612
5.986:587
5.986:547
5.987:526
5.987:495
5.987:467
5.987:442
5.987:424
5.988:413
5.990:430
5.990:471
5.990:496
5.990:497
5.991:490
5.991:504
5.991:541
5.991:569
5.991:585
5.994:600
5.994:591
5.994:595
5.994:579
5.995:560
5.995:545
5.995:513
5.995:479
6.010:479
6.010:442
6.015:434
6.015:428
6.015:429
6.015:463
6.016:489
6.016:511
6.016:521
6.016:544
6.016:564
6.017:597
6.019:617
6.019:622
6.019:602
6.019:584
6.019:542
6.019:503
6.019:477
6.019:433
6.020:385
6.022:332
6.022:292
6.022:254
6.022:223
6.023:194
6.023:157
6.023:115
6.023:71
6.023:44
6.043:17
6.043:17
6.044:17
6.044:17
6.044:17
6.044:18
6.044:17
6.044:19
6.045:19
6.045:19
6.045:20
6.048:20
6.048:20
6.048:20
6.048:20
6.049:19
6.049:19
6.049:18
6.049:18
6.049:17
6.049:17
6.049:133
6.051:271
6.051:408
6.051:546
6.051:650
6.052:715
6.052:748
6.052:742
6.052:683
6.072:683
6.072:632
6.072:600
6.073:566
6.073:548
6.073:543
6.073:556
6.073:558
6.076:560
6.076:563
6.076:590
6.076:609
6.077:634
6.077:656
6.077:665
6.077:676
6.077:678
6.080:680
6.080:683
6.080:667
6.080:614
6.081:574
6.081:550
6.081:546
6.081:526
6.081:528
6.082:556
6.083:568
6.083:569
6.083:577
6.100:614
6.101:635
6.101:659
6.101:678
6.105:693
6.106:711
6.106:710
6.106:685
6.106:657
6.107:644
6.107:603
6.107:567
6.107:535
6.108:521
6.109:510
6.109:524
6.109:566
6.109:608
6.110:625
6.110:605
6.110:613
6.110:618
6.110:657
6.113:690
6.113:701
6.113:703
6.113:687
6.114:645
6.114:620
6.114:614
6.129:614
6.129:584
6.129:547
6.133:510
6.133:495
6.133:490
6.134:508
6.134:523
6.134:529
6.134:535
6.134:543
6.135:575
6.135:588
6.138:608
6.139:622
6.139:631
6.140:639
6.140:633
6.140:617
6.140:625
6.140:612
6.140:552
6.141:504
6.142:466
6.142:452
6.142:452
6.142:473
6.142:498
6.142:515
6.142:534
6.161:546
6.162:562
6.162:564
6.162:592
6.163:611
6.163:609
6.163:614
6.163:603
6.163:582
6.163:565
6.166:550
6.166:499
6.166:475
6.166:456
6.167:452
6.167:455
6.167:460
6.167:469
6.167:492
6.170:497
6.170:492
6.170:505
6.170:513
6.171:536
6.171:565
6.172:581
6.172:601
6.173:582
6.173:541
6.174:538
6.190:538
6.190:540
6.190:493
6.190:461
6.191:430
6.191:407
6.191:408
6.191:421
6.191:434
6.195:454
6.195:465
6.195:494
6.195:541
6.196:547
6.196:539
6.196:545
6.196:547
6.196:591
6.199:598
6.199:547
6.199:509
6.199:487
6.200:438
6.200:411
6.200:398
6.200:409
6.200:408
6.201:420
6.202:442
6.202:455
6.219:458
6.219:455
6.219:472
6.219:481
6.219:509
6.219:528
6.224:529
6.224:542
6.224:529
6.224:519
6.225:494
6.225:463
6.225:416
6.225:397
6.225:385
6.228:368
6.228:353
6.228:358
6.228:374
6.229:385
6.229:398
6.229:422
6.229:451
6.229:461
6.229:481
6.231:485
6.231:481
6.231:482
6.232:466
6.232:463
6.248:463
6.248:455
6.248:447
6.248:392
6.249:364
6.252:336
6.252:316
6.252:307
6.252:321
6.252:332
6.253:340
6.253:359
6.253:380
6.253:404
6.256:419
6.256:450
6.256:477
6.256:489
6.256:502
6.256:472
6.256:451
6.257:458
6.257:446
6.257:388
6.260:349
6.260:322
6.260:307
6.261:299
6.261:323
6.261:345
6.276:348
6.276:368
6.281:382
6.281:405
6.281:430
6.281:456
6.281:487
6.282:512
6.282:559
6.282:535
6.282:482
6.285:458
6.285:442
6.285:412
6.285:394
6.285:412
6.286:410
6.286:387
6.286:389
6.286:401
6.286:418
6.289:430
6.289:463
6.289:490
6.289:520
6.290:540
6.290:542
6.290:555
6.291:615
6.291:607
6.305:607
6.310:565
6.310:544
6.310:536
6.310:508
6.310:487
6.310:469
6.310:454
6.310:460
6.311:490
6.314:513
6.314:528
6.314:540
6.314:558
6.315:586
6.315:601
6.315:605
6.315:620
6.315:627
6.316:643
6.318:633
6.318:624
6.318:620
6.318:583
6.319:547
6.319:526
6.319:511
6.319:492
6.319:492
6.322:518
6.338:532
6.338:546
6.339:560
6.339:578
6.339:593
6.339:607
6.339:622
6.342:646
6.342:665
6.342:694
6.342:697
6.342:688
6.343:663
6.343:616
6.343:555
6.343:511
6.343:496
6.346:494
6.346:498
6.346:516
6.346:532
6.346:552
6.346:556
6.347:558
6.347:571
6.347:597
6.350:623
6.350:640
6.350:637
6.350:640
6.366:640
6.367:631
6.367:640
6.367:641
6.367:622
6.367:611
6.371:575
6.372:523
6.372:493
6.373:491
6.373:497
6.373:512
6.373:523
6.373:532
6.374:558
6.374:591
6.375:623
6.375:638
6.375:642
6.375:632
6.376:631
6.376:605
6.376:588
6.376:576
6.376:541
6.379:509
6.379:482
6.379:469
6.379:454
6.379:459
6.395:492
6.396:520
6.396:533
6.400:533
6.400:555
6.400:568
6.400:591
6.400:601
6.401:632
6.401:635
6.401:630
6.401:604
6.401:582
6.403:568
6.404:523
6.404:494
6.405:474
6.405:460
6.405:442
6.405:444
6.405:470
6.406:490
6.408:500
6.408:507
6.408:527
6.408:547
6.409:570
6.409:576
6.409:597
6.409:611
6.424:611
6.424:608
6.428:587
6.428:570
6.428:548
6.428:512
6.429:493
6.429:455
6.429:431
6.429:420
6.429:420
6.430:439
6.432:475
6.432:511
6.432:516
6.433:524
6.433:544
6.433:563
6.433:562
6.433:553
6.434:557
6.437:573
6.437:546
6.437:532
6.437:534
6.438:510
6.438:496
6.438:467
6.438:450
6.438:433
6.456:442
6.457:459
6.457:465
6.457:474
6.457:477
6.457:504
6.457:524
6.458:558
6.461:574
6.461:575
6.461:571
6.462:571
6.462:546
6.462:534
6.462:533
6.462:492
6.462:480
6.463:460
6.465:430
6.465:393
6.466:386
6.466:425
6.466:476
6.466:511
6.466:523
6.467:535
6.467:515
6.467:520
6.469:537
6.469:552
6.485:552
6.485:568
6.485:577
6.486:564
6.486:541
6.486:514
6.486:471
6.486:447
6.489:421
6.490:408
6.490:403
6.490:405
6.491:417
6.491:441
6.491:458
6.491:465
6.491:475
6.494:484
6.494:525
6.494:553
6.494:565
6.495:580
6.495:574
6.495:539
6.495:504
6.495:481
6.496:453
6.497:441
6.498:407
6.498:383
6.514:371
6.514:384
6.514:420
6.514:461
6.518:470
6.518:471
6.518:486
6.518:496
6.519:512
6.519:516
6.519:531
6.519:564
6.519:579
6.520:554
6.522:531
6.522:520
6.523:476
6.523:444
6.523:408
6.523:383
6.524:384
6.524:418
6.524:445
6.527:445
6.527:454
6.527:478
6.527:508
6.528:518
6.528:539
6.528:554
6.542:554
6.543:543
6.543:548
6.547:547
6.547:521
6.547:505
6.547:496
6.548:452
6.548:434
6.548:401
6.548:377
6.548:367
6.549:392
6.551:435
6.551:473
6.551:506
6.551:510
6.551:512
6.552:495
6.552:510
6.552:531
6.552:543
6.552:553
6.554:549
6.554:531
6.554:503
6.554:480
6.554:439
6.554:416
6.556:397
6.576:383
6.576:373
6.576:392
6.576:422
6.577:443
6.577:443
6.577:431
6.577:451
6.577:470
6.577:496
6.580:535
6.580:550
6.580:572
6.580:559
6.581:534
6.581:516
6.581:491
6.581:443
6.581:419
6.584:394
6.584:383
6.584:378
6.584:396
6.585:418
6.585:436
6.585:442
6.585:446
6.585:475
6.586:503
6.588:538
6.604:538
6.604:555
6.606:550
6.606:554
6.606:539
6.606:520
6.606:498
6.607:475
6.607:437
6.609:432
6.609:420
6.609:412
6.609:397
6.609:393
6.609:407
6.610:423
6.610:440
6.610:458
6.612:481
6.612:507
6.612:532
6.612:547
6.613:546
6.613:548
6.613:534
6.613:536
6.613:523
6.614:510
6.616:455
6.616:424
6.633:399
6.633:391
6.633:385
6.633:404
6.633:423
6.633:438
6.636:442
6.636:457
6.637:494
6.637:514
6.637:530
6.637:551
6.639:562
6.639:575
6.639:548
6.640:525
6.640:513
6.641:491
6.641:429
6.641:400
6.641:398
6.641:420
6.641:432
6.643:428
6.643:432
6.645:440
6.645:436
6.645:435
6.646:465
6.646:491
6.661:491
6.662:506
6.662:514
6.662:521
6.662:542
6.666:528
6.666:511
6.666:501
6.667:469
6.667:419
6.667:399
6.667:379
6.667:370
6.667:384
6.670:417
6.670:438
6.670:445
6.671:450
6.671:462
6.672:494
6.672:521
6.672:526
6.672:543
6.672:539
6.674:557
6.674:536
6.674:511
6.674:490
6.675:466
6.675:417
6.689:400
6.690:387
6.694:371
6.694:381
6.694:405
6.695:415
6.695:427
6.695:439
6.695:454
6.695:474
6.696:486
6.699:531
6.699:557
6.699:548
6.699:552
6.699:521
6.699:496
6.699:496
6.699:487
6.700:465
6.700:443
6.702:407
6.702:370
6.703:357
6.703:383
6.703:406
6.703:410
6.703:420
6.704:446
6.704:475
6.718:475
6.723:497
6.723:508
6.724:533
6.724:539
6.724:542
6.724:532
6.724:518
6.724:504
6.725:481
6.727:439
6.727:400
6.727:377
6.727:373
6.728:380
6.728:401
6.728:416
6.728:430
6.728:456
6.729:482
6.731:494
6.731:518
6.731:518
6.732:526
6.732:530
6.732:545
6.732:528
6.732:506
6.733:487
6.734:460
6.751:420
6.751:384
6.752:367
6.752:363
6.752:352
6.752:367
6.752:392
6.756:412
6.756:417
6.756:430
6.756:446
6.757:472
6.757:483
6.757:494
6.757:496
6.757:502
6.758:485
6.760:474
6.760:489
6.760:471
6.761:448
6.761:405
6.761:370
6.761:345
6.761:338
6.762:359
6.764:370
6.764:376
6.764:380
6.764:393
6.780:393
6.780:404
6.780:429
6.780:449
6.780:467
6.781:480
6.784:495
6.784:477
6.785:461
6.785:446
6.785:417
6.785:386
6.785:362
6.786:356
6.786:341
6.786:344
6.788:371
6.788:374
6.788:365
6.788:380
6.788:405
6.788:414
6.788:452
6.788:489
6.789:511
6.792:513
6.792:523
6.792:514
6.792:497
6.793:473
6.808:431
6.809:394
6.809:364
6.813:348
6.813:342
6.813:349
6.813:368
6.814:388
6.814:407
6.814:422
6.814:453
6.814:482
6.817:522
6.817:540
6.817:552
6.817:552
6.818:556
6.818:558
6.818:541
6.818:526
6.818:485
6.819:445
6.822:417
6.822:397
6.822:382
6.822:387
6.822:403
6.822:424
6.822:444
6.822:457
6.838:457
6.838:477
6.841:483
6.842:503
6.842:509
6.842:511
6.842:518
6.842:527
6.842:487
6.842:476
6.844:525
6.844:523
6.846:492
6.846:443
6.846:417
6.847:412
6.847:414
6.847:431
6.847:423
6.847:430
6.847:460
6.850:487
6.850:510
6.850:536
6.850:550
6.851:563
6.851:566
6.851:565
6.851:545
6.851:529
6.870:514
6.871:470
6.871:441
6.871:416
6.871:399
6.871:379
6.871:374
6.872:394
6.875:425
6.875:455
6.875:472
6.875:490
6.876:491
6.876:518
6.876:534
6.876:553
6.876:563
6.876:554
6.879:515
6.879:499
6.879:496
6.879:456
6.880:422
6.880:396
6.880:407
6.880:418
6.880:415
6.883:402
6.883:412
6.883:434
6.898:434
6.899:441
6.899:477
6.899:501
6.899:531
6.899:546
6.900:551
6.903:557
6.903:563
6.903:541
6.903:509
6.904:483
6.904:433
6.904:409
6.904:375
6.904:381
6.904:398
6.907:409
6.907:416
6.907:425
6.907:432
6.908:433
6.908:459
6.908:486
6.908:533
6.908:556
6.909:564
6.911:575
6.911:578
6.911:548
6.928:504
6.928:485
6.928:442
6.928:433
6.931:429
6.931:444
6.931:436
6.931:441
6.933:451
6.933:464
6.933:486
6.933:497
6.933:506
6.934:516
6.936:551
6.936:569
6.936:553
6.937:543
6.937:518
6.937:457
6.937:407
6.938:365
6.938:295
6.940:236
6.940:180
6.940:130
6.940:80
6.940:38
6.941:17
6.941:17
6.956:17
6.956:17
6.956:18
6.956:18
6.956:17
6.960:18
6.960:18
6.960:18
6.960:19
6.960:19
6.960:19
6.960:20
6.960:20
6.961:20
6.961:20
6.961:21
6.965:20
6.965:20
6.965:20
6.965:19
6.965:18
6.966:17
6.966:17
6.966:104
6.966:228
6.966:396
6.967:542
6.969:651
6.969:742
6.969:764
6.989:742
6.989:709
6.989:671
6.989:600
6.990:545
6.990:511
6.990:495
6.990:473
6.991:463
6.991:477
6.993:508
6.993:544
6.993:560
6.993:607
6.993:623
6.994:628
6.994:632
6.994:646
6.994:679
6.998:668
6.998:635
6.998:619
6.998:604
6.999:557
6.999:530
6.999:501
6.999:497
6.999:505
6.999:515
7.001:525
7.018:525
7.018:547
7.018:557
7.018:561
7.018:597
7.018:607
7.019:631
7.019:649
7.019:659
7.022:666
7.022:639
7.022:618
7.023:614
7.023:585
7.023:557
7.023:551
7.023:533
7.024:529
7.026:515
7.026:520
7.026:540
7.026:552
7.026:547
7.027:550
7.027:570
7.027:581
7.028:595
7.028:616
7.030:630
7.030:656
7.046:638
7.047:615
7.047:590
7.047:573
7.047:516
7.047:494
7.050:471
7.050:457
7.050:451
7.050:468
7.051:504
7.051:532
7.051:523
7.051:511
7.051:529
7.054:558
7.055:583
7.055:590
7.055:596
7.055:613
7.056:592
7.056:569
7.056:547
7.056:525
7.056:477
7.058:456
7.059:445
7.059:426
7.059:416
7.059:444
7.075:444
7.075:464
7.075:460
7.076:456
7.076:499
7.079:551
7.080:557
7.080:565
7.080:574
7.080:576
7.080:584
7.080:567
7.081:546
7.081:523
7.084:499
7.084:455
7.084:431
7.084:398
7.085:379
7.085:361
7.085:384
7.085:417
7.085:447
7.086:487
7.087:501
7.088:507
7.088:505
7.088:531
7.088:559
7.088:553
7.103:553
7.103:528
7.108:508
7.108:500
7.108:494
7.108:459
7.109:428
7.109:394
7.109:369
7.109:368
7.109:385
7.112:401
7.112:435
7.112:440
7.112:435
7.113:464
7.113:490
7.113:508
7.113:533
7.113:534
7.114:537
7.116:497
7.116:473
7.116:454
7.116:436
7.116:408
7.117:389
7.117:364
7.117:354
7.117:351
7.132:351
7.136:368
7.136:385
7.136:410
7.136:410
7.136:410
7.136:419
7.136:439
7.136:463
7.136:489
7.141:497
7.141:498
7.141:467
7.141:447
7.141:429
7.141:399
7.141:364
7.142:351
7.142:338
7.142:323
7.145:316
7.145:316
7.145:329
7.146:353
7.146:368
7.146:385
7.146:410
7.146:425
7.146:438
7.149:455
7.165:461
7.165:470
7.165:440
7.165:410
7.166:392
7.166:364
7.166:319
7.170:291
7.170:284
7.171:280
7.171:285
7.171:297
7.172:310
7.172:321
7.172:328
7.172:336
7.174:355
7.174:384
7.174:401
7.174:422
7.174:438
7.174:447
7.174:422
7.174:400
7.174:386
7.175:348
7.177:319
7.177:300
7.177:280
7.177:260
7.193:260
7.193:266
7.194:289
7.194:302
7.194:335
7.194:360
7.198:397
7.198:433
7.198:447
7.198:444
7.199:464
7.199:492
7.199:500
7.199:500
7.199:478
7.200:449
7.202:399
7.202:362
7.202:341
7.203:341
7.203:326
7.203:336
7.203:365
7.203:393
7.204:418
7.206:429
7.206:454
7.206:488
7.206:529
7.207:536
7.222:544
7.222:553
7.222:565
7.227:547
7.227:530
7.227:521
7.227:494
7.227:481
7.228:463
7.228:455
7.228:442
7.228:439
7.230:458
7.230:471
7.230:485
7.230:523
7.230:568
7.230:580
7.232:592
7.232:615
7.232:638
7.232:646
7.235:653
7.235:626
7.235:593
7.235:581
7.235:551
7.235:531
7.236:504
7.236:487
7.251:487
7.251:472
7.255:470
7.255:503
7.255:536
7.255:572
7.255:589
7.255:597
7.256:586
7.256:612
7.256:626
7.256:635
7.259:627
7.259:631
7.259:622
7.259:611
7.260:601
7.260:561
7.260:539
7.261:508
7.261:496
7.263:495
7.263:512
7.263:553
7.263:569
7.263:551
7.263:523
7.263:543
7.263:552
7.264:573
7.284:591
7.284:624
7.284:665
7.285:664
7.285:631
7.285:606
7.285:592
7.285:551
7.287:517
7.288:481
7.288:472
7.289:466
7.289:505
7.289:534
7.289:538
7.289:533
7.290:523
7.290:539
7.291:546
7.291:571
7.293:589
7.293:616
7.293:640
7.293:624
7.294:572
7.294:538
7.294:525
7.296:486
7.296:465
7.296:437
7.313:437
7.313:457
7.313:481
7.313:492
7.313:481
7.314:487
7.314:495
7.317:509
7.317:538
7.317:546
7.317:570
7.318:597
7.318:609
7.318:619
7.318:611
7.318:584
7.319:575
7.321:555
7.322:505
7.322:484
7.322:455
7.322:435
7.322:425
7.322:444
7.322:465
7.323:481
7.325:492
7.325:497
7.325:534
7.325:552
7.341:552
7.341:540
7.341:559
7.341:586
7.346:580
7.346:561
7.346:570
7.346:577
7.347:525
7.347:482
7.347:435
7.347:418
7.347:423
7.348:431
7.350:449
7.350:466
7.350:477
7.350:484
7.350:509
7.351:514
7.351:528
7.351:542
7.351:553
7.354:581
7.354:593
7.355:567
7.355:549
7.355:529
7.355:477
7.355:460
7.370:460
7.370:434
7.370:410
7.374:407
7.374:423
7.374:436
7.374:441
7.375:440
7.375:432
7.375:469
7.375:514
7.375:546
7.376:557
7.378:542
7.379:550
7.379:558
7.379:550
7.379:551
7.380:546
7.380:499
7.380:450
7.380:385
7.381:366
7.381:401
7.381:443
7.383:459
7.383:468
7.383:465
7.383:461
7.383:481
7.403:497
7.403:526
7.403:553
7.404:563
7.404:568
7.405:555
7.405:537
7.405:525
7.405:509
7.406:460
7.407:427
7.407:394
7.407:377
7.407:387
7.408:413
7.408:435
7.408:444
7.408:453
7.408:459
7.411:472
7.411:472
7.411:511
7.411:562
7.411:583
7.412:583
7.412:555
7.412:517
7.412:497
7.412:473
7.415:427
7.431:427
7.431:408
7.431:404
7.431:416
7.431:412
7.432:420
7.432:439
7.432:456
7.432:459
7.436:461
7.436:479
7.436:498
7.436:522
7.438:537
7.438:546
7.438:554
7.438:530
7.439:508
7.439:494
7.439:488
7.439:455
7.439:433
7.441:399
7.441:384
7.441:387
7.441:411
7.442:445
7.442:457
7.444:453
7.444:457
7.460:483
7.460:507
7.460:528
7.461:540
7.461:546
7.461:554
7.464:529
7.464:516
7.464:505
7.465:486
7.465:449
7.465:429
7.465:410
7.465:400
7.466:399
7.468:412
7.468:420
7.468:436
7.468:447
7.469:459
7.469:477
7.469:486
7.470:502
7.471:534
7.471:541
7.472:559
7.472:545
7.472:519
7.472:490
7.472:465
7.489:465
7.489:438
7.489:429
7.489:423
7.489:407
7.492:390
7.492:401
7.493:410
7.493:415
7.493:421
7.493:450
7.494:490
7.494:519
7.494:525
7.497:533
7.497:562
7.497:605
7.497:591
7.498:566
7.498:545
7.498:509
7.498:454
7.498:411
7.499:375
7.501:351
7.501:344
7.501:386
7.502:436
7.502:454
7.502:458
7.517:474
7.521:494
7.521:504
7.521:531
7.521:560
7.521:585
7.521:610
7.523:575
7.523:547
7.523:531
7.523:499
7.526:453
7.526:425
7.526:411
7.526:397
7.527:394
7.527:417
7.527:438
7.527:451
7.527:460
7.528:472
7.529:493
7.529:519
7.530:536
7.530:549
7.530:550
7.530:566
7.530:553
7.531:530
7.531:508
7.545:508
7.550:475
7.550:434
7.551:407
7.551:390
7.551:378
7.551:385
7.551:422
7.551:455
7.551:472
7.554:476
7.554:479
7.554:500
7.554:527
7.555:540
7.555:552
7.555:565
7.555:593
7.556:567
7.556:515
7.558:491
7.558:460
7.558:431
7.559:406
7.559:406
7.559:416
7.559:415
7.559:418
7.559:428
7.562:445
7.579:447
7.579:466
7.579:494
7.579:518
7.579:539
7.579:556
7.580:553
7.583:556
7.583:534
7.583:526
7.583:532
7.584:497
7.584:440
7.584:397
7.584:390
7.584:368
7.586:365
7.588:385
7.588:420
7.588:456
7.588:497
7.588:520
7.588:532
7.588:541
7.588:561
7.588:593
7.591:580
7.591:579
7.591:552
7.591:519
7.608:519
7.608:508
7.608:493
7.608:460
7.608:418
7.608:399
7.611:389
7.611:394
7.611:415
7.611:442
7.611:455
7.612:460
7.612:459
7.612:478
7.612:511
7.612:533
7.615:549
7.615:556
7.615:579
7.616:561
7.616:529
7.616:502
7.616:476
7.616:451
7.617:421
7.619:406
7.620:398
7.620:397
7.620:421
7.620:454
7.635:471
7.635:486
7.636:495
7.640:507
7.640:532
7.640:536
7.640:541
7.641:543
7.641:548
7.641:534
7.641:521
7.642:516
7.644:485
7.644:453
7.644:414
7.644:398
7.645:397
7.645:402
7.645:423
7.645:443
7.645:449
7.645:452
7.649:483
7.649:526
7.649:550
7.649:526
7.649:526
7.649:560
7.650:582
7.650:555
7.665:555
7.665:536
7.669:520
7.669:468
7.669:442
7.670:418
7.670:396
7.670:383
7.670:395
7.670:418
7.671:430
7.673:453
7.673:481
7.673:496
7.673:499
7.674:518
7.674:539
7.674:543
7.674:546
7.674:565
7.674:559
7.677:540
7.677:515
7.677:455
7.677:418
7.678:390
7.678:377
7.678:353
7.678:358
7.678:406
7.697:449
7.697:467
7.698:468
7.698:484
7.698:492
7.698:516
7.698:534
7.698:549
7.701:545
7.701:552
7.701:523
7.701:482
7.701:468
7.703:440
7.703:413
7.703:384
7.703:363
7.703:352
7.706:353
7.706:372
7.706:388
7.707:397
7.707:403
7.707:437
7.707:462
7.707:491
7.707:502
7.710:515
7.710:525
7.710:516
7.726:516
7.726:510
7.726:505
7.726:487
7.726:436
7.726:411
7.727:387
7.730:372
7.730:371
7.730:386
7.730:381
7.730:396
7.732:427
7.732:445
7.732:494
7.732:510
7.732:514
7.735:516
7.735:524
7.735:528
7.735:519
7.736:500
7.736:498
7.736:497
7.736:451
7.736:424
7.739:396
7.739:377
7.739:371
7.739:393
7.754:425
7.754:444
7.754:465
7.755:480
7.759:508
7.759:519
7.759:540
7.760:562
7.760:563
7.760:575
7.760:582
7.760:571
7.761:565
7.761:567
7.763:494
7.763:448
7.763:421
7.763:413
7.763:418
7.764:436
7.764:459
7.764:480
7.764:486
7.767:480
7.767:508
7.767:534
7.767:563
7.768:575
7.768:577
7.768:572
7.783:572
7.784:576
7.784:560
7.788:541
7.788:536
7.788:505
7.788:476
7.789:443
7.789:410
7.789:394
7.789:422
7.789:447
7.789:460
7.791:471
7.792:497
7.792:538
7.792:550
7.792:568
7.792:586
7.793:593
7.793:599
7.793:587
7.796:568
7.796:548
7.796:526
7.796:482
7.797:455
7.797:429
7.797:423
7.797:427
7.816:444
7.816:464
7.816:478
7.816:486
7.817:495
7.817:528
7.817:547
7.817:560
7.817:565
7.818:559
7.820:575
7.820:579
7.821:570
7.821:561
7.821:554
7.821:503
7.821:471
7.821:446
7.821:418
7.825:410
7.825:420
7.825:419
7.825:435
7.826:475
7.826:514
7.826:551
7.826:572
7.826:579
7.827:572
7.828:566
7.845:566
7.845:577
7.845:553
7.846:539
7.846:543
7.846:555
7.846:523
7.846:513
7.847:479
7.849:446
7.849:414
7.849:406
7.849:411
7.849:439
7.849:465
7.850:484
7.850:512
7.850:522
7.853:518
7.853:536
7.854:558
7.854:576
7.854:584
7.854:579
7.854:560
7.855:537
7.855:490
7.855:463
7.857:462
7.857:467
7.873:464
7.873:489
7.873:521
7.874:532
7.874:524
7.874:517
7.877:527
7.877:536
7.878:535
7.878:512
7.878:485
7.878:471
7.878:447
7.879:437
7.879:413
7.881:343
7.881:254
7.882:175
7.882:95
7.882:52
7.882:17
7.882:17
7.882:17
7.883:17
7.883:18
7.883:18
7.886:18
7.886:18
7.886:18
7.886:18
7.902:18
7.902:19
7.902:19
7.902:19
7.902:20
7.903:20
7.907:20
7.907:20
7.907:20
7.907:20
7.907:19
7.908:19
7.908:18
7.908:17
7.908:67
7.908:184
7.908:317
7.911:453
7.911:565
7.911:691
7.912:765
7.912:790
7.912:776
7.912:731
7.912:675
7.912:655
7.912:654
7.915:620
7.915:574
7.915:559
7.931:540
7.935:529
7.935:539
7.935:546
7.935:555
7.936:572
7.937:593
7.937:622
7.937:648
7.937:662
7.938:672
7.939:667
7.939:678
7.939:654
7.940:661
7.940:695
7.941:697
7.941:636
7.941:570
7.941:541
7.943:520
7.943:508
7.943:555
7.943:603
7.944:612
7.944:604
7.944:617
7.944:631
7.944:653
7.945:670
7.959:670
7.963:682
7.963:691
7.964:702
7.964:679
7.964:659
7.964:647
7.964:620
7.965:579
7.965:549
7.968:533
7.968:521
7.968:525
7.968:551
7.969:569
7.969:571
7.969:572
7.969:575
7.969:593
7.969:628
7.971:651
7.971:663
7.971:653
7.971:650
7.971:627
7.971:612
7.973:612
7.973:605
7.973:573
7.976:532
7.992:505
7.992:499
7.992:508
7.992:524
7.992:534
7.993:543
7.993:547
7.997:566
7.997:591
7.997:618
7.997:631
7.998:639
7.998:631
7.998:634
7.998:612
7.998:596
8.001:579
8.001:546
8.001:516
8.002:489
8.002:470
8.002:456
8.002:457
8.002:481
8.003:492
8.003:494
8.004:493
8.004:501
8.005:516
8.005:538
8.021:538
8.021:559
8.021:616
8.021:670
8.022:656
8.022:593
8.025:563
8.025:548
8.025:521
8.025:512
8.026:493
8.026:469
8.026:446
8.026:449
8.026:469
8.027:480
8.029:485
8.029:485
8.029:488
8.029:503
8.029:543
8.029:574
8.030:600
8.030:608
8.031:606
8.033:570
8.033:543
8.033:532
8.033:518
8.034:518
8.049:467
8.049:424
8.049:401
8.053:411
8.054:449
8.054:473
8.054:469
8.054:458
8.055:475
8.055:491
8.055:516
8.055:539
8.058:550
8.058:552
8.058:565
8.058:537
8.059:500
8.059:497
8.059:464
8.059:437
8.059:415
8.060:403
8.062:387
8.062:383
8.062:397
8.063:415
8.063:416
8.063:429
8.063:456
8.063:458
8.078:458
8.078:483
8.082:501
8.082:523
8.082:543
8.082:561
8.083:548
8.083:516
8.083:484
8.083:439
8.083:411
8.086:381
8.087:360
8.087:353
8.087:352
8.087:373
8.088:386
8.088:394
8.088:403
8.088:425
8.088:432
8.091:460
8.091:482
8.091:483
8.091:489
8.091:492
8.091:467
8.092:445
8.092:434
8.092:394
8.110:363
8.111:331
8.111:313
8.111:301
8.111:316
8.111:327
8.111:339
8.113:341
8.115:362
8.115:407
8.115:426
8.115:438
8.116:455
8.116:478
8.116:478
8.116:464
8.116:444
8.117:438
8.120:435
8.120:394
8.120:348
8.121:299
8.121:327
8.121:372
8.121:380
8.122:373
8.122:385
8.123:399
8.123:412
8.123:444
8.139:444
8.139:458
8.139:483
8.140:504
8.140:505
8.140:502
8.141:498
8.144:509
8.144:533
8.144:533
8.144:471
8.145:410
8.145:356
8.145:349
8.145:381
8.145:418
8.146:453
8.148:464
8.148:470
8.148:480
8.148:515
8.149:539
8.149:572
8.149:587
8.149:586
8.149:602
8.151:607
8.151:580
8.152:553
8.152:537
8.168:501
8.169:486
8.169:480
8.169:481
8.173:511
8.173:528
8.173:538
8.173:546
8.174:568
8.174:570
8.174:587
8.174:592
8.174:617
8.175:644
8.177:666
8.177:684
8.177:665
8.177:645
8.177:634
8.177:630
8.178:583
8.178:563
8.178:536
8.180:518
8.180:513
8.180:528
8.181:550
8.181:569
8.181:577
8.181:581
8.196:581
8.197:607
8.197:619
8.201:634
8.201:626
8.201:624
8.202:658
8.202:679
8.204:677
8.204:681
8.205:668
8.205:607
8.205:567
8.205:540
8.206:525
8.206:520
8.206:529
8.206:542
8.206:554
8.206:563
8.207:573
8.207:605
8.209:622
8.209:643
8.210:655
8.210:647
8.210:643
8.210:615
8.210:631
8.211:668
8.230:678
8.230:613
8.230:548
8.230:489
8.231:478
8.231:511
8.231:538
8.231:545
8.231:548
8.232:538
8.233:544
8.234:586
8.234:609
8.234:629
8.234:629
8.234:643
8.234:664
8.235:648
8.235:624
8.237:613
8.237:601
8.237:561
8.239:537
8.239:504
8.239:471
8.239:450
8.239:475
8.239:501
8.239:518
8.241:527
8.258:527
8.258:533
8.258:557
8.258:580
8.259:596
8.259:601
8.259:618
8.259:647
8.259:639
8.262:610
8.263:582
8.263:561
8.263:501
8.263:489
8.263:476
8.264:472
8.264:475
8.264:488
8.267:496
8.267:499
8.267:510
8.267:528
8.268:559
8.268:577
8.268:593
8.268:608
8.268:613
8.269:623
8.271:612
8.271:604
8.287:595
8.287:573
8.287:522
8.287:495
8.287:450
8.291:431
8.291:435
8.291:474
8.291:500
8.291:506
8.291:499
8.292:496
8.292:514
8.292:539
8.292:572
8.296:592
8.296:608
8.296:634
8.296:615
8.297:586
8.297:555
8.297:558
8.297:505
8.297:475
8.298:472
8.299:448
8.299:432
8.299:460
8.299:485
8.300:496
8.315:496
8.316:499
8.316:513
8.316:541
8.316:548
8.319:550
8.319:586
8.320:593
8.320:608
8.320:593
8.320:576
8.320:569
8.321:536
8.321:494
8.324:472
8.324:443
8.324:419
8.324:406
8.325:423
8.325:437
8.325:454
8.325:461
8.325:473
8.326:533
8.327:593
8.328:626
8.328:622
8.328:597
8.328:588
8.328:558
8.344:538
8.349:570
8.349:561
8.349:494
8.349:445
8.349:416
8.350:415
8.350:418
8.350:441
8.350:455
8.350:475
8.353:480
8.353:487
8.354:505
8.354:535
8.354:562
8.354:569
8.354:566
8.355:594
8.355:592
8.357:566
8.357:538
8.357:506
8.357:458
8.358:444
8.358:444
8.358:440
8.358:435
8.358:434
8.359:440
8.377:440
8.377:462
8.377:477
8.377:489
8.377:504
8.377:519
8.379:547
8.379:560
8.379:562
8.379:583
8.381:563
8.381:554
8.381:540
8.381:499
8.381:466
8.381:439
8.381:421
8.381:432
8.381:439
8.382:454
8.384:459
8.384:471
8.386:479
8.386:499
8.386:522
8.386:547
8.386:554
8.387:564
8.387:575
8.389:590
8.406:562
8.406:544
8.406:538
8.406:509
8.407:467
8.407:438
8.407:426
8.410:410
8.410:412
8.410:435
8.410:454
8.411:461
8.411:460
8.411:479
8.411:510
8.412:559
8.414:613
8.414:625
8.414:603
8.414:588
8.415:550
8.415:537
8.415:526
8.415:495
8.415:466
8.416:440
8.418:424
8.418:407
8.418:405
8.418:423
8.434:423
8.435:447
8.435:452
8.435:445
8.435:458
