0.000:497
0.001:521
0.001:568
0.001:615
0.001:611
0.001:590
0.001:554
0.001:519
0.001:482
0.001:456
0.001:448
0.002:448
0.002:408
0.002:352
0.002:341
0.002:354
0.003:384
0.003:414
0.003:443
0.004:465
0.004:485
0.004:511
0.005:561
0.005:610
0.005:615
0.005:588
0.005:544
0.007:508
0.007:471
0.007:444
0.007:444
0.007:423
0.008:421
0.008:387
0.008:347
0.008:337
0.008:345
0.008:363
0.009:394
0.009:419
0.009:440
0.009:464
0.009:492
0.010:541
0.010:596
0.010:601
0.010:579
0.010:544
0.010:510
0.011:478
0.011:463
0.011:454
0.011:451
0.011:407
0.011:355
0.011:337
0.011:343
0.012:365
0.012:387
0.012:414
0.012:437
0.012:456
0.013:484
0.013:537
0.013:592
0.013:597
0.013:578
0.013:543
0.013:509
0.013:478
0.014:460
0.014:444
0.014:437
0.014:400
0.014:354
0.015:339
0.015:350
0.015:376
0.015:404
0.015:439
0.016:459
0.016:473
0.016:491
0.016:542
0.016:596
0.016:605
0.017:586
0.017:550
0.017:516
0.017:486
0.017:486
0.017:466
0.018:452
0.018:448
0.018:413
0.018:368
0.018:351
0.018:355
0.018:378
0.019:403
0.019:434
0.021:463
0.021:482
0.021:502
0.021:548
0.022:602
0.022:608
0.022:590
0.022:560
0.022:529
0.023:496
0.023:478
0.023:465
0.023:459
0.023:421
0.023:384
0.023:374
0.024:384
0.024:399
0.024:420
0.024:452
0.024:478
0.024:494
0.025:513
0.025:556
0.025:600
0.025:600
0.025:574
0.026:538
0.026:502
0.026:464
0.026:439
0.026:428
0.026:424
0.027:388
0.027:349
0.027:341
0.027:353
0.027:381
0.028:412
0.028:446
0.028:466
0.028:487
0.029:515
0.029:567
0.030:615
0.030:616
0.030:592
0.030:559
0.030:529
0.030:529
0.031:493
0.031:470
0.031:454
0.031:444
0.031:397
0.032:354
0.032:348
0.032:353
0.032:373
0.033:399
0.033:428
0.033:452
0.033:476
0.033:498
0.035:552
0.035:602
0.035:606
0.035:583
0.036:549
0.036:517
0.036:488
0.036:468
0.036:454
0.037:444
0.037:403
0.037:361
0.038:350
0.038:361
0.038:381
0.038:410
0.038:442
0.039:461
0.039:483
0.039:504
0.039:554
0.039:601
0.039:605
0.040:582
0.040:546
0.040:521
0.040:497
0.040:481
0.041:465
0.041:457
0.041:417
0.041:383
0.041:378
0.041:386
0.042:407
0.042:433
0.042:461
0.042:489
0.042:517
0.043:541
0.043:591
0.043:635
0.043:634
0.043:610
0.044:569
0.044:569
0.044:533
0.044:491
0.044:461
0.045:449
0.045:443
0.045:396
0.045:350
0.045:345
0.045:351
0.046:378
0.046:408
0.046:438
0.046:460
0.046:484
0.047:506
0.047:555
0.047:603
0.047:608
0.047:581
0.048:546
0.048:518
0.048:494
0.048:479
0.048:467
0.048:462
0.049:421
0.049:379
0.049:370
0.049:380
0.049:404
0.050:427
0.050:456
0.051:479
0.051:500
0.051:525
0.051:584
0.051:635
0.052:640
0.052:620
0.052:585
0.052:558
0.053:532
0.053:516
0.053:501
0.053:496
0.053:453
0.053:409
0.055:400
0.055:411
0.055:438
0.055:469
0.055:500
0.055:520
0.056:539
0.056:554
0.056:601
0.056:645
0.056:650
0.057:628
0.057:628
0.057:592
0.057:560
0.057:536
0.057:518
0.058:500
0.058:492
0.058:446
0.058:406
0.058:397
0.059:406
0.059:430
0.059:456
0.059:489
0.059:505
0.059:518
0.060:536
0.060:594
0.060:644
0.061:648
0.061:624
0.061:583
0.061:553
0.061:525
0.062:502
0.062:484
0.062:477
0.064:426
0.064:384
0.064:371
0.065:375
0.065:392
0.065:416
0.066:441
0.066:460
0.066:480
0.067:501
0.067:554
0.067:595
0.068:597
0.068:577
0.068:545
0.069:512
0.069:482
0.069:464
0.069:457
0.069:448
0.070:397
0.070:352
0.070:342
0.070:355
0.070:380
0.070:409
0.071:440
0.071:464
0.071:492
0.071:514
0.072:569
0.072:617
0.072:620
0.072:620
0.072:594
0.072:556
0.072:523
0.072:492
0.073:473
0.073:460
0.073:456
0.073:412
0.074:369
0.074:352
0.074:356
0.074:372
0.074:391
0.075:416
0.075:432
0.075:457
0.075:478
0.076:528
0.076:573
0.076:582
0.076:559
0.076:519
0.077:488
0.077:465
0.077:452
0.077:441
0.077:432
0.077:386
0.078:346
0.078:338
0.078:346
0.078:370
0.078:394
0.079:423
0.079:444
0.079:466
0.079:491
0.079:550
0.079:589
0.080:586
0.080:560
0.080:528
0.080:497
0.080:470
0.080:453
0.081:438
0.081:430
0.081:383
0.081:349
0.081:341
0.082:355
0.082:378
0.082:401
0.083:426
0.083:449
0.083:475
0.083:502
0.083:558
0.084:599
0.084:599
0.084:596
0.084:569
0.084:535
0.084:502
0.085:475
0.085:457
0.085:445
0.085:442
0.086:393
0.086:355
0.086:350
0.086:368
0.086:392
0.086:416
0.087:446
0.087:465
0.087:482
0.087:504
0.087:566
0.088:601
0.088:589
0.088:559
0.088:519
0.088:481
0.088:448
0.089:429
0.089:409
0.089:402
0.089:357
0.089:320
0.090:323
0.090:355
0.090:399
0.090:445
0.090:500
0.090:552
0.091:606
0.091:662
0.091:749
0.091:826
0.091:864
0.092:881
0.092:893
0.092:903
0.093:936
0.093:978
0.093:990
0.093:989
0.094:989
0.094:988
0.094:988
0.094:987
0.094:986
0.094:985
0.094:984
0.094:984
0.095:983
0.095:983
0.095:982
0.095:982
0.095:981
0.096:982
0.096:983
0.096:984
0.096:985
0.096:987
0.097:988
0.097:990
0.097:884
0.097:720
0.098:583
0.098:458
0.098:336
0.098:252
0.098:209
0.099:199
0.099:204
0.099:230
0.099:269
0.099:349
0.100:413
0.100:423
0.100:408
0.100:386
0.101:363
0.101:340
0.101:321
0.101:317
0.101:315
0.102:272
0.102:244
0.102:250
0.102:275
0.102:305
0.102:332
0.103:358
0.103:378
0.103:406
0.103:430
0.104:487
0.104:523
0.104:512
0.105:476
0.105:437
0.105:402
0.105:374
0.105:349
0.105:337
0.106:329
0.106:277
0.106:242
0.106:243
0.106:263
0.106:285
0.106:310
0.106:341
0.107:365
0.107:383
0.107:410
0.107:410
0.107:480
0.107:516
0.107:509
0.107:486
0.107:452
0.109:423
0.109:402
0.109:383
0.109:368
0.109:365
0.109:319
0.109:286
0.110:278
0.110:288
0.110:312
0.111:341
0.111:368
0.111:387
0.111:413
0.111:435
0.111:492
0.111:525
0.112:518
0.112:495
0.113:463
0.113:430
0.113:405
0.113:394
0.113:391
0.113:393
0.115:341
0.115:308
0.115:309
0.116:323
0.116:343
0.116:367
0.116:399
0.117:425
0.117:449
0.118:471
0.118:532
0.118:573
0.118:567
0.119:538
0.119:508
0.119:474
0.119:448
0.120:430
0.120:422
0.120:416
0.121:367
0.121:334
0.121:330
0.121:342
0.122:373
0.122:402
0.122:431
0.122:456
0.123:477
0.123:477
0.123:499
0.123:560
0.123:594
0.123:587
0.123:567
0.123:539
0.123:508
0.123:482
0.124:467
0.124:459
0.124:451
0.125:401
0.125:368
0.125:366
0.125:379
0.125:405
0.126:435
0.126:464
0.126:490
0.126:513
0.126:533
0.127:590
0.127:622
0.127:611
0.127:577
0.127:542
0.128:513
0.128:492
0.128:477
0.128:465
0.128:453
0.129:404
0.129:369
0.129:368
0.129:387
0.129:417
0.130:446
0.130:477
0.130:502
0.130:523
0.130:547
0.131:609
0.131:638
0.131:627
0.131:604
0.131:576
0.131:544
0.132:522
0.132:506
0.132:497
0.132:489
0.132:440
0.132:409
0.132:409
0.132:427
0.132:456
0.132:481
0.132:509
0.132:533
0.132:533
0.132:559
0.134:585
0.135:649
0.135:679
0.135:671
0.135:643
0.135:613
0.135:580
0.135:555
0.136:539
0.136:534
0.136:522
0.136:471
0.136:439
0.136:438
0.137:454
0.137:481
0.137:515
0.137:543
0.138:568
0.138:591
0.138:616
0.138:677
0.139:704
0.139:697
0.139:668
0.140:635
0.140:603
0.140:582
0.141:567
0.141:556
0.141:543
0.141:494
0.141:464
0.142:460
0.142:474
0.142:498
0.143:530
0.143:562
0.143:583
0.144:604
0.144:629
0.144:692
0.144:718
0.145:704
0.145:672
0.145:638
0.146:606
0.146:580
0.146:560
0.147:546
0.147:533
0.147:479
0.148:446
0.148:443
0.148:462
0.149:488
0.149:512
0.149:534
0.150:534
0.150:553
0.151:573
0.151:599
0.151:657
0.151:678
0.151:664
0.152:627
0.152:589
0.152:557
0.153:528
0.153:503
0.153:488
0.153:477
0.153:423
0.155:389
0.155:382
0.155:396
0.155:417
0.155:441
0.156:468
0.156:484
0.156:499
0.156:522
0.157:580
0.157:605
0.157:593
0.157:560
0.157:517
0.157:475
0.157:449
0.158:430
0.158:413
0.158:394
0.158:337
0.158:300
0.158:298
0.158:313
0.158:344
0.159:369
0.159:390
0.159:404
0.159:422
0.160:446
0.160:506
0.160:528
0.161:515
0.161:484
0.161:455
0.161:419
0.161:389
0.161:370
0.161:355
0.161:338
0.162:288
0.162:262
0.162:261
0.162:275
0.163:299
0.163:330
0.163:330
0.163:357
0.163:382
0.163:407
0.163:440
0.164:502
0.164:526
0.164:513
0.164:482
0.164:446
0.165:418
0.165:396
0.165:377
0.165:364
0.165:339
0.165:280
0.166:244
0.166:241
0.166:256
0.166:274
0.166:298
0.167:322
0.167:340
0.167:364
0.167:393
0.168:456
0.168:484
0.168:479
0.168:451
0.168:421
0.169:388
0.169:366
0.169:355
0.170:349
0.170:332
0.170:282
0.170:255
0.170:259
0.171:285
0.171:316
0.171:339
0.171:369
0.171:395
0.171:418
0.171:446
0.171:512
0.171:533
0.171:520
0.172:489
0.172:459
0.173:424
0.173:400
0.173:388
0.174:381
0.174:361
0.174:309
0.174:282
0.175:285
0.175:311
0.175:340
0.176:340
0.176:370
0.176:400
0.177:423
0.177:445
0.177:478
0.178:548
0.178:571
0.178:559
0.178:528
0.179:495
0.179:455
0.179:427
0.180:415
0.180:409
0.180:400
0.181:354
0.181:323
0.181:322
0.181:339
0.181:360
0.183:382
0.183:405
0.183:422
0.183:440
0.184:469
0.184:534
0.184:561
0.184:552
0.185:520
0.185:489
0.185:455
0.185:430
0.185:413
0.185:402
0.185:377
0.185:321
0.186:301
0.186:311
0.186:336
0.186:373
0.186:407
0.186:434
0.186:460
0.187:485
0.187:518
0.187:579
0.187:596
0.187:583
0.188:551
0.188:518
0.188:480
0.188:456
0.188:441
0.189:431
0.189:408
0.189:355
0.189:333
0.189:332
0.190:350
0.190:350
0.190:372
0.190:401
0.190:421
0.190:440
0.191:466
0.191:492
0.191:553
0.191:571
0.191:557
0.191:526
0.191:504
0.191:481
0.193:460
0.193:441
0.193:428
0.193:399
0.193:355
0.194:335
0.194:335
0.194:357
0.194:395
0.194:431
0.194:467
0.195:492
0.195:515
0.195:545
0.195:610
0.195:632
0.196:615
0.196:568
0.196:517
0.196:459
0.196:422
0.196:401
0.197:394
0.197:370
0.197:325
0.198:315
0.198:329
0.198:349
0.198:378
0.198:420
0.199:451
0.199:463
0.199:467
0.199:488
0.199:550
0.199:580
0.200:575
0.200:552
0.200:516
0.200:473
0.200:438
0.200:411
0.200:415
0.201:418
0.201:383
0.201:367
0.201:361
0.201:361
0.201:376
0.201:394
0.201:422
0.202:459
0.202:490
0.202:504
0.202:532
0.202:608
0.202:648
0.202:637
0.204:590
0.204:518
0.204:459
0.204:404
0.204:344
0.204:332
0.204:340
0.205:335
0.205:357
0.205:364
0.205:372
0.205:394
0.206:421
0.206:436
0.206:454
0.206:485
0.206:548
0.207:611
0.207:614
0.207:585
0.207:543
0.207:509
0.208:479
0.208:457
0.208:448
0.208:446
0.208:437
0.209:388
0.209:353
0.209:341
0.209:367
0.209:406
0.210:439
0.210:460
0.210:492
0.210:522
0.210:563
0.211:649
0.211:659
0.211:622
0.211:565
0.211:521
0.212:502
0.212:478
0.212:444
0.212:418
0.212:402
0.213:381
0.213:371
0.213:371
0.213:364
0.213:377
0.213:407
0.213:451
0.213:472
0.213:485
0.213:488
0.213:509
0.213:576
0.214:593
0.214:582
0.214:547
0.214:508
0.214:466
0.215:440
0.215:421
0.215:421
0.215:401
0.215:340
0.215:291
0.216:276
0.216:285
0.216:320
0.216:357
0.217:383
0.217:425
0.217:480
0.217:569
0.217:662
0.217:686
0.217:685
0.218:655
0.218:584
0.218:499
0.218:449
0.218:431
0.218:431
0.219:407
0.219:356
0.219:329
0.219:329
0.220:344
0.220:364
0.220:397
0.220:431
0.220:468
0.220:502
0.221:549
0.221:614
0.221:637
0.221:625
0.221:596
0.222:573
0.222:544
0.222:518
0.223:494
0.223:467
0.223:417
0.223:343
0.223:343
0.223:325
0.223:348
0.223:376
0.224:406
0.224:442
0.224:461
0.224:479
0.224:504
0.225:530
0.225:588
0.225:616
0.225:635
0.225:634
0.226:612
0.226:568
0.226:519
0.226:495
0.226:476
0.227:419
0.227:346
0.227:331
0.227:340
0.227:371
0.227:406
0.228:441
0.228:472
0.228:504
0.228:528
0.228:586
0.229:674
0.229:690
0.229:656
0.229:619
0.229:589
0.230:550
0.230:506
0.230:452
0.230:435
0.230:402
0.231:354
0.231:343
0.231:366
0.231:399
0.231:416
0.231:456
0.231:489
0.231:526
0.231:567
0.232:642
0.232:714
0.232:712
0.232:687
0.233:661
0.233:623
0.233:587
0.233:556
0.233:549
0.233:537
0.233:463
0.235:463
0.235:387
0.235:376
0.235:371
0.236:379
0.236:386
0.237:406
0.237:410
0.237:410
0.238:424
0.238:480
0.238:544
0.238:546
0.239:506
0.239:454
0.239:424
0.240:449
0.240:466
0.240:452
0.241:418
0.241:349
0.241:294
0.241:301
0.241:340
0.243:374
0.243:409
0.243:459
0.244:491
0.244:527
0.244:531
0.244:560
0.245:615
0.245:615
0.245:566
0.246:513
0.246:481
0.246:436
0.246:401
0.247:369
0.247:370
0.247:313
0.247:242
0.247:234
0.247:240
0.247:274
0.248:329
0.248:383
0.248:414
0.249:450
0.249:455
0.249:490
0.249:573
0.250:604
0.251:596
0.251:585
0.251:585
0.251:574
0.251:531
0.251:500
0.251:484
0.252:484
0.252:406
0.253:318
0.253:265
0.253:228
0.253:256
0.254:316
0.254:376
0.254:428
0.254:468
0.255:494
0.255:548
0.255:584
0.255:546
0.255:512
0.255:471
0.256:462
0.256:469
0.256:480
0.256:475
0.256:456
0.257:373
0.257:311
0.257:293
0.257:295
0.257:300
0.258:310
0.258:347
0.258:380
0.258:408
0.258:457
0.258:538
0.259:629
0.259:645
0.259:616
0.259:563
0.259:492
0.260:435
0.260:396
0.260:374
0.260:378
0.260:320
0.261:257
0.261:259
0.261:274
0.262:330
0.262:391
0.262:464
0.263:502
0.263:540
0.263:555
0.263:575
0.263:598
0.264:587
0.264:567
0.264:527
0.265:489
0.265:428
0.265:369
0.266:352
0.266:352
0.266:355
0.266:310
0.267:235
0.267:196
0.267:189
0.267:228
0.268:265
0.268:325
0.268:413
0.268:491
0.268:560
0.268:653
0.269:731
0.269:746
0.270:744
0.270:739
0.270:738
0.271:731
0.271:742
0.271:782
0.271:828
0.271:809
0.271:800
0.271:874
0.271:955
0.273:989
0.273:987
0.273:986
0.273:986
0.273:986
0.273:985
0.274:984
0.274:983
0.274:982
0.274:983
0.274:984
0.274:984
0.274:985
0.275:986
0.275:986
0.275:987
0.275:989
0.275:950
0.276:800
0.276:691
0.276:616
0.276:549
0.276:488
0.276:405
0.277:338
0.277:307
0.277:322
0.277:349
0.277:326
0.277:294
0.278:282
0.278:284
0.278:281
0.278:275
0.279:275
0.279:281
0.279:263
0.279:169
0.279:103
0.280:60
0.280:53
0.280:93
0.280:128
0.280:197
0.281:275
0.281:344
0.281:366
0.281:464
0.282:542
0.282:533
0.282:505
0.282:464
0.282:438
0.283:425
0.283:395
0.284:387
0.284:407
0.284:387
0.284:337
0.285:315
0.285:286
0.285:282
0.285:279
0.285:283
0.286:271
0.286:253
0.286:216
0.286:269
0.286:344
0.286:373
0.286:396
0.286:357
0.286:307
0.287:264
0.287:268
0.287:293
0.288:306
0.288:237
0.288:172
0.288:168
0.288:171
0.289:200
0.289:225
0.289:238
0.289:233
0.289:271
0.289:357
0.290:436
0.290:468
0.290:470
0.290:449
0.291:395
0.291:328
0.291:256
0.291:256
0.291:240
0.292:236
0.292:239
0.292:230
0.293:221
0.293:239
0.293:270
0.293:307
0.293:304
0.293:264
0.293:250
0.294:284
0.294:319
0.294:393
0.294:427
0.294:366
0.295:311
0.295:271
0.295:240
0.295:178
0.295:124
0.295:129
0.296:135
0.296:81
0.296:17
0.296:17
0.296:17
0.296:30
0.297:96
0.297:176
0.297:243
0.297:306
0.297:390
0.297:504
0.298:580
0.298:590
0.298:565
0.298:505
0.298:406
0.299:330
0.299:294
0.299:285
0.299:271
0.299:155
0.300:105
0.300:149
0.300:233
0.301:300
0.301:357
0.301:421
0.301:472
0.301:515
0.301:508
0.301:530
0.301:517
0.303:466
0.303:398
0.303:349
0.303:315
0.304:315
0.304:298
0.304:295
0.304:344
0.304:395
0.304:404
0.305:453
0.305:565
0.305:619
0.305:629
0.305:660
0.306:663
0.306:661
0.306:650
0.306:599
0.306:582
0.307:595
0.307:617
0.307:622
0.307:621
0.307:622
0.308:631
0.308:611
0.308:565
0.308:502
0.308:428
0.309:381
0.309:371
0.309:383
0.309:423
0.309:480
0.309:535
0.310:591
0.310:644
0.310:665
0.310:710
0.310:737
0.311:718
0.311:670
0.311:619
0.311:614
0.311:645
0.311:689
0.312:709
0.312:714
0.312:649
0.312:609
0.312:571
0.313:522
0.313:466
0.313:408
0.313:391
0.313:419
0.313:455
0.313:514
0.313:631
0.313:724
0.314:758
0.314:748
0.314:740
0.314:740
0.314:726
0.315:748
0.315:748
0.315:726
0.315:666
0.315:585
0.315:507
0.316:501
0.316:561
0.316:640
0.316:703
0.316:742
0.318:742
0.318:740
0.318:761
0.318:852
0.318:923
0.318:900
0.318:834
0.319:756
0.319:712
0.319:690
0.319:662
0.319:647
0.319:657
0.320:580
0.320:490
0.320:444
0.320:416
0.321:429
0.321:466
0.321:494
0.321:491
0.321:510
0.322:550
0.322:608
0.322:663
0.322:718
0.322:753
0.322:778
0.324:783
0.324:747
0.324:681
0.324:643
0.324:600
0.324:509
0.325:456
0.325:461
0.325:499
0.325:532
0.325:531
0.326:530
0.326:536
0.326:566
0.326:579
0.326:674
0.326:757
0.327:788
0.327:777
0.327:777
0.327:682
0.327:581
0.328:500
0.328:456
0.328:456
0.328:438
0.328:367
0.328:340
0.329:360
0.329:372
0.329:371
0.329:369
0.329:376
0.330:405
0.330:416
0.330:395
0.330:428
0.330:436
0.330:392
0.331:358
0.331:344
0.331:380
0.331:453
0.331:485
0.332:467
0.332:424
0.332:367
0.332:307
0.332:245
0.333:206
0.333:177
0.333:183
0.333:226
0.334:278
0.334:325
0.334:353
0.334:406
0.334:435
0.334:411
0.335:373
0.335:341
0.335:318
0.335:289
0.335:281
0.335:291
0.335:330
0.336:337
0.336:317
0.336:303
0.336:296
0.337:262
0.337:236
0.337:234
0.337:245
0.338:296
0.338:381
0.338:543
0.339:641
0.339:628
0.339:628
0.339:574
0.339:492
0.339:433
0.340:412
0.340:355
0.340:297
0.340:275
0.340:243
0.341:240
0.341:266
0.341:302
0.341:366
0.341:420
0.341:492
0.341:534
0.341:558
0.341:539
0.342:555
0.342:539
0.342:538
0.342:546
0.342:523
0.343:514
0.343:499
0.343:430
0.343:412
0.343:431
0.343:412
0.344:408
0.344:441
0.344:457
0.344:433
0.344:430
0.344:440
0.345:442
0.345:451
0.345:433
0.345:406
0.345:366
0.346:363
0.346:341
0.346:363
0.346:393
0.346:404
0.346:375
0.347:400
0.347:443
0.347:453
0.347:426
0.347:406
0.348:425
0.348:478
0.348:514
0.348:539
0.348:530
0.348:543
0.349:576
0.349:624
0.349:619
0.349:619
0.350:563
0.350:530
0.351:527
0.351:513
0.351:536
0.351:558
0.351:545
0.351:527
0.351:482
0.351:482
0.351:434
0.351:359
0.351:314
0.352:315
0.352:355
0.352:413
0.352:502
0.352:535
0.353:551
0.353:549
0.353:540
0.353:495
0.353:470
0.353:456
0.354:445
0.354:416
0.354:393
0.354:392
0.354:323
0.354:331
0.354:415
0.354:452
0.355:440
0.355:429
0.355:400
0.355:394
0.355:402
0.355:362
0.355:365
0.355:381
0.355:374
0.355:367
0.356:400
0.356:469
0.356:514
0.356:521
0.356:513
0.356:460
0.356:395
0.356:346
0.356:314
0.356:274
0.356:279
0.356:331
0.356:402
0.357:442
0.357:456
0.357:408
0.357:397
0.357:397
0.357:398
0.357:379
0.357:351
0.357:360
0.357:400
0.357:447
0.358:468
0.358:499
0.358:536
0.358:505
0.358:432
0.358:398
0.359:355
0.359:311
0.359:253
0.359:211
0.359:203
0.360:236
0.360:264
0.360:346
0.360:438
0.360:460
0.361:470
0.361:491
0.361:489
0.361:431
0.361:361
0.361:306
0.362:275
0.362:243
0.363:293
0.363:353
0.363:385
0.363:392
0.363:391
0.363:398
0.363:416
0.363:458
0.363:469
0.363:463
0.363:414
0.363:388
0.363:381
0.363:351
0.363:292
0.364:276
0.364:309
0.364:348
0.364:373
0.364:328
0.365:310
0.365:327
0.365:363
0.365:314
0.365:225
0.366:253
0.366:302
0.366:348
0.367:324
0.367:324
0.367:341
0.367:378
0.368:394
0.368:467
0.368:529
0.368:527
0.368:531
0.368:551
0.368:549
0.368:501
0.368:462
0.368:436
0.369:410
0.369:396
0.369:370
0.369:386
0.369:402
0.369:394
0.369:394
0.369:411
0.369:487
0.369:546
0.369:595
0.370:570
0.370:505
0.370:456
0.370:411
0.370:368
0.370:383
0.371:408
0.371:407
0.371:416
0.371:430
0.371:446
0.371:437
0.372:384
0.372:312
0.373:303
0.373:298
0.373:316
0.373:379
0.373:432
0.373:523
0.373:579
0.373:548
0.373:506
0.373:482
0.373:457
0.374:429
0.374:376
0.374:309
0.374:257
0.374:224
0.374:244
0.374:257
0.374:243
0.374:215
0.375:213
0.375:336
0.375:336
0.375:441
0.375:521
0.375:522
0.376:479
0.376:435
0.376:444
0.376:492
0.376:499
0.377:477
0.377:428
0.377:343
0.377:262
0.377:206
0.378:164
0.378:163
0.378:198
0.378:243
0.378:269
0.379:310
0.379:250
0.379:167
0.379:155
0.379:145
0.380:130
0.380:143
0.380:166
0.380:228
0.380:298
0.380:334
0.381:368
0.381:348
0.381:297
0.381:223
0.381:138
0.381:119
0.381:132
0.381:161
0.382:154
0.382:144
0.382:99
0.382:31
0.382:18
0.382:16
0.382:16
0.383:35
0.383:106
0.383:220
0.383:299
0.385:330
0.385:328
0.385:273
0.385:224
0.385:237
0.385:299
0.385:352
0.386:383
0.386:370
0.386:338
0.386:308
0.386:308
0.387:297
0.387:332
0.387:401
0.387:444
0.387:474
0.388:463
0.388:433
0.388:366
0.388:292
0.388:217
0.389:160
0.389:141
0.389:133
0.389:213
0.389:287
0.390:323
0.390:314
0.390:269
0.390:202
0.390:217
0.391:234
0.391:274
0.391:303
0.391:306
0.391:326
0.391:356
0.391:371
0.391:400
0.392:408
0.392:369
0.392:346
0.392:324
0.392:286
0.394:271
0.394:279
0.394:296
0.394:281
0.394:283
0.394:283
0.395:284
0.395:309
0.395:314
0.395:338
0.395:337
0.396:326
0.396:293
0.396:268
0.396:232
0.396:201
0.396:164
0.397:187
0.397:233
0.397:252
0.397:221
0.397:165
0.398:182
0.398:275
0.398:344
0.398:294
0.398:294
0.398:310
0.399:363
0.399:384
0.399:389
0.399:334
0.399:275
0.400:209
0.400:160
0.400:135
0.400:137
0.400:128
0.401:159
0.401:166
0.401:155
0.401:184
0.401:211
0.401:263
0.401:316
0.402:327
0.402:345
0.403:377
0.403:402
0.403:458
0.403:453
0.403:393
0.403:379
0.404:336
0.404:291
0.404:258
0.404:298
0.404:345
0.404:389
0.404:421
0.405:409
0.405:355
0.405:352
0.405:371
0.405:352
0.406:323
0.406:277
0.406:279
0.406:325
0.406:392
0.406:478
0.407:533
0.407:552
0.407:550
0.407:513
0.407:453
0.408:451
0.408:466
0.408:440
0.408:415
0.408:435
0.408:461
0.409:514
0.409:551
0.409:550
0.409:549
0.409:549
0.410:541
0.410:507
0.410:466
0.410:449
0.410:447
0.410:409
0.411:331
0.411:236
0.411:164
0.411:134
0.411:120
0.411:130
0.411:207
0.411:244
0.413:291
0.413:344
0.413:351
0.413:332
0.413:284
0.413:266
0.414:261
0.414:281
0.414:287
0.414:308
0.414:362
0.414:377
0.415:335
0.415:318
0.415:313
0.415:322
0.415:371
0.415:435
0.416:445
0.416:357
0.416:252
0.416:182
0.418:169
0.418:175
0.418:163
0.418:201
0.418:272
0.418:308
0.418:338
0.419:330
0.419:260
0.420:192
0.420:147
0.420:123
0.420:148
0.420:209
0.420:280
0.421:332
0.421:364
0.421:371
0.421:417
0.421:521
0.421:620
0.421:688
0.422:677
0.422:677
0.422:609
0.422:510
0.422:425
0.423:408
0.423:440
0.423:445
0.423:426
0.423:428
0.423:430
0.423:453
0.424:525
0.424:554
0.424:562
0.424:591
0.424:590
0.425:574
0.425:549
0.425:534
0.425:481
0.425:444
0.426:436
0.426:428
0.426:403
0.426:386
0.426:410
0.427:406
0.427:398
0.427:367
0.427:350
0.427:349
0.427:389
0.428:431
0.428:468
0.428:542
0.428:601
0.428:688
0.429:819
0.429:947
0.429:990
0.429:989
0.429:989
0.430:988
0.430:987
0.430:987
0.430:987
0.430:987
0.431:987
0.431:987
0.431:987
0.431:986
0.431:984
0.432:982
0.432:981
0.432:981
0.433:982
0.433:982
0.434:983
0.434:984
0.435:985
0.435:985
0.435:987
0.435:988
0.436:988
0.436:989
0.436:990
0.436:925
0.436:754
0.437:604
0.437:496
0.437:405
0.437:360
0.437:367
0.437:412
0.438:431
0.438:437
0.438:405
0.438:359
0.438:355
0.439:375
0.439:406
0.439:419
0.439:437
0.439:499
0.440:552
0.440:577
0.440:621
0.440:600
0.440:551
0.440:506
0.441:477
0.441:449
0.441:429
0.441:458
0.441:466
0.442:448
0.442:392
0.442:331
0.443:279
0.443:257
0.443:263
0.443:283
0.443:298
0.444:301
0.444:330
0.444:374
0.444:458
0.444:483
0.444:494
0.445:441
0.445:392
0.445:406
0.445:426
0.445:409
0.446:398
0.446:465
0.446:494
0.446:445
0.446:380
0.447:356
0.447:356
0.447:356
0.447:333
0.447:325
0.448:337
0.448:352
0.448:362
0.448:385
0.448:383
0.448:358
0.449:352
0.449:392
0.449:470
0.449:509
0.449:539
0.450:553
0.450:573
0.450:596
0.450:582
0.451:550
0.451:536
0.451:533
0.451:512
0.451:501
0.451:483
0.452:461
0.452:433
0.452:431
0.452:445
0.453:463
0.453:452
0.453:419
0.453:402
0.453:393
0.453:395
0.453:409
0.453:458
0.455:536
0.455:596
0.455:651
0.455:694
0.455:709
0.456:656
0.456:596
0.456:558
0.456:536
0.456:510
0.457:511
0.457:505
0.457:496
0.457:474
0.457:427
0.457:405
0.458:416
0.458:456
0.458:508
0.458:561
0.458:560
0.459:528
0.459:518
0.459:518
0.459:487
0.459:461
0.459:458
0.460:469
0.460:477
0.460:450
0.460:449
0.460:492
0.461:524
0.461:528
0.461:543
0.461:559
0.461:571
0.461:560
0.461:547
0.461:553
0.461:590
0.463:613
0.463:600
0.463:597
0.463:582
0.463:569
0.464:551
0.464:524
0.464:463
0.464:435
0.464:461
0.464:520
0.465:529
0.465:512
0.465:520
0.465:563
0.465:609
0.466:646
0.466:718
0.466:754
0.466:744
0.466:709
0.466:635
0.468:577
0.468:563
0.468:529
0.468:440
0.468:343
0.468:288
0.468:322
0.468:365
0.468:409
0.469:427
0.469:419
0.469:400
0.469:410
0.470:428
0.470:434
0.470:450
0.470:467
0.470:477
0.471:484
0.471:501
0.471:501
0.471:520
0.471:523
0.471:542
0.471:537
0.472:526
0.472:469
0.472:443
0.472:422
0.472:429
0.472:453
0.472:475
0.473:510
0.473:528
0.473:523
0.473:520
0.473:503
0.473:495
0.473:511
0.473:499
0.473:486
0.473:499
0.474:534
0.474:557
0.474:572
0.474:613
0.475:632
0.475:646
0.475:644
0.475:666
0.475:647
0.475:589
0.476:505
0.476:459
0.476:464
0.476:503
0.476:552
0.477:617
0.477:710
0.477:742
0.477:707
0.477:688
0.478:682
0.478:686
0.478:674
0.478:635
0.478:605
0.479:576
0.479:564
0.479:595
0.479:615
0.479:581
0.480:524
0.480:468
0.480:487
0.480:552
0.480:566
0.480:549
0.481:569
0.481:552
0.481:552
0.481:533
0.481:547
0.481:575
0.481:582
0.481:597
0.483:595
0.483:595
0.483:618
0.485:609
0.485:600
0.485:569
0.485:525
0.485:466
0.485:406
0.485:390
0.485:403
0.485:394
0.486:392
0.486:414
0.486:428
0.486:453
0.486:494
0.486:514
0.487:508
0.487:493
0.487:470
0.487:465
0.487:475
0.488:460
0.488:479
0.488:481
0.488:445
0.488:408
0.489:398
0.489:391
0.489:392
0.489:375
0.489:340
0.490:340
0.490:382
0.490:434
0.490:489
0.490:517
0.491:523
0.491:527
0.491:509
0.491:460
0.491:438
0.492:440
0.492:432
0.492:380
0.493:335
0.493:338
0.493:361
0.493:367
0.493:366
0.493:358
0.493:364
0.493:370
0.494:370
0.494:349
0.494:346
0.494:364
0.494:393
0.494:429
0.494:438
0.494:419
0.494:418
0.495:412
0.495:407
0.495:399
0.495:393
0.495:370
0.496:352
0.496:350
0.496:321
0.496:312
0.496:294
0.497:307
0.497:351
0.497:370
0.497:396
0.497:427
0.497:434
0.498:443
0.498:475
0.498:467
0.498:449
0.498:437
0.499:420
0.499:43539
0.499:509
0.499:464
0.499:434
0.500:418
0.500:414
0.500:377
0.501:377
0.501:326
0.501:328
0.501:364
0.501:400
0.501:446
0.501:504
0.501:543
0.501:565
0.501:576
0.501:583
0.501:616
0.502:613
0.503:592
0.503:558
0.503:503
0.503:461
0.503:455
0.503:423
0.503:363
0.503:329
0.504:309
0.504:336
0.504:364
0.504:396
0.504:438
0.505:498
0.505:530
0.505:535
0.505:531
0.505:558
0.505:617
0.506:621
0.506:588
0.506:542
0.506:499
0.506:433
0.507:388
0.507:381
0.507:393
0.507:379
0.507:338
0.508:333
0.508:349
0.508:390
0.508:447
0.508:506
0.509:543
0.509:559
0.509:563
0.509:587
0.509:637
0.510:626
0.510:582
0.510:532
0.510:486
0.510:448
0.511:425
0.511:414
0.511:410
0.511:410
0.511:375
0.511:327
0.511:328
0.511:353
0.512:401
0.512:449
0.512:497
0.512:524
0.512:543
0.513:555
0.513:574
0.513:607
0.513:604
0.513:581
0.513:547
0.513:496
0.513:429
0.514:399
0.514:400
0.514:409
0.514:373
0.514:332
0.515:348
0.515:382
0.515:416
0.515:434
0.515:466
0.516:504
0.516:545
0.518:567
0.518:596
0.518:622
0.518:606
0.518:575
0.518:528
0.518:482
0.518:437
0.518:429
0.519:423
0.519:417
0.519:364
0.519:311
0.519:307
0.519:347
0.519:403
0.520:460
0.520:517
0.520:551
0.520:558
0.520:564
0.521:607
0.521:645
0.521:632
0.521:608
0.521:538
0.521:474
0.522:437
0.522:415
0.523:401
0.523:401
0.523:398
0.523:357
0.523:325
0.523:340
0.523:371
0.523:413
0.524:452
0.524:488
0.524:514
0.524:534
0.524:553
0.524:613
0.524:648
0.524:633
0.524:603
0.524:564
0.525:505
0.525:452
0.525:417
0.525:379
0.525:362
0.525:328
0.525:319
0.525:343
0.525:370
0.525:419
0.526:484
0.526:512
0.526:516
0.526:531
0.526:538
0.526:578
0.527:611
0.527:604
0.527:585
0.527:549
0.527:498
0.528:453
0.528:431
0.528:417
0.528:399
0.528:346
0.529:327
0.529:356
0.529:390
0.529:410
0.529:441
0.529:479
0.530:526
0.530:562
0.530:587
0.530:654
0.530:672
0.531:634
0.531:570
0.531:519
0.531:498
0.531:476
0.531:460
0.531:460
0.531:450
0.532:438
0.532:377
0.532:341
0.532:352
0.532:388
0.534:432
0.534:471
0.534:503
0.534:535
0.534:557
0.534:562
0.535:616
0.535:652
0.536:642
0.536:606
0.536:557
0.536:506
0.536:478
0.537:469
0.537:460
0.537:444
0.537:375
0.537:329
0.538:363
0.538:415
0.538:458
0.538:497
0.538:538
0.538:584
0.539:622
0.539:648
0.539:698
0.539:697
0.539:657
0.540:610
0.540:547
0.540:508
0.541:481
0.541:463
0.541:436
0.541:422
0.541:380
0.542:367
0.542:403
0.542:444
0.543:481
0.543:523
0.543:552
0.543:578
0.543:594
0.543:585
0.543:627
0.543:650
0.544:633
0.544:594
0.544:548
0.544:500
0.544:472
0.544:472
0.544:457
0.544:431
0.544:389
0.544:320
0.544:296
0.545:323
0.545:385
0.545:433
0.546:479
0.546:510
0.546:542
0.546:571
0.547:582
0.547:640
0.547:649
0.547:601
0.547:539
0.547:502
0.548:458
0.548:439
0.548:418
0.548:406
0.548:387
0.549:329
0.549:324
0.549:352
0.549:380
0.549:421
0.550:471
0.550:495
0.551:513
0.551:524
0.551:541
0.551:591
0.551:603
0.551:570
0.552:516
0.552:480
0.552:451
0.552:442
0.552:423
0.552:417
0.552:381
0.552:297
0.554:280
0.554:317
0.554:373
0.554:433
0.554:487
0.554:510
0.554:531
0.554:543
0.555:547
0.555:602
0.555:611
0.555:599
0.556:546
0.556:488
0.556:448
0.556:448
0.556:431
0.557:422
0.557:414
0.557:375
0.557:319
0.557:316
0.558:330
0.558:353
0.558:408
0.558:468
0.558:512
0.558:536
0.559:543
0.559:565
0.559:613
0.559:600
0.559:570
0.560:528
0.560:489
0.560:457
0.560:430
0.560:401
0.561:385
0.561:360
0.561:316
0.561:337
0.561:369
0.561:398
0.561:437
0.562:493
0.562:518
0.563:537
0.563:534
0.563:548
0.563:606
0.563:635
0.563:598
0.563:545
0.563:490
0.564:430
0.564:396
0.564:389
0.564:383
0.564:342
0.565:309
0.565:314
0.565:324
0.565:342
0.565:366
0.566:409
0.566:452
0.566:503
0.566:551
0.567:603
0.567:660
0.567:669
0.567:648
0.567:618
0.568:598
0.568:598
0.568:583
0.568:585
0.568:608
0.569:643
0.569:662
0.569:687
0.569:746
0.570:824
0.570:910
0.570:990
0.571:989
0.571:988
0.571:987
0.571:986
0.571:985
0.571:984
0.571:983
0.571:984
0.571:984
0.571:984
0.572:985
0.572:985
0.572:985
0.573:986
0.573:987
0.573:989
0.573:989
0.573:961
0.573:899
0.573:845
0.574:793
0.574:724
0.574:619
0.574:513
0.574:465
0.574:443
0.574:394
0.575:345
0.575:310
0.575:287
0.575:265
0.575:242
0.576:236
0.576:237
0.576:221
0.576:221
0.576:281
0.577:315
0.577:333
0.577:368
0.577:415
0.577:441
0.578:455
0.578:454
0.578:485
0.578:506
0.578:492
0.579:470
0.579:446
0.589:446
0.589:396
0.589:360
0.589:342
0.589:342
0.593:316
0.593:240
0.593:191
0.593:210
0.593:269
0.594:337
0.594:383
0.594:408
0.594:424
0.594:433
0.597:436
0.597:496
0.597:537
0.597:511
0.598:473
0.598:430
0.598:386
0.598:359
0.598:336
0.600:322
0.601:309
0.601:259
0.601:221
0.601:240
0.601:289
0.617:338
0.617:376
0.622:407
0.622:434
0.623:471
0.623:492
0.623:539
0.623:566
0.623:553
0.623:513
0.624:461
0.624:409
0.625:367
0.626:339
0.626:332
0.626:335
0.626:291
0.626:273
0.627:285
0.627:319
0.627:366
0.629:409
0.630:453
0.630:490
0.630:515
0.631:531
0.631:573
0.631:586
0.631:558
0.631:514
0.646:514
0.650:471
0.651:420
0.651:376
0.651:349
0.651:345
0.651:354
0.651:287
0.652:254
0.652:278
0.653:329
0.655:398
0.655:439
0.655:491
0.655:530
0.656:549
0.656:538
0.656:575
0.656:604
0.657:587
0.659:525
0.659:472
0.659:438
0.659:408
0.660:393
0.660:385
0.660:377
0.660:337
0.660:331
0.661:354
0.679:385
0.679:409
0.679:463
0.679:506
0.680:530
0.680:540
0.680:554
0.680:614
0.683:636
0.684:612
0.684:567
0.684:515
0.685:453
0.685:401
0.685:376
0.685:385
0.686:399
0.687:348
0.687:327
0.687:343
0.687:389
0.688:433
0.688:492
0.688:543
0.688:566
0.688:575
0.689:589
0.690:648
0.691:659
0.691:627
0.708:627
0.708:561
0.708:484
0.708:438
0.708:446
0.709:471
0.709:474
0.711:449
0.711:386
0.712:365
0.712:381
0.712:398
0.712:429
0.712:485
0.712:519
0.713:538
0.716:554
0.717:587
0.717:661
0.717:671
0.717:632
0.717:586
0.718:552
0.718:514
0.718:492
0.718:470
0.720:454
0.720:426
0.720:362
0.721:349
0.736:382
0.737:431
0.737:479
0.741:528
0.741:564
0.741:586
0.741:604
0.742:634
0.742:692
0.742:686
0.743:648
0.743:603
0.743:568
0.744:519
0.744:490
0.745:476
0.745:488
0.745:467
0.746:417
0.746:415
0.746:441
0.746:452
0.747:470
0.748:521
0.748:564
0.749:590
0.749:607
0.750:632
0.750:677
0.750:680
0.764:680
0.764:660
0.764:613
0.769:569
0.769:513
0.769:488
0.769:473
0.769:473
0.769:424
0.769:348
0.769:348
0.769:396
0.773:462
0.773:509
0.773:553
0.773:580
0.773:596
0.774:587
0.774:602
0.774:654
0.774:651
0.774:621
0.777:575
0.777:534
0.777:486
0.777:463
0.777:457
0.778:459
0.778:426
0.778:382
0.798:373
0.798:370
0.798:395
0.798:447
0.798:520
0.799:559
0.799:560
0.799:556
0.799:574
0.801:618
0.801:617
0.801:585
0.801:534
0.801:469
0.801:412
0.802:390
0.802:386
0.802:396
0.806:361
0.806:317
0.806:314
0.806:336
0.807:374
0.807:414
0.807:452
0.807:476
0.807:494
0.808:508
0.810:547
0.810:594
0.826:594
0.826:586
0.826:541
0.827:469
0.827:414
0.827:381
0.827:362
0.827:341
0.831:321
0.831:307
0.831:300
0.831:312
0.831:318
0.831:354
0.832:395
0.832:447
0.832:493
0.832:508
0.834:503
0.835:521
0.835:533
0.835:510
0.835:489
0.835:474
0.835:447
0.836:403
0.836:368
0.838:358
0.838:361
0.839:301
0.854:252
0.855:261
0.855:298
0.855:360
0.855:419
0.859:464
0.859:481
0.859:484
0.859:477
0.860:534
0.860:584
0.860:576
0.860:530
0.860:452
0.863:392
0.863:365
0.863:345
0.864:331
0.864:334
0.864:287
0.864:267
0.864:283
0.865:310
0.865:352
0.867:400
0.867:439
0.867:469
0.867:485
0.867:508
0.867:548
0.884:548
0.884:579
0.885:574
0.885:546
0.888:504
0.888:462
0.888:430
0.888:396
0.889:363
0.889:341
0.889:293
0.889:259
0.889:285
0.892:332
0.892:372
0.892:403
0.892:440
0.893:481
0.893:500
0.893:498
0.893:554
0.893:601
0.893:590
0.896:545
0.896:494
0.896:440
0.896:410
0.897:399
0.897:385
0.897:358
0.912:299
0.917:261
0.917:286
0.918:343
0.918:403
0.918:469
0.918:512
0.918:543
0.918:551
0.918:546
0.921:593
0.921:609
0.921:585
0.921:538
0.921:486
0.922:432
0.922:400
0.922:391
0.922:380
0.922:376
0.925:337
0.925:317
0.925:337
0.925:362
0.926:397
0.926:443
0.926:484
0.926:513
0.926:529
0.929:546
0.945:546
0.945:608
0.945:626
0.945:595
0.946:543
0.946:504
0.946:470
0.946:442
0.946:427
0.949:414
0.951:383
0.951:320
0.951:303
0.951:336
0.951:384
0.951:440
0.951:496
0.951:530
0.951:549
0.953:558
0.953:545
0.953:593
0.953:603
0.953:591
0.954:577
0.954:540
0.954:469
0.954:419
0.957:393
0.957:382
0.973:368
0.973:329
0.974:322
0.974:349
0.974:398
0.974:429
0.978:473
0.978:513
0.978:536
0.978:555
0.979:578
0.979:638
0.979:643
0.979:607
0.979:545
0.980:487
0.982:442
0.982:427
0.983:388
0.983:365
0.983:355
0.983:321
0.984:343
0.984:373
0.984:402
0.986:420
0.986:462
0.986:518
0.987:556
0.987:570
1.002:570
1.003:573
1.003:615
1.003:619
1.003:595
1.007:568
1.007:519
1.008:461
1.008:449
1.008:444
1.008:442
1.008:421
1.009:355
1.009:345
1.009:373
1.011:389
1.011:418
1.011:469
1.011:507
1.011:536
1.012:542
1.012:573
1.012:636
1.012:629
1.015:570
1.015:519
1.015:484
1.015:438
1.016:406
1.016:394
1.031:405
1.031:397
1.035:346
1.036:338
1.036:362
1.036:416
1.037:449
1.037:465
1.037:472
1.038:496
1.038:524
1.038:562
1.039:618
1.039:614
1.040:577
1.040:537
1.040:492
1.040:456
1.040:433
1.040:415
1.041:409
1.043:374
1.043:326
1.043:328
1.043:365
1.043:416
1.043:440
1.044:482
1.044:511
1.044:537
1.059:537
1.063:552
1.063:585
1.063:638
1.063:639
1.065:598
1.065:535
1.065:483
1.065:443
1.065:419
1.065:400
1.068:388
1.068:346
1.068:314
1.069:335
1.069:364
1.069:407
1.069:456
1.069:494
1.070:518
1.072:535
1.072:535
1.072:563
1.073:614
1.073:620
1.073:587
1.073:536
1.073:492
1.073:456
1.073:433
1.093:417
1.093:429
1.093:385
1.093:314
1.093:305
1.094:331
1.094:400
1.097:462
1.097:507
1.097:520
1.097:528
1.098:548
1.098:595
1.098:630
1.098:604
1.098:556
1.099:513
1.100:486
1.101:454
1.101:431
1.101:412
1.101:407
1.101:370
1.101:337
1.101:343
1.102:365
1.102:410
1.104:456
1.104:501
1.104:513
1.121:513
1.121:519
1.121:537
1.121:598
1.121:654
1.121:644
1.122:610
1.126:556
1.126:499
1.126:447
1.126:419
1.126:415
1.126:413
1.127:352
1.127:304
1.127:327
1.130:376
1.130:432
1.130:474
1.130:496
1.130:511
1.130:527
1.131:539
1.131:592
1.131:637
1.131:633
1.132:612
1.134:567
1.134:488
1.134:414
1.149:397
1.151:401
1.151:408
1.153:362
1.154:328
1.154:336
1.154:370
1.154:420
1.154:470
1.155:510
1.155:535
1.155:537
1.155:536
1.158:587
1.158:630
1.158:619
1.158:580
1.159:531
1.159:485
1.159:458
1.159:424
1.159:402
1.160:388
1.162:329
1.163:301
1.163:321
1.163:385
1.163:450
1.163:496
1.164:524
1.178:524
1.178:542
1.184:548
1.184:542
1.184:603
1.184:638
1.185:618
1.185:582
1.185:539
1.185:492
1.185:467
1.185:449
1.187:431
1.187:416
1.187:362
1.187:340
1.187:359
1.188:391
1.188:440
1.188:490
1.188:527
1.188:541
1.190:542
1.191:555
1.191:619
1.191:645
1.191:626
1.191:594
1.191:556
1.191:498
1.211:458
1.211:446
1.211:425
1.211:409
1.211:369
1.212:370
1.212:403
1.212:433
1.213:452
1.217:492
1.217:535
1.217:572
1.218:601
1.218:612
1.218:661
1.218:684
1.219:663
1.219:618
1.219:568
1.220:506
1.220:479
1.221:469
1.221:470
1.221:463
1.221:397
1.221:363
1.221:374
1.221:403
1.223:458
1.223:524
1.239:524
1.239:567
1.240:577
1.240:597
1.240:615
1.240:665
1.240:687
1.241:659
1.244:591
1.245:522
1.245:480
1.245:473
1.245:462
1.245:446
1.246:427
1.246:373
1.246:359
1.248:390
1.248:435
1.248:466
1.248:505
1.249:544
1.249:573
1.250:594
1.250:593
1.250:630
1.250:611
1.252:571
1.253:536
1.253:500
1.268:465
1.268:436
1.269:415
1.269:409
1.269:388
1.273:335
1.273:326
1.273:359
1.273:394
1.273:426
1.273:469
1.273:508
1.274:538
1.274:544
1.277:565
1.277:626
1.277:638
1.277:607
1.278:546
1.278:492
1.278:431
1.278:395
1.278:387
1.279:404
1.281:398
1.281:356
1.281:347
1.281:356
1.282:380
1.282:413
1.297:413
1.297:464
1.298:505
1.298:533
1.302:549
1.302:576
1.303:634
1.303:634
1.303:595
1.303:529
1.303:453
1.303:407
1.303:396
1.306:405
1.306:406
1.306:375
1.306:320
1.307:318
1.307:353
1.307:417
1.307:463
1.307:460
1.307:451
1.310:490
1.310:536
1.310:579
1.310:629
1.311:621
1.311:582
1.311:532
1.325:485
1.330:436
1.330:433
1.330:426
1.330:396
1.330:343
1.331:298
1.331:304
1.331:329
1.331:375
1.334:433
1.334:488
1.335:520
1.335:543
1.335:558
1.335:573
1.335:605
1.335:609
1.335:587
1.336:541
1.338:491
1.338:444
1.338:420
1.338:411
1.339:424
1.339:391
1.339:332
1.339:318
1.339:325
1.342:381
1.359:381
1.359:448
1.359:504
1.359:527
1.360:529
1.360:525
1.360:559
1.360:606
1.360:590
1.363:542
1.363:499
1.363:464
1.363:419
1.363:394
1.364:394
1.364:397
1.364:344
1.364:295
1.364:352
1.367:431
1.367:482
1.367:554
1.367:645
1.368:723
1.368:775
1.368:813
1.368:896
1.368:983
1.371:989
1.371:989
1.387:990
1.387:989
1.387:989
1.387:989
1.387:988
1.388:988
1.391:988
1.391:988
1.392:987
1.392:986
1.393:985
1.393:985
1.393:984
1.393:984
1.393:984
1.394:984
1.395:984
1.395:985
1.395:986
1.395:987
1.396:989
1.396:899
1.396:750
1.396:614
1.397:465
1.399:331
1.400:202
1.400:113
1.400:90
1.400:116
1.416:116
1.416:175
1.417:243
1.417:309
1.417:359
1.420:394
1.420:412
1.420:470
1.420:513
1.421:507
1.421:477
1.421:448
1.421:418
1.421:364
1.422:338
1.424:323
1.424:327
1.424:290
1.424:258
1.425:266
1.425:297
1.425:337
1.425:374
1.425:407
1.428:416
1.428:436
1.428:463
1.428:523
1.429:548
1.429:511
1.444:453
1.444:385
1.449:335
1.449:314
1.450:273
1.450:277
1.450:298
1.451:268
1.451:243
1.451:253
1.451:284
1.451:328
1.453:376
1.453:416
1.453:444
1.454:458
1.454:454
1.454:498
1.454:528
1.454:525
1.454:498
1.457:451
1.458:406
1.458:372
1.458:340
1.458:322
1.458:320
1.458:268
1.458:245
1.459:245
1.473:245
1.478:283
1.478:346
1.478:407
1.478:448
1.479:477
1.479:497
1.479:510
1.479:561
1.479:586
1.480:557
1.481:492
1.481:435
1.481:395
1.482:375
1.483:361
1.483:360
1.483:353
1.483:302
1.483:293
1.486:326
1.486:365
1.486:417
1.486:457
1.487:463
1.487:463
1.487:474
1.487:502
1.487:581
1.488:615
1.506:592
1.506:538
1.506:479
1.506:427
1.507:401
1.507:383
1.507:374
1.510:366
1.510:327
1.510:307
1.510:321
1.511:353
1.511:392
1.511:436
1.511:469
1.511:511
1.511:536
1.514:540
1.514:583
1.514:597
1.514:596
1.515:565
1.515:519
1.515:476
1.516:448
1.516:416
1.516:403
1.518:389
1.518:346
1.518:338
1.535:338
1.535:368
1.535:402
1.535:441
1.535:465
1.536:499
1.536:526
1.539:540
1.539:557
1.539:616
1.539:636
1.540:614
1.540:568
1.540:523
1.540:481
1.540:447
1.543:425
1.543:419
1.543:398
1.543:335
1.543:321
1.544:356
1.544:410
1.544:464
1.544:520
1.544:556
1.546:568
1.547:566
1.547:585
1.547:646
1.563:654
1.563:620
1.563:573
1.568:522
1.568:478
1.568:450
1.568:422
1.569:424
1.569:416
1.569:373
1.569:359
1.569:376
1.569:419
1.572:479
1.572:547
1.572:581
1.572:594
1.572:613
1.573:642
1.573:687
1.573:678
1.573:648
1.576:574
1.576:484
1.576:435
1.576:454
1.577:470
1.577:462
1.577:430
1.577:387
1.591:387
1.591:377
1.596:391
1.596:445
1.596:504
1.596:562
1.597:597
1.597:614
1.597:629
1.597:665
1.597:713
1.598:689
1.600:648
1.600:601
1.600:554
1.600:509
1.601:488
1.601:479
1.601:474
1.601:438
1.601:387
1.601:387
1.604:407
1.604:447
1.604:515
1.605:554
1.605:553
1.605:573
1.605:598
1.605:629
1.625:671
1.625:650
1.625:617
1.625:578
1.625:537
1.626:490
1.626:471
1.626:469
1.626:472
1.629:431
1.629:384
1.629:391
1.630:421
1.630:463
1.630:499
1.630:526
1.630:544
1.631:561
1.633:583
1.634:635
1.634:667
1.634:645
1.634:607
1.634:548
1.634:498
1.634:459
1.634:444
1.634:443
1.637:446
1.637:367
1.653:367
1.654:278
1.654:272
1.654:315
1.654:380
1.654:439
1.654:485
1.654:514
1.658:523
1.658:550
1.658:591
1.658:615
1.659:603
1.659:561
1.659:506
1.659:460
1.659:423
1.662:406
1.662:390
1.662:379
1.662:319
1.663:268
1.663:277
1.663:314
1.663:362
1.663:400
1.663:432
1.666:456
1.667:463
1.667:475
1.682:529
1.682:569
1.682:559
1.682:523
1.682:480
1.686:440
1.686:397
1.686:370
1.686:360
1.687:358
1.687:306
1.687:270
1.687:276
1.687:300
1.691:341
1.691:390
1.691:440
1.691:480
1.691:509
1.691:511
1.692:554
1.692:575
1.692:541
1.692:491
1.695:432
1.695:383
1.695:336
1.695:315
1.696:305
1.696:322
1.711:322
1.711:309
1.711:296
1.711:290
1.716:303
1.716:349
1.717:401
1.717:450
1.717:476
1.717:487
1.717:469
1.717:517
1.717:578
1.719:558
1.719:504
1.719:466
1.719:426
1.720:387
1.720:362
1.720:362
1.720:349
1.720:290
1.721:266
1.723:281
1.723:321
1.723:360
1.723:405
1.724:457
1.724:492
1.724:506
1.739:516
1.743:565
1.743:591
1.743:565
1.743:516
1.744:476
1.744:439
1.744:416
1.744:408
1.744:402
1.748:361
1.748:298
1.748:277
1.748:287
1.749:311
1.749:356
1.749:430
1.749:494
1.750:510
1.750:512
1.751:527
1.751:598
1.752:606
1.752:563
1.752:516
1.753:487
1.753:460
1.753:438
1.753:423
1.756:420
1.772:420
1.772:406
1.772:325
1.772:293
1.773:324
1.773:362
1.773:382
1.773:415
1.773:471
1.776:516
1.776:540
1.776:545
1.776:602
1.777:615
1.777:582
1.777:546
1.777:502
1.777:450
1.778:403
1.781:388
1.781:394
1.781:393
1.781:344
1.781:339
1.782:370
1.782:397
1.783:441
1.783:500
1.784:517
1.784:503
1.801:503
1.801:536
1.801:596
1.801:611
1.801:587
1.801:553
1.805:509
1.805:463
1.805:438
1.805:429
1.806:423
1.806:398
1.806:341
1.806:329
1.806:361
1.807:405
1.809:434
1.809:472
1.809:494
1.809:505
1.809:524
1.810:558
1.810:615
1.810:622
1.810:594
1.813:556
1.813:513
1.813:461
1.813:434
1.814:418
1.829:418
1.829:408
1.830:384
1.830:336
1.830:328
1.834:350
1.834:387
1.834:435
1.834:490
1.834:520
1.834:534
1.834:530
1.834:540
1.834:586
1.834:597
1.838:594
1.838:570
1.838:517
1.838:448
1.839:397
1.839:392
1.839:412
1.839:385
1.839:314
1.842:311
1.842:353
1.842:401
1.842:452
1.843:498
1.843:519
1.858:548
1.858:576
1.863:610
1.863:665
1.864:641
1.864:586
1.864:541
1.864:480
1.864:421
1.865:414
1.865:417
1.866:421
1.866:391
1.866:346
1.867:320
1.867:337
1.867:380
1.868:425
1.868:476
1.868:506
1.869:526
1.870:538
1.870:575
1.871:632
1.871:642
1.871:606
1.871:539
1.872:488
1.873:451
1.873:435
1.886:435
1.891:431
1.891:423
1.891:373
1.892:326
1.892:335
1.892:383
1.892:445
1.892:470
1.892:501
1.893:505
1.894:482
1.896:463
1.896:526
1.896:594
1.896:591
1.896:574
1.896:536
1.897:501
1.897:460
1.899:429
1.900:422
1.900:423
1.900:378
1.900:327
1.901:331
1.901:359
1.901:403
1.901:451
1.901:502
1.920:525
1.920:535
1.920:543
1.920:580
1.921:625
1.921:618
1.921:584
1.923:534
1.924:483
1.924:443
1.924:425
1.924:421
1.924:424
1.925:381
1.925:341
1.925:347
1.925:368
1.928:396
1.928:440
1.928:489
1.928:517
1.929:535
1.929:571
1.929:612
1.929:629
1.929:606
1.932:559
1.932:503
1.933:472
1.933:449
1.948:449
1.949:435
1.949:431
1.949:432
1.949:395
1.950:338
1.950:340
1.952:373
1.952:416
1.952:457
1.952:493
1.952:514
1.952:525
1.953:538
1.953:607
1.953:645
1.956:628
1.956:584
1.957:526
1.957:482
1.957:456
1.957:441
1.957:430
1.957:419
1.958:363
1.958:321
1.960:327
1.960:352
1.960:401
1.960:451
1.976:496
1.976:528
1.976:542
1.981:545
1.981:587
1.982:619
1.982:603
1.982:573
1.983:519
1.984:442
1.984:405
1.984:399
1.984:406
1.986:412
1.986:372
1.986:348
1.987:367
1.987:402
1.987:441
1.987:482
1.987:529
1.987:538
1.989:533
1.989:533
1.989:588
1.989:632
1.990:627
1.990:600
1.990:555
1.990:501
2.005:501
2.006:462
2.010:440
2.010:427
2.010:416
2.010:348
2.011:317
2.011:347
2.011:397
2.011:432
2.011:474
2.011:506
2.013:530
2.013:551
2.014:560
2.014:613
2.014:646
2.014:622
2.014:581
2.015:535
2.015:477
2.015:446
2.019:448
2.019:450
2.020:429
2.020:347
2.020:318
2.020:342
2.020:399
2.021:468
2.038:522
2.038:553
2.038:582
2.038:556
2.038:533
2.039:580
2.039:623
2.039:618
2.039:583
2.043:542
2.043:501
2.043:473
2.043:452
2.043:441
2.044:418
2.044:367
2.044:353
2.044:384
2.047:430
2.047:476
2.047:527
2.047:560
2.048:580
2.048:595
2.048:612
2.049:674
2.049:689
2.049:661
2.051:619
2.051:568
2.066:568
2.066:514
2.066:490
2.066:474
2.067:468
2.067:450
2.067:399
2.067:389
2.071:409
2.071:437
2.072:473
2.072:521
2.072:550
2.072:567
2.072:591
2.073:609
2.073:666
2.075:672
2.075:645
2.075:597
2.075:541
2.075:484
2.075:449
2.075:440
2.077:445
2.077:431
2.077:370
2.079:356
2.079:377
2.079:410
2.096:444
2.096:484
2.096:506
2.096:522
2.096:539
2.100:567
2.100:628
2.100:635
2.100:601
2.101:552
2.101:500
2.101:450
2.101:432
2.101:418
2.104:411
2.104:385
2.104:332
2.104:322
2.105:333
2.105:390
2.105:439
2.105:462
2.105:488
2.106:515
2.108:547
2.108:562
2.108:613
2.109:616
2.109:576
2.109:529
2.124:529
2.124:495
2.124:458
2.125:435
2.129:416
2.129:417
2.129:396
2.129:336
2.130:331
2.130:352
2.130:374
2.130:393
2.130:452
2.132:488
2.133:489
2.133:495
2.133:535
2.133:607
2.134:618
2.134:588
2.134:551
2.134:509
2.134:457
2.137:434
2.137:431
2.137:425
2.137:388
2.138:341
2.138:337
2.138:349
2.153:385
2.157:432
2.157:483
2.157:504
2.157:521
2.158:543
2.158:585
2.158:656
2.158:637
2.158:569
2.161:500
2.161:450
2.162:418
2.162:417
2.162:413
2.162:402
2.162:359
2.163:318
2.163:328
2.163:363
2.165:414
2.166:453
2.166:483
2.166:516
2.166:533
2.166:541
2.166:570
2.166:608
2.167:603
2.169:584
2.185:584
2.185:551
2.185:498
2.185:432
2.185:408
2.185:407
2.186:407
2.186:369
2.186:329
2.190:335
2.190:358
2.190:385
2.190:409
2.191:445
2.191:490
2.191:523
2.191:540
2.191:584
2.192:639
2.193:642
2.193:617
2.195:581
2.195:545
2.195:524
2.195:517
2.195:527
2.196:527
2.196:498
2.198:498
2.198:560
2.214:636
2.214:701
2.214:767
2.215:849
2.215:939
2.215:989
2.219:989
2.220:988
2.220:987
2.220:987
2.220:986
2.220:987
2.221:987
2.221:987
2.221:987
2.221:987
2.222:987
2.222:987
2.223:987
2.223:988
2.223:988
2.223:989
2.223:989
2.224:990
2.224:941
2.227:889
2.227:840
2.227:832
2.227:785
2.228:676
2.243:676
2.243:514
2.243:363
2.243:255
2.243:191
2.248:158
2.248:174
2.248:176
2.249:122
2.249:94
2.249:121
2.249:180
2.249:255
2.249:317
2.250:366
2.251:393
2.252:411
2.252:426
2.252:479
2.253:532
2.253:548
2.253:522
2.253:473
2.253:426
2.256:386
2.256:364
2.256:355
2.256:344
2.257:265
2.257:228
2.271:259
2.271:331
2.276:374
2.276:421
2.276:459
2.276:491
2.277:491
2.277:475
2.277:522
2.277:543
2.277:526
2.280:492
2.280:448
2.280:398
2.280:345
2.281:331
2.281:345
2.282:357
2.282:295
2.282:262
2.282:272
2.284:318
2.285:364
2.285:410
2.285:438
2.286:448
2.286:472
2.287:502
2.287:565
2.287:588
2.300:588
2.305:557
2.305:511
2.305:474
2.305:433
2.306:407
2.306:393
2.306:394
2.306:390
2.306:349
2.307:318
2.309:321
2.309:337
2.309:371
2.309:429
2.309:454
2.310:451
2.310:469
2.310:508
2.310:591
2.313:615
2.313:587
2.313:544
2.313:496
2.313:450
2.313:418
2.314:397
2.314:389
2.314:377
2.314:321
2.334:294
2.334:312
2.335:351
2.335:415
2.335:474
2.335:502
2.336:529
2.337:568
2.337:600
2.337:635
2.337:607
2.338:557
2.338:497
2.338:467
2.338:445
2.338:430
2.338:420
2.342:408
2.342:384
2.342:316
2.342:312
2.342:352
2.343:384
2.343:427
2.343:482
2.343:520
2.346:522
2.346:518
2.346:543
2.346:620
2.361:620
2.362:647
2.362:618
2.362:576
2.362:544
2.362:505
2.366:465
2.366:450
2.366:460
2.367:455
2.367:376
2.367:330
2.367:347
2.367:404
2.368:462
2.368:522
2.370:547
2.370:574
2.370:595
2.370:611
2.371:656
2.371:650
2.371:615
2.371:578
2.372:548
2.372:502
2.373:485
2.373:472
2.373:432
2.373:382
2.390:343
2.391:353
2.391:380
2.394:431
2.394:492
2.395:545
2.395:569
2.395:582
2.395:594
2.396:614
2.396:663
2.396:663
2.397:634
2.398:592
2.398:563
2.398:536
2.398:520
2.398:498
2.400:474
2.400:441
2.400:377
2.400:368
2.403:402
2.403:441
2.403:471
2.403:535
2.403:568
2.403:591
2.403:620
2.403:667
2.419:667
2.419:741
2.423:739
2.423:684
2.423:621
2.423:574
2.423:536
2.424:518
2.424:504
2.424:488
2.424:452
2.424:411
2.428:422
2.428:451
2.428:500
2.428:549
2.429:589
2.429:599
2.429:604
2.429:626
2.429:661
2.432:706
2.432:705
2.432:682
2.432:638
2.433:604
2.433:564
2.433:539
2.434:512
2.434:505
2.452:455
2.452:393
2.453:392
2.453:423
2.453:483
2.453:540
2.453:583
2.453:607
2.453:626
2.456:645
2.456:684
2.456:707
2.456:689
2.456:624
2.456:568
2.457:546
2.457:530
2.457:513
2.460:503
2.460:479
2.460:394
2.460:343
2.461:368
2.461:418
2.461:464
2.461:506
2.461:541
2.462:575
2.464:594
2.464:609
2.481:609
2.481:654
2.481:688
2.481:652
2.482:579
2.482:500
2.482:450
2.482:421
2.485:407
2.485:396
2.485:391
2.485:351
2.485:322
2.485:341
2.485:366
2.485:393
2.486:429
2.489:468
2.489:501
2.489:522
2.489:527
2.490:570
2.490:606
2.490:574
2.490:527
2.490:480
2.491:432
2.493:387
2.493:363
2.493:364
2.509:358
2.509:301
2.509:259
2.509:265
2.509:300
2.513:344
2.513:412
2.513:458
2.513:462
2.513:458
2.514:458
2.514:508
2.514:543
2.514:533
2.518:510
2.518:452
2.519:400
2.519:388
2.519:361
2.520:327
2.520:310
2.520:256
2.520:231
2.520:259
2.522:293
2.522:319
2.522:366
2.522:406
2.522:441
2.523:466
2.538:466
2.538:483
2.538:536
2.539:573
2.542:560
2.542:504
2.542:435
2.542:372
2.542:360
2.543:349
2.543:338
2.543:323
2.543:273
2.546:260
2.546:287
2.546:313
2.546:346
2.547:394
2.547:446
2.547:473
2.548:480
2.548:481
2.548:554
2.549:574
2.550:540
2.550:490
2.551:432
2.551:384
2.552:366
2.552:367
2.566:363
2.570:344
2.571:281
2.571:263
2.571:300
2.571:335
2.571:380
2.571:411
2.572:449
2.572:471
2.575:489
2.575:512
2.575:582
2.575:603
2.576:571
2.576:528
2.576:449
2.576:387
2.576:372
2.576:363
2.579:367
2.579:372
2.579:322
2.579:288
2.580:310
2.580:356
2.580:403
2.580:454
2.580:488
2.582:521
2.599:521
2.599:534
2.599:539
2.599:593
2.600:587
2.600:527
2.600:502
2.600:482
2.600:439
2.603:382
2.603:360
2.603:359
2.604:346
2.604:302
2.604:291
2.604:311
2.604:372
2.604:408
2.605:448
2.607:497
2.607:526
2.607:536
2.607:557
2.608:611
2.608:618
2.608:581
2.608:520
2.608:471
2.611:455
2.611:447
2.628:422
2.628:401
2.628:380
2.628:326
2.628:322
2.629:346
2.632:373
2.632:438
2.632:510
2.633:517
2.633:529
2.633:534
2.635:547
2.635:611
2.635:627
2.636:584
2.636:520
2.636:476
2.637:440
2.637:423
2.637:399
2.637:392
2.637:376
2.637:333
2.638:337
2.640:351
2.640:374
2.640:424
2.640:481
2.641:530
2.656:530
2.656:555
2.656:564
2.657:579
2.657:622
2.661:621
2.661:598
2.661:545
2.661:499
2.662:457
2.662:442
2.662:433
2.662:432
2.662:400
2.663:349
2.664:347
2.664:342
2.665:389
2.665:428
2.665:454
2.665:505
2.665:551
2.665:587
2.665:624
2.669:663
2.669:647
2.669:595
2.669:544
2.669:493
2.669:445
2.685:422
2.685:427
2.690:430
2.690:403
2.690:347
2.691:316
2.691:322
2.691:369
2.691:441
2.691:484
2.691:505
2.693:526
2.693:542
2.693:578
2.693:631
2.694:627
2.694:578
2.694:526
2.694:490
2.694:448
2.695:420
2.698:395
2.698:387
2.698:364
2.698:330
2.698:357
2.699:387
2.699:407
2.699:422
2.699:459
2.713:459
2.718:501
2.718:541
2.718:555
2.718:591
2.718:640
2.719:625
2.719:578
2.719:517
2.719:465
2.719:445
2.722:433
2.722:427
2.722:424
2.722:371
2.722:324
2.723:331
2.723:363
2.723:433
2.723:489
2.727:519
2.727:524
2.727:539
2.727:540
2.728:576
2.728:636
2.728:648
2.728:615
2.728:542
2.729:463
2.746:411
2.747:398
2.747:407
2.747:419
2.747:380
2.748:350
2.748:361
2.750:385
2.751:419
2.751:468
2.751:517
2.751:533
2.752:548
2.752:559
2.753:601
2.753:644
2.753:626
2.755:569
2.755:513
2.755:472
2.755:458
2.756:460
2.756:437
2.756:392
2.756:367
2.756:332
2.759:306
2.759:313
2.759:376
2.759:438
2.775:438
2.776:494
2.776:532
2.776:554
2.776:543
2.776:582
2.780:627
2.780:627
2.780:588
2.780:538
2.780:485
2.780:427
2.781:398
2.782:401
2.783:409
2.784:367
2.785:329
2.785:347
2.785:387
2.785:418
2.786:467
2.786:510
2.786:530
2.786:547
2.786:552
2.787:604
2.787:640
2.788:625
2.788:599
2.788:569
2.804:503
2.804:458
2.804:441
2.808:411
2.809:392
2.809:358
2.809:331
2.809:325
2.809:335
2.810:370
2.810:446
2.810:522
2.810:553
2.812:551
2.812:560
2.812:624
2.812:655
2.813:627
2.813:586
2.813:535
2.813:482
2.813:461
2.816:446
2.817:410
2.817:375
2.817:331
2.817:343
2.818:392
2.818:432
2.818:458
2.832:458
2.832:497
2.837:540
2.837:568
2.837:576
2.837:586
2.838:644
2.838:670
2.838:645
2.838:625
2.838:586
2.839:528
2.841:485
2.841:440
2.841:430
2.841:430
2.842:388
2.842:380
2.842:417
2.842:447
2.842:462
2.845:501
2.845:545
2.845:583
2.845:595
2.846:598
2.846:669
2.846:703
2.846:691
2.846:638
2.865:593
2.865:535
2.866:500
2.866:466
2.866:421
2.866:384
2.867:326
2.867:318
2.867:359
2.870:416
2.870:473
2.870:505
2.870:534
2.870:558
2.870:585
2.871:605
2.871:657
2.871:662
2.873:613
2.873:567
2.873:528
2.873:471
2.873:428
2.875:405
2.875:393
2.875:384
2.875:344
2.875:325
2.878:351
2.878:401
2.894:401
2.894:448
2.894:487
2.894:515
2.894:518
2.894:520
2.895:549
2.895:624
2.898:647
2.899:618
2.899:559
2.899:492
2.900:442
2.900:424
2.901:412
2.901:398
2.901:367
2.902:321
2.902:325
2.903:351
2.903:388
2.903:428
2.903:468
2.903:504
2.903:533
2.904:553
2.904:581
2.906:629
2.906:623
2.906:575
2.923:521
2.923:478
2.923:435
2.923:411
2.923:396
2.927:391
2.927:370
2.927:330
2.928:320
2.928:338
2.928:376
2.928:425
2.928:470
2.928:505
2.932:527
2.932:540
2.932:568
2.932:628
2.933:596
2.933:552
2.933:521
2.933:507
2.933:472
2.933:448
2.934:431
2.934:432
2.934:403
2.934:330
2.936:321
2.936:356
2.952:356
2.952:402
2.952:437
2.952:491
2.955:516
2.955:530
2.955:528
2.955:506
2.956:549
2.956:574
2.956:582
2.956:540
2.956:485
2.960:440
2.960:415
2.960:400
2.960:406
2.961:377
2.961:324
2.961:305
2.961:330
2.961:363
2.961:401
2.964:467
2.964:519
2.964:552
2.964:566
2.964:598
2.964:638
2.965:610
2.984:570
2.984:524
2.984:487
2.984:438
2.985:404
2.985:374
2.985:341
2.985:288
2.985:244
2.985:271
2.988:336
2.988:413
2.988:478
2.988:546
2.990:583
2.990:620
2.990:638
2.990:685
2.990:747
2.990:759
2.992:755
2.992:747
2.993:765
2.993:785
2.993:811
2.993:843
2.994:898
2.994:903
2.994:888
2.997:924
3.013:924
3.013:990
3.013:988
3.014:987
3.014:986
3.014:986
3.014:984
3.015:984
3.015:983
3.017:982
3.017:983
3.017:983
3.017:985
3.018:986
3.018:987
3.018:988
3.018:990
3.018:915
3.019:766
3.021:632
3.021:540
3.021:459
3.021:373
3.021:318
3.022:307
3.022:301
3.022:296
3.023:300
3.025:353
3.025:417
3.041:450
3.041:446
3.042:380
3.042:331
3.043:308
3.043:305
3.046:317
3.046:333
3.046:295
3.046:266
3.046:273
3.047:292
3.047:320
3.047:364
3.047:404
3.050:439
3.050:445
3.050:458
3.050:529
3.051:581
3.051:574
3.051:515
3.051:446
3.051:376
3.051:341
3.053:322
3.053:304
3.053:300
3.053:263
3.055:244
3.070:244
3.070:271
3.071:313
3.071:335
3.071:344
3.074:386
3.074:430
3.074:464
3.074:490
3.075:548
3.075:563
3.075:526
3.075:457
3.075:376
3.076:333
3.078:338
3.078:347
3.078:343
3.078:336
3.079:269
3.079:241
3.079:266
3.079:300
3.079:337
3.082:384
3.083:421
3.083:452
3.083:469
3.083:484
3.083:547
3.099:579
3.099:561
3.103:526
3.103:478
3.103:422
3.104:377
3.104:347
3.104:339
3.104:334
3.104:271
3.105:263
3.107:308
3.107:348
3.107:387
3.107:445
3.108:479
3.108:495
3.108:515
3.108:538
3.108:600
3.108:630
3.111:616
3.111:544
3.112:465
3.112:417
3.112:407
3.112:397
3.112:381
3.113:362
3.113:322
3.127:322
3.132:321
3.132:341
3.132:378
3.132:428
3.133:475
3.133:512
3.133:525
3.133:512
3.133:533
3.136:603
3.136:617
3.136:587
3.136:543
3.137:505
3.137:463
3.137:435
3.137:415
3.137:403
3.138:389
3.140:334
3.140:341
3.140:391
3.140:430
3.141:440
3.141:429
3.141:449
3.141:517
3.141:575
3.142:617
3.161:656
3.161:643
3.161:608
3.161:563
3.161:523
3.162:480
3.162:455
3.164:436
3.164:435
3.164:408
3.165:348
3.165:335
3.165:367
3.165:418
3.166:469
3.166:516
3.166:545
3.169:563
3.169:583
3.169:610
3.169:667
3.169:673
3.169:644
3.169:595
3.169:537
3.169:485
3.172:466
3.172:467
3.172:472
3.172:444
3.188:444
3.188:375
3.188:352
3.188:371
3.190:415
3.190:468
3.193:528
3.193:574
3.193:590
3.193:583
3.193:579
3.194:648
3.194:665
3.194:638
3.194:594
3.194:543
3.198:479
3.198:446
3.199:435
3.199:445
3.199:419
3.199:367
3.199:372
3.200:412
3.200:462
3.201:499
3.201:556
3.201:605
3.202:643
3.202:633
3.217:645
3.217:688
3.217:680
3.222:653
3.223:623
3.223:569
3.223:502
3.223:473
3.223:460
3.224:466
3.224:449
3.224:415
3.224:411
3.226:416
3.226:430
3.226:474
3.226:558
3.227:612
3.227:628
3.227:635
3.227:669
3.227:729
3.230:725
3.230:685
3.231:634
3.231:582
3.231:531
3.232:509
3.233:499
3.233:495
3.245:495
3.246:454
3.251:408
3.251:408
3.251:425
3.251:459
3.251:503
3.251:554
3.252:576
3.252:592
3.252:605
3.252:641
3.255:694
3.255:685
3.255:642
3.255:579
3.255:503
3.255:441
3.255:418
3.255:409
3.255:408
3.259:375
3.259:338
3.259:352
3.259:384
3.260:429
3.260:471
3.260:513
3.260:539
3.260:553
3.279:556
3.279:599
3.280:636
3.280:608
3.280:570
3.280:533
3.280:485
3.280:386
3.281:320
3.283:319
3.283:339
3.283:315
3.283:268
3.284:274
3.284:314
3.284:359
3.284:404
3.285:450
3.287:467
3.287:477
3.287:483
3.287:526
3.288:558
3.288:551
3.288:528
3.288:490
3.288:452
3.289:403
3.291:350
3.291:333
3.307:333
3.308:337
3.308:312
3.308:286
3.308:285
3.308:319
3.309:374
3.309:425
3.312:459
3.313:479
3.313:476
3.313:480
3.313:535
3.313:575
3.313:561
3.313:522
3.314:477
3.316:421
3.316:372
3.316:356
3.316:333
3.316:311
3.316:248
3.316:216
3.317:236
3.317:284
3.317:337
3.320:396
3.320:440
3.320:459
3.336:471
3.336:480
3.337:536
3.337:574
3.337:551
3.340:504
3.340:447
3.341:401
3.341:372
3.341:348
3.341:332
3.341:336
3.341:285
3.341:255
3.345:278
3.345:295
3.345:335
3.345:398
3.346:442
3.346:460
3.346:469
3.346:473
3.346:521
3.346:571
3.348:560
3.349:524
3.349:483
3.349:422
3.349:379
3.349:362
3.364:362
3.364:355
3.364:346
3.364:299
3.369:269
3.369:296
3.369:355
3.369:400
3.370:445
3.370:475
3.370:486
3.370:511
3.370:540
3.373:585
3.373:602
3.373:593
3.373:559
3.373:505
3.373:455
3.374:429
3.374:398
3.374:374
3.374:389
3.377:327
3.377:303
3.377:328
3.377:362
3.377:404
3.378:472
3.378:519
3.398:503
3.399:504
3.399:517
3.399:576
3.399:611
3.400:588
3.400:524
3.400:455
3.400:417
3.400:401
3.402:386
3.402:386
3.402:359
3.402:303
3.402:290
3.403:314
3.403:359
3.403:419
3.403:444
3.406:473
3.406:499
3.406:534
3.406:578
3.406:639
3.406:641
3.408:616
3.408:542
3.408:487
3.408:461
3.410:458
3.426:458
3.426:404
3.426:357
3.426:305
3.427:248
3.427:247
3.427:313
3.427:387
3.427:424
3.431:476
3.432:513
3.432:529
3.432:545
3.432:577
3.432:640
3.432:647
3.433:605
3.433:575
3.433:553
3.434:476
3.434:422
3.434:422
3.434:417
3.434:378
3.434:321
3.436:309
3.436:354
3.436:407
3.439:459
3.439:513
3.455:517
3.455:551
3.456:567
3.456:562
3.456:636
3.456:656
3.459:638
3.459:598
3.459:540
3.459:470
3.460:430
3.460:401
3.460:411
3.460:406
3.460:364
3.463:353
3.463:365
3.465:375
3.465:430
3.466:480
3.466:508
3.466:532
3.466:545
3.466:582
3.466:656
3.467:682
3.467:634
3.467:574
3.467:513
3.468:444
3.484:444
3.484:394
3.484:371
3.484:389
3.484:401
3.488:389
3.488:359
3.488:333
3.488:344
3.488:389
3.489:441
3.489:481
3.489:532
3.489:559
3.489:576
3.491:627
3.492:631
3.492:579
3.493:557
3.493:526
3.493:465
3.493:428
3.493:413
3.493:404
3.496:343
3.496:290
3.496:326
3.496:354
3.497:394
3.497:449
3.512:504
3.512:532
3.517:564
3.517:571
3.517:574
3.518:624
3.518:635
3.518:609
3.518:524
3.518:442
3.518:414
3.521:418
3.521:405
3.521:401
3.521:375
3.521:341
3.521:335
3.522:355
3.522:408
3.522:483
3.522:510
3.524:525
3.524:546
3.525:534
3.525:554
3.525:602
3.525:623
3.525:591
3.526:541
3.526:500
3.541:500
3.545:462
3.545:445
3.545:461
3.545:461
3.546:383
3.546:310
3.546:312
3.547:341
3.547:406
3.550:455
3.550:492
3.550:511
3.550:521
3.550:530
3.550:553
3.550:582
3.550:584
3.550:567
3.551:513
3.553:467
3.553:452
3.553:465
3.553:439
3.553:392
3.554:339
3.554:303
3.554:320
3.554:347
3.554:393
3.574:451
3.574:500
3.574:521
3.574:538
3.575:568
3.575:614
3.575:623
3.578:582
3.578:538
3.578:517
3.578:488
3.579:466
3.579:449
3.579:435
3.579:420
3.579:361
3.579:319
3.582:339
3.582:380
3.582:436
3.582:479
3.582:526
3.582:553
3.583:559
3.583:554
3.583:594
3.586:622
3.586:606
3.586:584
3.586:531
3.602:531
3.602:467
3.602:427
3.602:424
3.603:429
3.603:417
3.606:354
3.607:321
3.607:331
3.607:371
3.607:437
3.607:501
3.607:543
3.608:566
3.608:557
3.608:536
3.611:591
3.611:623
3.611:617
3.611:586
3.611:536
3.612:480
3.612:440
3.612:418
3.612:403
3.615:380
3.615:317
3.615:298
3.615:341
3.615:426
3.631:497
3.631:537
3.631:581
3.636:600
3.636:568
3.636:544
3.637:613
3.637:644
3.637:610
3.637:568
3.638:528
3.638:497
3.638:469
3.640:460
3.640:468
3.640:437
3.640:361
3.640:341
3.641:367
3.641:424
3.641:469
3.641:518
3.643:559
3.643:577
3.643:569
3.643:580
3.643:630
3.644:650
3.644:645
3.644:607
3.659:607
3.659:559
3.664:516
3.666:492
3.666:480
3.666:470
3.666:453
3.667:398
3.667:384
3.667:416
3.667:451
3.667:489
3.668:538
3.668:580
3.669:600
3.669:607
3.669:619
3.669:655
3.669:655
3.669:637
3.670:611
3.672:576
3.672:527
3.672:490
3.672:465
3.673:460
3.673:442
3.673:384
3.673:364
3.673:381
3.692:417
3.692:456
3.692:506
3.692:537
3.692:558
3.692:569
3.692:583
3.694:634
3.694:637
3.697:604
3.697:555
3.698:504
3.698:459
3.698:436
3.698:413
3.698:405
3.698:367
3.698:310
3.701:311
3.701:339
3.701:375
3.701:424
3.701:483
3.702:509
3.702:530
3.702:532
3.702:539
3.702:605
3.704:614
3.704:582
3.721:582
3.721:522
3.721:466
3.721:431
3.722:417
3.722:397
3.722:388
3.722:368
3.725:310
3.725:305
3.725:340
3.725:389
3.726:424
3.726:462
3.726:488
3.726:502
3.726:519
3.730:548
3.730:604
3.731:613
3.731:583
3.731:532
3.731:492
3.731:435
3.731:427
3.731:425
3.732:417
3.733:382
3.733:321
3.734:304
3.750:326
3.750:370
3.750:416
3.750:472
3.754:509
3.754:530
3.754:541
3.754:570
3.755:612
3.755:605
3.755:575
3.755:527
3.755:480
3.755:433
3.758:407
3.758:401
3.758:401
3.758:378
3.759:330
3.759:305
3.759:328
3.759:383
3.759:436
3.762:482
3.762:496
3.762:506
3.762:533
3.763:565
3.763:623
3.763:614
3.778:614
3.778:584
3.778:537
3.779:482
3.782:432
3.782:403
3.783:396
3.783:380
3.783:338
3.783:300
3.783:328
3.783:366
3.783:404
3.786:456
3.786:517
3.787:553
3.787:558
3.787:548
3.787:561
3.787:601
3.787:594
3.787:562
3.787:493
3.791:430
3.791:387
3.791:366
3.791:350
3.791:347
3.791:305
3.791:264
3.812:302
3.812:373
3.812:461
3.812:541
3.813:609
3.813:665
3.813:715
3.813:763
3.813:846
3.813:927
3.816:965
3.816:983
3.816:990
3.816:989
3.817:990
3.817:989
3.817:989
3.817:988
3.818:988
3.820:988
3.820:987
3.820:986
3.821:985
3.821:983
3.821:982
3.821:982
3.821:982
3.821:982
3.821:982
3.823:981
3.840:981
3.840:982
3.841:984
3.841:986
3.841:988
3.841:990
3.841:842
3.841:702
3.841:560
3.844:373
3.844:214
3.844:140
3.844:114
3.845:143
3.845:183
3.845:233
3.845:277
3.845:318
3.845:350
3.848:414
3.848:462
3.848:457
3.848:403
3.848:337
3.848:304
3.848:299
3.848:289
3.849:274
3.852:271
3.852:233
3.869:215
3.869:238
3.869:275
3.869:317
3.869:363
3.869:398
3.873:427
3.874:442
3.874:456
3.874:523
3.875:564
3.875:551
3.875:498
3.875:394
3.875:342
3.877:322
3.877:299
3.877:290
3.877:302
3.878:263
3.878:233
3.878:229
3.878:249
3.878:296
3.878:366
3.881:417
3.882:438
3.882:444
3.882:463
3.882:525
3.898:525
3.898:552
3.898:532
3.899:492
3.899:418
3.901:356
3.901:330
3.902:334
3.902:341
3.902:339
3.902:282
3.902:248
3.903:267
3.903:312
3.906:359
3.906:415
3.906:461
3.906:473
3.906:467
3.906:455
3.907:513
3.907:542
3.907:524
3.907:490
3.910:454
3.910:423
3.910:404
3.910:385
3.910:368
3.911:336
3.925:273
3.926:253
3.930:281
3.931:331
3.931:381
3.931:428
3.932:467
3.932:496
3.932:507
3.932:516
3.932:565
3.934:582
3.934:553
3.934:509
3.935:469
3.935:434
3.935:417
3.935:416
3.935:406
3.935:380
3.936:317
3.938:300
3.938:324
3.938:369
3.938:415
3.939:455
3.939:481
3.939:500
3.939:522
3.939:546
3.954:546
3.959:604
3.959:616
3.959:584
3.959:527
3.960:454
3.960:410
3.960:414
3.960:429
3.961:431
3.963:398
3.963:323
3.964:290
3.964:317
3.964:370
3.964:441
3.964:506
3.965:545
3.965:567
3.965:566
3.967:563
3.967:631
3.967:642
3.967:580
3.968:521
3.968:497
3.968:459
3.968:422
3.968:400
3.971:404
3.987:394
3.987:338
3.987:324
3.988:355
3.988:409
3.988:460
3.988:532
3.992:565
3.992:580
3.992:586
3.992:604
3.992:652
3.993:651
3.993:626
3.993:583
3.993:541
3.993:494
3.995:475
3.995:460
3.996:458
3.996:436
3.996:388
3.996:397
3.996:416
3.997:443
3.997:486
4.000:532
4.000:560
4.000:581
4.000:593
4.016:593
4.016:622
4.016:678
4.016:669
4.016:638
4.016:612
4.020:584
4.020:513
4.020:475
4.020:475
4.021:483
4.021:447
4.021:388
4.021:381
4.021:410
4.021:462
4.024:510
4.025:561
4.025:592
4.025:613
4.025:619
4.025:642
4.025:684
4.025:673
4.026:648
4.028:602
4.029:550
4.029:501
4.029:484
4.029:484
4.044:485
4.044:450
4.045:403
4.049:415
4.050:446
4.050:490
4.050:525
4.051:556
4.051:574
4.051:581
4.051:596
4.051:629
4.052:672
4.052:660
4.053:629
4.053:583
4.053:543
4.053:507
4.053:497
4.053:484
4.053:462
4.053:408
4.057:364
4.057:379
4.057:412
4.057:447
4.058:488
4.058:522
4.058:533
4.058:558
4.073:558
4.073:597
4.078:628
4.078:669
4.078:658
4.078:631
4.079:587
4.079:532
4.079:463
4.079:429
4.079:404
4.080:401
4.081:358
4.082:320
4.082:331
4.082:358
4.082:393
4.082:430
4.082:474
4.082:511
4.082:530
4.086:528
4.086:559
4.086:593
4.087:567
4.087:525
4.087:488
4.087:445
4.087:402
4.087:381
4.106:377
4.106:369
4.106:307
4.106:271
4.106:291
4.107:322
4.107:348
4.107:385
4.107:430
4.110:462
4.110:485
4.110:497
4.110:542
4.110:583
4.111:560
4.111:496
4.111:449
4.111:416
4.114:379
4.114:342
4.114:307
4.114:285
4.114:243
4.114:228
4.114:264
4.114:304
4.114:352
4.115:398
4.118:441
4.118:471
4.135:471
4.135:484
4.135:489
4.135:526
4.136:549
4.136:533
4.136:495
4.136:441
4.139:387
4.139:343
4.139:323
4.140:327
4.140:335
4.140:287
4.140:262
4.140:283
4.141:309
4.143:336
4.143:380
4.143:423
4.143:454
4.144:470
4.144:479
4.144:535
4.144:555
4.144:531
4.145:493
4.146:458
4.148:418
4.148:378
4.164:357
4.164:363
4.164:346
4.164:285
4.168:260
4.168:278
4.168:321
4.168:367
4.169:418
4.169:461
4.169:491
4.169:514
4.169:504
4.169:550
4.171:571
4.172:545
4.172:513
4.172:468
4.172:419
4.173:385
4.173:366
4.173:352
4.173:346
4.176:290
4.176:266
4.176:284
4.176:320
4.177:363
4.177:431
4.177:482
4.192:482
4.192:513
4.192:519
4.192:526
4.196:578
4.196:598
4.196:569
4.197:527
4.197:482
4.197:434
4.197:402
4.197:381
4.197:377
4.201:363
4.201:308
4.201:291
4.201:310
4.201:360
4.201:397
4.201:420
4.202:451
4.202:492
4.202:523
4.204:543
4.204:594
4.204:607
4.205:587
4.205:546
4.205:500
4.205:464
4.225:429
4.225:404
4.225:401
4.225:383
4.226:319
4.226:300
4.226:321
4.226:362
4.226:408
4.227:459
4.229:493
4.230:511
4.230:525
4.230:545
4.230:601
4.230:605
4.230:577
4.231:538
4.231:496
4.233:452
4.233:426
4.233:417
4.233:410
4.233:384
4.233:318
4.234:291
4.234:312
4.234:358
4.234:416
4.237:475
4.253:475
4.254:502
4.254:525
4.254:547
4.254:578
4.254:634
4.255:639
4.255:603
4.255:559
4.258:513
4.258:466
4.258:448
4.258:426
4.259:410
4.259:390
4.259:342
4.259:334
4.259:356
4.262:393
4.263:438
4.263:488
4.263:515
4.264:537
4.264:549
4.264:570
4.264:614
4.264:617
4.264:590
4.266:546
4.266:500
4.282:437
4.282:411
4.282:408
4.282:411
4.282:355
4.283:289
4.287:299
4.287:353
4.287:429
4.287:478
4.287:516
4.287:530
4.288:526
4.288:514
4.288:549
4.291:627
4.291:649
4.291:618
4.291:551
4.291:470
4.291:419
4.292:406
4.292:413
4.292:414
4.292:362
4.294:311
4.294:319
4.294:355
4.294:402
4.295:452
4.310:452
4.310:498
4.311:523
4.311:536
4.311:543
4.315:572
4.315:613
4.316:613
4.316:598
4.316:565
4.316:520
4.316:469
4.316:429
4.317:395
4.319:382
4.319:355
4.319:320
4.319:326
4.320:359
4.320:407
4.320:445
4.320:483
4.320:510
4.320:521
4.323:532
4.323:571
4.323:615
4.323:607
4.323:578
4.323:533
4.339:473
4.340:432
4.343:418
4.343:404
4.344:386
4.344:337
4.344:303
4.344:328
4.344:376
4.345:420
4.345:464
4.348:512
4.348:542
4.348:551
4.348:557
4.348:598
4.349:644
4.349:638
4.349:604
4.349:548
4.349:493
4.352:445
4.353:413
4.353:398
4.353:385
4.353:329
4.353:298
4.353:327
4.353:377
4.353:428
4.368:428
4.372:470
4.372:513
4.372:553
4.373:575
4.373:572
4.373:626
4.374:669
4.374:634
4.374:570
4.377:502
4.377:438
4.377:407
4.377:405
4.378:409
4.378:404
4.378:361
4.378:330
4.378:337
4.378:359
4.380:409
4.380:466
4.381:504
4.381:522
4.381:547
4.381:564
4.381:604
4.381:630
4.381:623
4.385:594
4.400:542
4.401:492
4.401:461
4.401:433
4.401:416
4.401:412
4.401:366
4.405:342
4.405:357
4.405:401
4.405:440
4.406:467
4.406:477
4.406:494
4.406:523
4.406:548
4.407:601
4.409:622
4.409:596
4.409:568
4.409:497
4.409:451
4.410:422
4.410:410
4.410:414
4.410:410
4.414:359
4.414:335
4.414:353
4.415:386
4.429:386
4.430:434
4.430:470
4.430:490
4.430:504
4.430:515
4.433:540
4.433:602
4.434:635
4.434:612
4.434:559
4.434:511
4.434:464
4.435:438
4.435:430
4.435:429
4.438:424
4.438:377
4.438:352
4.438:358
4.439:385
4.439:427
4.439:478
4.439:516
4.439:538
4.441:555
4.442:574
4.443:635
4.443:666
4.443:623
4.458:564
4.458:516
4.459:481
4.462:461
4.463:443
4.463:430
4.463:421
4.463:369
4.464:354
4.464:378
4.464:425
4.464:478
4.464:538
4.466:562
4.466:558
4.466:560
4.466:560
4.467:618
4.467:657
4.467:645
4.467:600
4.467:551
4.471:507
4.471:496
4.471:488
4.471:474
4.471:452
4.471:392
4.472:371
4.472:395
4.487:395
4.487:436
4.491:478
4.491:525
4.491:560
4.492:592
4.492:603
4.492:617
4.492:676
4.492:688
4.493:654
4.493:609
4.495:563
4.495:516
4.495:485
4.495:454
4.495:440
4.496:432
4.496:394
4.496:388
4.496:405
4.499:411
4.499:429
4.499:501
4.499:545
4.500:550
4.500:554
4.500:578
4.500:630
4.500:624
4.520:588
4.520:545
4.520:502
4.520:451
4.521:416
4.521:399
4.521:408
4.521:391
4.524:337
4.524:323
4.524:322
4.524:354
4.525:415
4.525:484
4.525:518
4.525:538
4.525:544
4.525:557
4.528:608
4.528:626
4.528:607
4.528:557
4.528:501
4.529:442
4.529:402
4.531:381
4.531:385
4.531:367
4.531:314
4.531:305
4.548:305
4.548:328
4.548:373
4.548:424
4.548:478
4.550:516
4.550:536
4.550:551
4.553:584
4.553:645
4.553:633
4.553:581
4.553:519
4.554:479
4.554:446
4.554:423
4.554:401
4.557:394
4.557:366
4.557:314
4.557:305
4.557:332
4.557:379
4.558:431
4.558:486
4.558:519
4.558:532
4.560:540
4.560:566
4.560:617
4.577:613
4.577:575
4.577:526
4.577:485
4.581:443
4.582:422
4.582:409
4.582:398
4.582:357
4.582:314
4.582:305
4.582:340
4.583:390
4.583:453
4.585:509
4.585:537
4.585:548
4.585:551
4.586:600
4.586:629
4.586:560
4.586:498
4.586:478
4.589:476
4.589:447
4.589:414
4.589:399
4.590:402
4.590:372
4.590:327
4.605:327
4.605:327
4.605:357
4.610:405
4.610:451
4.610:493
4.610:512
4.611:521
4.611:518
4.611:554
4.611:605
4.611:603
4.611:573
4.614:525
4.614:456
4.614:396
4.614:386
4.614:381
4.614:392
4.615:349
4.615:301
4.615:290
4.615:336
4.618:424
4.618:524
4.618:606
4.618:657
4.619:703
4.619:740
4.619:804
4.639:875
4.639:898
4.639:905
4.639:900
4.640:901
4.640:914
4.640:937
4.640:978
4.640:990
4.641:990
4.642:990
4.642:990
4.643:989
4.643:988
4.643:986
4.644:985
4.644:984
4.644:984
4.644:984
4.647:984
4.648:984
4.648:986
4.648:987
4.648:988
4.649:979
4.649:851
4.649:754
4.649:664
4.649:573
4.651:430
4.667:430
4.667:289
4.667:215
4.667:194
4.668:191
4.668:210
4.668:258
4.668:311
4.668:334
4.671:355
4.672:429
4.672:492
4.672:475
4.672:428
4.672:379
4.673:335
4.673:300
4.673:287
4.675:293
4.675:288
4.675:234
4.675:224
4.676:259
4.676:289
4.676:323
4.676:373
4.676:433
4.677:470
4.680:485
4.681:494
4.696:550
4.696:574
4.696:555
4.696:511
4.697:450
4.697:394
4.699:361
4.700:346
4.700:337
4.700:328
4.700:281
4.700:248
4.700:261
4.701:303
4.701:355
4.704:411
4.704:448
4.704:468
4.704:484
4.705:490
4.705:542
4.705:568
4.705:557
4.705:505
4.706:441
4.708:392
4.708:369
4.708:355
4.708:354
4.709:348
4.724:348
4.725:295
4.725:275
4.725:294
4.725:333
4.729:383
4.729:438
4.729:476
4.730:500
4.730:497
4.731:496
4.731:542
4.731:567
4.731:551
4.733:529
4.733:506
4.733:483
4.734:466
4.734:432
4.734:341
4.734:278
4.734:250
4.735:268
4.735:306
4.737:353
4.737:398
4.737:448
4.738:488
4.738:503
4.738:499
4.753:513
4.753:573
4.757:576
4.757:566
4.758:529
4.758:487
4.758:444
4.758:418
4.758:402
4.758:397
4.759:385
4.762:334
4.762:322
4.762:339
4.762:375
4.762:417
4.763:473
4.763:510
4.763:535
4.763:548
4.763:572
4.766:640
4.766:649
4.766:596
4.766:539
4.767:505
4.767:459
4.767:431
4.767:418
4.767:411
4.782:411
4.786:388
4.786:338
4.786:340
4.786:374
4.787:413
4.787:448
4.787:495
4.787:525
4.787:549
4.790:571
4.790:601
4.790:657
4.790:655
4.790:617
4.791:573
4.791:536
4.791:487
4.791:459
4.792:430
4.793:413
4.794:392
4.794:346
4.794:348
4.794:382
4.794:429
4.795:474
4.795:535
4.795:575
4.798:572
4.814:556
4.814:581
4.815:648
4.815:667
4.815:655
4.815:614
4.815:561
4.819:518
4.819:499
4.819:461
4.819:414
4.820:363
4.820:312
4.820:326
4.820:376
4.820:439
4.821:488
4.822:538
4.822:566
4.823:591
4.823:608
4.823:633
4.823:679
4.823:678
4.824:650
4.824:599
4.827:553
4.827:513
4.827:498
4.827:492
4.843:492
4.843:492
4.843:458
4.843:407
4.843:399
4.843:425
4.847:473
4.847:513
4.847:563
4.848:595
4.848:617
4.848:637
4.848:681
4.848:739
4.848:711
4.850:654
4.851:600
4.851:566
4.851:528
4.852:506
4.852:487
4.852:486
4.852:450
4.852:412
4.852:423
4.856:454
4.856:494
4.856:524
4.856:561
4.857:603
4.871:638
4.871:668
4.871:708
4.876:728
4.876:682
4.876:621
4.876:561
4.877:515
4.877:500
4.877:496
4.877:482
4.877:474
4.878:430
4.879:385
4.880:395
4.880:438
4.880:475
4.880:513
4.880:564
4.881:581
4.881:583
4.881:586
4.884:618
4.884:663
4.884:652
4.884:618
4.885:573
4.885:521
4.885:467
4.885:440
4.900:440
4.900:434
4.905:434
4.905:392
4.905:356
4.905:360
4.906:373
4.906:407
4.906:461
4.906:504
4.906:528
4.907:531
4.909:523
4.909:557
4.909:595
4.909:580
4.909:546
4.909:501
4.910:451
4.910:408
4.910:384
4.913:365
4.913:358
4.914:312
4.914:280
4.914:292
4.914:325
4.914:377
4.915:415
4.915:441
4.933:449
4.934:461
4.934:480
4.934:548
4.934:599
4.934:569
4.934:513
4.935:464
4.938:403
4.938:358
4.938:337
4.938:333
4.939:327
4.939:284
4.939:265
4.939:284
4.939:308
4.940:329
4.942:355
4.942:383
4.942:421
4.942:461
4.942:492
4.942:548
4.943:571
4.943:537
4.943:478
4.946:436
4.946:377
4.947:332
4.962:332
4.962:325
4.962:334
4.963:328
4.963:286
4.963:259
4.963:279
4.963:311
4.966:351
4.966:402
4.966:446
4.966:474
4.966:485
4.967:488
4.967:540
4.967:563
4.967:543
4.970:507
4.970:459
4.970:405
4.970:371
4.971:360
4.971:356
4.971:342
4.971:288
4.971:261
4.972:277
4.974:316
4.974:365
4.974:415
4.990:451
4.991:470
4.991:474
4.991:489
4.995:552
4.995:575
4.995:565
4.997:536
4.997:482
4.997:429
4.998:395
4.998:364
4.998:353
4.998:349
4.999:306
4.999:292
4.999:326
4.999:365
5.000:395
5.000:430
5.000:470
5.000:486
5.000:482
5.003:492
5.003:553
5.003:580
5.004:565
5.004:523
5.004:479
5.004:427
5.018:427
5.019:400
5.019:394
5.023:404
5.023:382
5.023:311
5.023:279
5.024:298
5.024:332
5.024:379
5.024:434
5.025:481
5.025:504
5.028:519
5.028:539
5.028:603
5.028:624
5.029:601
5.029:556
5.030:505
5.030:435
5.030:395
5.030:377
5.031:376
5.031:354
5.031:305
5.031:308
5.031:343
5.033:384
5.033:429
5.052:477
5.052:505
5.052:530
5.053:547
5.053:560
5.054:606
5.054:607
5.054:585
5.054:544
5.054:506
5.056:469
5.056:434
5.056:402
5.056:374
5.057:358
5.057:329
5.057:344
5.057:382
5.057:405
5.060:424
5.060:464
5.060:509
5.060:531
5.061:551
5.061:562
5.061:617
5.061:625
5.061:601
5.063:559
5.063:516
5.080:516
5.081:467
5.081:442
5.081:425
5.081:411
5.081:374
5.081:318
5.081:327
5.081:362
5.085:405
5.085:451
5.085:495
5.085:511
5.086:512
5.086:519
5.086:561
5.086:630
5.086:637
5.089:600
5.089:551
5.089:505
5.089:462
5.090:439
5.090:429
5.090:427
5.090:399
5.090:350
5.091:330
5.093:343
5.093:380
5.109:417
5.109:469
5.110:515
5.110:562
5.110:571
5.110:597
5.113:645
5.113:631
5.113:595
5.113:550
5.113:499
5.115:451
5.115:428
5.115:410
5.115:410
5.118:385
5.118:348
5.118:355
5.118:389
5.119:444
5.119:485
5.119:505
5.119:509
5.119:515
5.120:500
5.122:527
5.122:592
5.122:616
5.122:600
5.122:552
5.138:552
5.138:497
5.138:450
5.138:421
5.138:408
5.142:410
5.142:375
5.142:336
5.142:340
5.143:361
5.143:397
5.143:440
5.143:497
5.144:526
5.146:545
5.146:564
5.146:607
5.146:640
5.146:610
5.148:561
5.148:503
5.148:463
5.148:433
5.148:417
5.150:411
5.150:409
5.150:365
5.151:326
5.151:335
5.151:371
5.166:425
5.166:463
5.170:495
5.170:534
5.171:561
5.171:567
5.171:597
5.171:626
5.171:611
5.172:566
5.172:524
5.175:484
5.175:445
5.175:419
5.175:415
5.175:420
5.175:373
5.175:339
5.175:349
5.175:369
5.176:402
5.179:460
5.179:518
5.179:547
5.179:563
5.179:562
5.179:598
5.179:625
5.180:612
5.180:581
5.195:581
5.200:537
5.200:492
5.200:465
5.200:433
5.201:388
5.201:381
5.201:340
5.201:312
5.201:334
5.203:371
5.203:418
5.203:476
5.204:514
5.204:526
5.204:544
5.204:566
5.205:620
5.205:647
5.205:634
5.208:584
5.208:516
5.208:459
5.208:428
5.209:414
5.209:421
5.209:437
5.209:396
5.209:366
5.212:383
5.228:410
5.228:436
5.228:480
5.229:514
5.229:520
5.229:524
5.230:556
5.232:634
5.232:664
5.232:624
5.232:570
5.233:523
5.233:478
5.233:435
5.233:415
5.233:419
5.233:419
5.236:370
5.236:349
5.236:368
5.236:399
5.236:437
5.237:485
5.237:528
5.237:564
5.237:586
5.240:600
5.240:665
5.240:695
5.240:673
5.257:673
5.257:622
5.257:571
5.257:515
5.257:477
5.258:444
5.261:427
5.261:430
5.261:388
5.261:374
5.262:393
5.262:429
5.262:473
5.262:520
5.262:558
5.263:586
5.265:602
5.265:610
5.265:666
5.265:683
5.265:660
5.265:620
5.266:571
5.266:521
5.266:483
5.269:466
5.269:463
5.269:434
5.269:370
5.270:343
5.285:376
5.285:426
5.285:464
5.290:487
5.290:528
5.290:546
5.290:556
5.291:572
5.291:621
5.291:638
5.291:622
5.291:573
5.293:514
5.293:466
5.293:441
5.293:424
5.295:419
5.295:404
5.295:352
5.295:345
5.295:367
5.296:387
5.298:408
5.298:461
5.298:513
5.298:538
5.299:544
5.299:546
5.299:598
5.299:615
5.314:615
5.314:577
5.318:524
5.318:480
5.318:434
5.318:415
5.319:419
5.319:424
5.319:396
5.319:341
5.319:340
5.320:376
5.322:402
5.322:419
5.323:462
5.323:500
5.323:531
5.323:554
5.323:580
5.323:639
5.324:649
5.327:606
5.327:535
5.327:476
5.327:446
5.328:436
5.328:422
5.328:416
5.328:368
5.328:310
5.347:304
5.347:330
5.347:376
5.347:422
5.347:474
5.348:506
5.348:521
5.348:530
5.351:555
5.351:612
5.351:611
5.351:582
5.352:538
5.352:498
5.352:457
5.352:436
5.352:418
5.353:387
5.355:318
5.355:263
5.355:287
5.355:351
5.356:420
5.356:479
5.356:522
5.356:535
5.356:537
5.359:523
5.359:537
5.359:593
5.375:593
5.375:605
5.376:590
5.376:550
5.376:501
5.376:442
5.376:397
5.379:376
5.380:381
5.380:362
5.380:317
5.380:316
5.380:349
5.381:403
5.381:453
5.381:496
5.381:520
5.383:540
5.383:548
5.384:573
5.384:634
5.384:621
5.384:577
5.384:517
5.385:457
5.385:406
5.385:384
5.387:362
5.387:366
5.387:363
5.404:350
5.404:358
5.404:397
5.404:471
5.409:547
5.409:618
5.409:668
5.409:696
5.409:722
5.409:806
5.409:880
5.410:897
5.410:906
5.410:906
5.412:909
5.413:912
5.413:939
5.413:978
5.413:990
5.414:990
5.414:990
5.414:989
5.414:988
5.417:987
5.417:986
5.417:986
5.417:985
5.418:985
5.418:985
5.418:984
5.432:984
5.433:985
5.433:986
5.437:987
5.437:989
5.437:915
5.437:780
5.438:664
5.438:571
5.438:500
5.438:383
5.438:266
5.439:197
5.441:171
5.441:151
5.441:167
5.441:231
5.442:305
5.442:363
5.442:399
5.442:461
5.442:503
5.445:491
5.446:451
5.446:402
5.446:361
5.447:341
5.447:337
5.447:329
5.447:334
5.466:290
5.466:257
5.466:273
5.466:310
5.467:359
5.467:399
5.467:440
5.467:464
5.467:483
5.468:489
5.470:527
5.470:560
5.470:533
5.470:477
5.470:430
5.471:399
5.471:379
5.471:366
5.471:358
5.473:351
5.474:301
5.474:260
5.474:267
5.474:303
5.474:349
5.475:392
5.475:427
5.475:456
5.475:476
5.478:490
5.494:490
5.495:543
5.495:572
5.495:557
5.495:519
5.495:466
5.495:417
5.495:386
5.496:364
5.498:344
5.498:337
5.498:290
5.499:260
5.499:291
5.499:357
5.499:413
5.499:448
5.500:466
5.501:474
5.503:480
5.503:495
5.503:558
5.503:591
5.503:574
5.503:525
5.503:452
5.503:401
5.503:390
5.506:408
5.506:425
5.522:400
5.522:319
5.522:281
5.522:304
5.523:347
5.523:388
5.526:433
5.527:471
5.527:507
5.527:524
5.527:521
5.527:571
5.528:601
5.528:584
5.528:561
5.531:504
5.531:430
5.531:393
5.531:388
5.531:394
5.532:386
5.532:335
5.532:311
5.532:328
5.532:368
5.535:412
5.535:464
5.535:508
5.535:545
5.535:557
5.551:557
5.551:552
5.551:605
5.551:618
5.551:593
5.555:558
5.555:525
5.555:469
5.555:411
5.556:389
5.556:410
5.556:418
5.556:374
5.556:351
5.559:360
5.559:396
5.560:441
5.560:487
5.560:520
5.560:543
5.560:559
5.560:575
5.560:633
5.560:650
5.564:628
5.564:583
5.564:532
5.564:483
5.564:456
5.564:446
5.580:458
5.580:442
5.584:367
5.584:344
5.584:352
5.584:384
5.584:437
5.584:504
5.584:543
5.584:549
5.585:561
5.588:601
5.589:675
5.589:681
5.589:647
5.589:607
5.589:567
5.589:515
5.589:483
5.589:466
5.589:452
5.592:428
5.593:379
5.593:373
5.593:400
5.593:447
5.593:496
5.593:534
5.593:550
5.593:573
5.608:573
5.612:596
5.612:627
5.614:681
5.614:687
5.614:657
5.614:611
5.614:567
5.615:523
5.615:507
5.617:500
5.617:488
5.618:448
5.618:392
5.618:383
5.618:412
5.618:457
5.618:506
5.618:558
5.618:582
5.621:610
5.621:635
5.621:653
5.622:703
5.622:698
5.622:669
5.622:616
5.622:558
5.622:519
5.624:511
5.641:494
5.641:474
5.641:430
5.641:386
5.641:412
5.642:463
5.642:502
5.645:536
5.645:567
5.646:595
5.646:622
5.646:635
5.646:661
5.646:710
5.647:704
5.647:667
5.649:618
5.650:566
5.650:522
5.650:503
5.650:492
5.651:490
5.651:448
5.651:396
5.652:391
5.652:408
5.653:442
5.654:485
5.654:536
5.654:570
5.670:570
5.670:592
5.671:598
5.671:628
5.671:664
5.671:658
5.673:632
5.675:591
5.675:538
5.675:480
5.675:431
5.675:422
5.676:425
5.676:396
5.676:356
5.676:350
5.679:368
5.679:409
5.679:449
5.679:492
5.679:515
5.679:529
5.680:559
5.680:572
5.680:575
5.683:550
5.683:525
5.683:483
5.684:433
5.684:395
5.699:376
5.699:354
5.699:345
5.702:313
5.703:291
5.703:305
5.703:336
5.703:375
5.705:413
5.705:446
5.705:450
5.705:459
5.707:474
5.707:517
5.707:569
5.707:554
5.707:501
5.708:435
5.708:387
5.708:373
5.708:372
5.708:342
5.711:321
5.711:282
5.712:261
5.712:293
5.712:328
5.712:355
5.712:389
5.714:418
5.728:418
5.728:440
5.731:460
5.731:473
5.732:520
5.732:552
5.732:534
5.732:497
5.732:451
5.733:408
5.733:371
5.733:349
5.736:341
5.736:343
5.736:294
5.736:252
5.737:267
5.737:300
5.737:340
5.737:383
5.737:422
5.740:460
5.740:503
5.741:529
5.741:565
5.741:557
5.741:518
5.742:482
5.742:444
5.742:406
5.761:378
5.761:359
5.761:348
5.761:331
5.761:281
5.762:258
5.762:282
5.762:312
5.765:355
5.765:393
5.765:435
5.765:473
5.765:502
5.766:517
5.766:573
5.766:603
5.766:580
5.766:535
5.769:481
5.770:427
5.770:387
5.770:374
5.770:371
5.770:360
5.771:304
5.771:277
5.771:297
5.772:336
5.772:378
5.772:430
5.789:430
5.789:472
5.789:485
5.789:485
5.789:473
5.790:538
5.790:588
5.793:582
5.793:535
5.793:486
5.794:456
5.794:429
5.794:393
5.794:368
5.795:360
5.795:325
5.796:310
5.797:323
5.797:356
5.797:399
5.797:448
5.797:477
5.797:496
5.798:515
5.798:531
5.798:591
5.798:611
5.801:587
5.801:541
5.801:493
5.818:447
5.818:419
5.818:409
5.818:405
5.822:387
5.823:324
5.823:304
5.823:323
5.823:364
5.823:373
5.824:415
5.824:480
5.824:539
5.824:571
5.826:582
5.826:626
5.826:628
5.826:580
5.827:529
5.827:493
5.827:461
5.827:425
5.827:400
5.829:404
5.830:396
5.830:339
5.830:326
5.830:354
5.831:386
5.831:427
5.846:427
5.847:483
5.847:518
5.851:542
5.851:545
5.851:553
5.851:600
5.851:603
5.851:575
5.852:534
5.852:494
5.852:450
5.852:426
5.855:410
5.855:400
5.855:378
5.855:326
5.856:319
5.856:354
5.856:408
5.856:460
5.856:503
5.859:534
5.859:555
5.859:574
5.859:584
5.859:634
5.860:635
5.860:595
5.860:554
5.879:518
5.879:464
5.879:424
5.880:398
5.880:392
5.880:367
5.880:312
5.880:309
5.880:355
5.881:405
5.883:446
5.884:489
5.884:518
5.884:541
5.884:553
5.884:579
5.884:635
5.885:635
5.885:604
5.887:548
5.888:498
5.888:456
5.888:440
5.888:425
5.888:404
5.888:365
5.888:314
5.888:322
5.888:356
5.891:411
5.908:411
5.908:465
5.909:519
5.909:529
5.909:545
5.909:558
5.909:585
5.909:623
5.910:615
5.912:585
5.912:541
5.913:502
5.913:454
5.913:416
5.913:397
5.913:402
5.913:377
5.913:332
5.916:330
5.916:354
5.916:397
5.916:445
5.917:501
5.917:532
5.917:545
5.917:556
5.917:583
5.918:626
5.920:616
5.920:570
5.936:529
5.936:505
5.937:481
5.937:459
5.937:434
5.937:420
5.940:379
5.941:325
5.941:325
5.941:357
5.941:409
5.941:480
5.941:530
5.941:527
5.941:511
5.945:517
5.946:573
5.946:633
5.946:626
5.946:593
5.946:535
5.947:472
5.947:438
5.947:430
5.947:433
5.948:439
5.948:391
5.948:337
5.949:321
5.949:339
5.964:339
5.965:391
5.965:445
5.965:499
5.965:523
5.969:539
5.969:536
5.969:551
5.969:599
5.969:610
5.969:591
5.970:538
5.970:494
5.970:455
5.973:426
5.973:414
5.973:406
5.973:351
5.974:321
5.974:341
5.974:374
5.974:410
5.974:446
5.974:491
5.978:526
5.978:553
5.978:567
5.979:612
5.979:648
5.979:637
5.993:594
5.993:534
5.998:481
5.998:445
5.998:424
5.998:419
5.998:418
5.999:364
5.999:324
5.999:337
5.999:364
6.003:395
6.003:447
6.003:498
6.004:534
6.004:561
6.004:574
6.004:605
6.004:620
6.004:603
6.005:568
6.006:527
6.006:474
6.007:450
6.007:448
6.007:445
6.007:427
6.007:364
6.008:331
6.008:346
6.021:346
6.026:384
6.026:430
6.026:482
6.027:516
6.027:525
6.027:542
6.027:555
6.027:613
6.028:649
6.031:613
6.031:562
6.031:509
6.031:466
6.031:443
6.032:425
6.032:413
6.032:413
6.032:356
6.032:322
6.034:342
6.034:389
6.035:445
6.035:498
6.035:519
6.035:534
6.035:556
6.035:567
6.036:625
6.038:648
6.055:615
6.055:573
6.055:534
6.056:491
6.056:463
6.056:447
6.056:433
6.059:420
6.059:364
6.059:337
6.059:355
6.060:390
6.060:436
6.060:489
6.060:531
6.060:555
6.063:569
6.063:582
6.063:643
6.064:670
6.064:648
6.064:606
6.064:560
6.065:504
6.065:467
6.065:459
6.067:459
6.068:452
6.068:401
6.068:377
6.084:377
6.084:399
6.084:434
6.084:465
6.085:511
6.085:553
6.088:588
6.088:595
6.088:571
6.088:628
6.088:677
6.089:679
6.089:638
6.089:578
6.089:530
6.089:496
6.092:465
6.092:439
6.093:418
6.093:364
6.093:346
6.093:377
6.093:434
6.093:483
6.094:515
6.096:530
6.096:551
6.096:577
6.096:596
6.096:650
6.112:666
6.112:636
6.112:590
6.117:551
6.117:503
6.117:475
6.117:457
6.118:438
6.118:396
6.118:324
6.118:315
6.118:359
6.121:402
6.121:440
6.122:485
6.122:517
6.122:538
6.122:549
6.123:562
6.123:619
6.123:639
6.123:610
6.124:543
6.125:493
6.125:454
6.125:432
6.126:414
6.126:403
6.126:376
6.127:321
6.141:321
6.141:316
6.145:346
6.146:387
6.146:432
6.146:487
6.146:521
6.146:537
6.146:539
6.147:553
6.147:612
6.149:612
6.150:582
6.150:547
6.150:507
6.151:471
6.151:463
6.151:448
6.151:425
6.151:381
6.151:316
6.153:307
6.153:343
6.153:392
6.153:435
6.153:480
6.153:500
6.153:510
6.154:514
6.154:537
6.173:608
6.174:603
6.174:564
6.175:523
6.175:488
6.175:447
6.175:426
6.176:413
6.178:412
6.178:396
6.178:352
6.178:342
6.178:358
6.178:399
6.178:437
6.178:479
6.178:497
6.179:511
6.182:545
6.183:576
6.183:607
6.183:596
6.184:573
6.184:518
6.184:472
6.185:437
6.185:419
6.186:411
6.186:410
6.186:377
6.202:377
6.202:332
6.203:334
6.203:368
6.203:411
6.204:442
6.204:475
6.206:503
6.206:520
6.206:534
6.207:571
6.207:625
6.207:618
6.207:569
6.207:512
6.208:479
6.208:458
6.210:432
6.210:404
6.211:389
6.211:340
6.212:293
6.212:293
6.212:319
6.212:360
6.212:414
6.215:470
6.215:504
6.215:531
6.216:562
6.231:613
6.231:660
6.231:650
6.232:608
6.235:570
6.235:568
6.236:572
6.236:580
6.236:581
6.236:587
6.236:574
6.236:569
6.237:629
6.237:736
6.239:842
6.239:937
6.239:990
6.240:989
6.240:988
6.240:988
6.240:987
6.240:986
6.240:985
6.243:984
6.243:985
6.243:985
6.243:985
6.243:986
6.243:985
6.244:986
6.259:986
6.259:987
6.260:988
6.264:989
6.264:990
6.264:990
6.264:948
6.264:898
6.265:838
6.265:772
6.265:692
6.265:595
6.265:494
6.268:409
6.268:335
6.269:270
6.269:219
6.269:201
6.269:208
6.270:236
6.270:265
6.270:236
6.272:206
6.273:216
6.273:248
6.273:295
6.273:350
6.274:410
6.274:435
6.274:449
6.293:463
6.293:520
6.294:562
6.294:529
6.294:479
6.294:439
6.295:410
6.295:393
6.295:381
6.296:351
6.297:331
6.297:276
6.297:246
6.297:261
6.298:294
6.298:334
6.298:380
6.298:423
6.298:453
6.301:454
6.301:444
6.301:499
6.301:538
6.301:530
6.301:489
6.302:421
6.302:365
6.302:334
6.302:322
6.304:323
6.321:323
6.321:331
6.321:281
6.321:250
6.321:271
6.322:323
6.322:380
6.322:429
6.322:456
6.325:459
6.325:455
6.325:470
6.325:534
6.325:573
6.326:548
6.326:496
6.326:452
6.326:409
6.330:376
6.330:361
6.330:359
6.330:350
6.330:294
6.331:270
6.331:294
6.331:330
6.331:373
6.331:422
6.333:454
6.333:475
6.349:493
6.350:519
6.350:591
6.350:604
6.350:568
6.350:530
6.354:495
6.354:458
6.354:432
6.355:415
6.355:401
6.355:383
6.355:304
6.355:272
6.355:302
6.358:347
6.358:392
6.359:437
6.359:479
6.359:511
6.359:536
6.359:540
6.359:589
6.360:607
6.360:579
6.362:537
6.362:490
6.362:440
6.362:411
6.363:385
6.378:385
6.378:395
6.379:397
6.379:335
6.379:311
6.382:331
6.382:376
6.382:409
6.383:434
6.383:465
6.383:523
6.383:554
6.383:565
6.384:609
6.387:633
6.387:623
6.387:588
6.387:538
6.387:484
6.387:437
6.387:413
6.388:418
6.388:419
6.388:368
6.391:348
6.391:368
6.391:394
6.391:426
6.391:480
6.391:520
6.406:542
6.411:559
6.411:583
6.411:644
6.411:650
6.411:617
6.411:573
6.411:528
6.412:483
6.412:457
6.413:444
6.415:438
6.416:411
6.416:361
6.416:358
6.416:389
6.417:434
6.417:475
6.417:529
6.417:565
6.418:588
6.419:605
6.420:622
6.420:658
6.420:658
6.421:633
6.421:593
6.421:551
6.421:502
6.422:472
6.436:472
6.440:461
6.440:464
6.441:436
6.441:367
6.441:351
6.441:391
6.441:457
6.441:509
6.441:558
6.444:578
6.444:584
6.444:596
6.444:624
6.445:675
6.445:673
6.445:634
6.445:575
6.445:530
6.445:496
6.448:485
6.448:471
6.448:473
6.448:458
6.449:420
6.449:407
6.449:436
6.449:462
6.449:505
6.452:565
6.468:580
6.469:582
6.469:599
6.469:654
6.469:721
6.469:709
6.470:659
6.473:608
6.473:575
6.474:531
6.474:489
6.474:465
6.475:462
6.475:417
6.475:359
6.475:366
6.477:416
6.477:471
6.478:514
6.478:559
6.478:582
6.478:593
6.479:596
6.479:633
6.479:677
6.479:671
6.481:637
6.481:585
6.481:538
6.482:493
6.498:493
6.498:458
6.498:440
6.498:437
6.498:400
6.498:361
6.501:368
6.502:402
6.502:447
6.502:492
6.503:533
6.503:557
6.503:559
6.503:551
6.504:594
6.504:643
6.505:633
6.505:581
6.506:533
6.506:497
6.506:465
6.506:438
6.507:411
6.507:391
6.507:339
6.509:312
6.509:344
6.509:378
6.510:398
6.510:425
6.526:473
6.526:502
6.526:495
6.530:473
6.530:516
6.530:575
6.531:578
6.531:547
6.531:483
6.531:425
6.532:371
6.532:330
6.534:333
6.534:350
6.534:312
6.534:275
6.535:270
6.535:293
6.535:337
6.535:397
6.535:455
6.536:489
6.539:508
6.539:510
6.539:544
6.539:577
6.540:559
6.540:520
6.540:460
6.540:400
6.554:400
6.554:366
6.559:351
6.559:338
6.559:333
6.559:287
6.560:258
6.560:275
6.560:314
6.560:363
6.560:410
6.563:453
6.563:477
6.563:480
6.563:478
6.564:529
6.564:562
6.564:547
6.564:509
6.564:466
6.565:421
6.567:379
6.567:355
6.567:347
6.567:341
6.568:294
6.568:268
6.568:291
6.568:330
6.568:379
6.588:426
6.588:453
6.588:471
6.588:481
6.588:490
6.588:553
6.589:584
6.589:559
6.592:517
6.592:478
6.592:428
6.592:398
6.592:377
6.592:355
6.593:345
6.593:305
6.593:287
6.593:305
6.596:341
6.596:384
6.596:422
6.596:464
6.596:503
6.597:547
6.597:547
6.597:556
6.597:544
6.600:530
6.600:491
6.600:438
6.616:438
6.616:405
6.616:386
6.616:370
6.616:363
6.617:362
6.617:317
6.620:294
6.620:308
6.620:342
6.620:384
6.622:436
6.622:478
6.622:524
6.622:545
6.622:555
6.623:602
6.625:607
6.625:574
6.625:530
6.625:482
6.626:439
6.626:404
6.626:383
6.626:383
6.626:376
6.628:323
6.628:304
6.628:326
6.629:369
6.644:414
6.644:465
6.644:499
6.645:526
6.649:535
6.649:542
6.649:604
6.649:622
6.650:596
6.650:552
6.650:507
6.650:458
6.650:432
6.650:418
6.653:408
6.653:382
6.653:313
6.653:294
6.654:322
6.654:369
6.654:419
6.654:473
6.654:510
6.657:528
6.657:539
6.657:555
6.657:615
6.658:623
6.658:598
6.658:559
6.673:559
6.674:522
6.674:473
6.678:440
6.678:424
6.678:421
6.679:394
6.679:339
6.679:323
6.679:333
6.679:378
6.680:424
6.680:469
6.682:498
6.682:523
6.682:554
6.683:586
6.683:652
6.683:627
6.683:582
6.683:524
6.684:464
6.686:420
6.686:406
6.686:420
6.687:432
6.687:410
6.687:358
6.687:354
6.687:371
6.707:385
6.707:410
6.707:463
6.707:505
6.708:540
6.708:558
6.708:586
6.708:644
6.708:645
6.709:597
6.711:534
6.711:491
6.711:465
6.712:448
6.712:425
6.712:411
6.712:373
6.712:324
6.712:334
6.715:371
6.715:415
6.715:451
6.715:492
6.716:515
6.716:530
6.716:552
6.716:584
6.716:650
6.717:638
6.718:584
6.735:584
6.735:533
6.736:497
6.736:457
6.736:433
6.736:416
6.736:411
6.736:381
6.737:337
6.739:348
6.739:373
6.740:407
6.740:447
6.740:491
6.740:508
6.740:513
6.740:542
6.741:591
6.743:648
6.743:651
6.743:619
6.743:563
6.743:499
6.745:437
6.745:410
6.745:416
6.745:418
6.745:371
6.747:318
6.747:306
6.764:337
6.764:389
6.764:453
6.764:502
6.764:528
6.768:548
6.768:557
6.768:598
6.768:640
6.769:632
6.769:606
6.769:533
6.769:477
6.769:435
6.770:403
6.772:396
6.772:414
6.772:372
6.773:317
6.773:321
6.773:359
6.773:407
6.773:460
6.773:509
6.773:534
6.775:548
6.776:551
6.776:580
6.776:617
6.776:605
6.792:605
6.792:562
6.792:512
6.792:465
6.792:437
6.796:425
6.796:424
6.796:424
6.796:374
6.796:345
6.798:373
6.798:406
6.798:421
6.798:444
6.801:489
6.801:521
6.801:542
6.801:556
6.801:600
6.801:640
6.802:634
6.802:603
6.802:524
6.802:461
6.804:439
6.804:438
6.804:421
6.805:400
6.805:357
6.805:320
6.821:330
6.825:373
6.825:428
6.825:471
6.825:508
6.825:523
6.826:536
6.826:543
6.826:591
6.826:631
6.827:625
6.829:588
6.829:535
6.829:478
6.829:441
6.830:417
6.830:412
6.830:409
6.830:351
6.830:309
6.833:329
6.833:375
6.833:433
6.833:480
6.833:513
6.834:534
6.834:542
6.834:539
6.834:595
6.834:631
6.849:631
6.853:617
6.853:579
6.853:531
6.854:473
6.854:448
6.854:441
6.854:435
6.854:429
6.854:360
6.858:312
6.858:321
6.858:346
6.858:375
6.859:427
6.859:478
6.859:529
6.859:569
6.859:582
6.860:632
6.861:657
6.862:633
6.862:581
6.862:519
6.862:470
6.862:441
6.863:414
6.863:405
6.863:399
6.866:352
6.882:346
6.882:379
6.883:415
6.883:440
6.883:465
6.883:492
6.883:520
6.886:548
6.886:567
6.886:619
6.886:616
6.887:591
6.887:558
6.887:515
6.888:472
6.888:443
6.891:420
6.891:415
6.891:416
6.891:368
6.892:337
6.892:345
6.892:367
6.892:404
6.892:458
6.893:512
6.894:553
6.894:577
6.894:589
6.896:644
6.912:644
6.912:657
6.912:624
6.912:576
6.912:521
6.913:464
6.915:438
6.915:428
6.915:423
6.915:403
6.916:355
6.916:343
6.916:361
6.916:394
6.916:441
6.917:491
6.919:522
6.919:531
6.919:518
6.919:524
6.919:621
6.920:659
6.920:630
6.920:598
6.920:566
6.923:523
6.923:493
6.923:465
6.924:440
6.924:419
6.939:377
6.939:368
6.940:392
6.943:438
6.944:486
6.944:536
6.944:574
6.944:597
6.945:605
6.945:613
6.945:664
6.945:667
6.948:640
6.948:589
6.948:532
6.948:481
6.948:462
6.949:458
6.949:460
6.949:440
6.949:385
6.950:374
6.952:397
6.953:426
6.953:459
6.953:525
6.953:577
6.954:600
6.954:591
6.954:602
6.967:602
6.968:674
6.972:680
6.972:632
6.972:562
6.973:512
6.973:483
6.973:474
6.973:462
6.973:463
6.973:414
6.977:344
6.977:320
6.978:346
6.978:401
6.978:442
6.978:491
6.978:518
6.978:530
6.979:540
6.979:572
6.980:624
6.980:627
6.981:599
6.981:554
6.981:505
6.981:455
6.981:436
6.982:435
6.982:436
7.001:388
7.001:305
7.001:274
7.001:304
7.001:379
7.001:450
7.002:505
7.002:544
7.005:561
7.005:546
7.005:548
7.005:594
7.006:605
7.006:587
7.006:543
7.006:494
7.007:445
7.007:416
7.009:402
7.009:405
7.009:374
7.009:335
7.009:343
7.010:367
7.010:403
7.010:441
7.010:484
7.013:509
7.013:522
7.013:539
7.030:539
7.030:580
7.030:624
7.030:609
7.031:574
7.031:529
7.031:485
7.034:444
7.034:417
7.034:404
7.034:401
7.035:353
7.035:311
7.035:319
7.035:344
7.035:387
7.035:434
7.038:479
7.038:509
7.038:533
7.039:545
7.039:577
7.039:613
7.039:597
7.039:554
7.039:504
7.042:456
7.043:402
7.043:390
7.043:411
7.058:426
7.058:384
7.058:348
7.059:348
7.062:356
7.062:385
7.063:437
7.063:505
7.063:539
7.063:539
7.064:531
7.064:572
7.064:621
7.064:610
7.066:578
7.066:532
7.067:485
7.067:447
7.067:423
7.067:404
7.067:398
7.068:351
7.068:328
7.071:346
7.071:373
7.071:403
7.071:445
7.071:490
7.071:523
7.072:537
7.086:537
7.087:545
7.087:578
7.091:580
7.091:524
7.091:480
7.092:463
7.092:462
7.092:455
7.092:444
7.093:438
7.093:438
7.093:385
7.095:358
7.095:395
7.095:477
7.095:565
7.096:644
7.096:714
7.096:774
7.096:832
7.096:892
7.099:990
7.099:989
7.099:989
7.099:989
7.100:988
7.100:988
7.100:988
7.100:988
7.120:988
7.120:987
7.121:987
7.121:987
7.121:986
7.121:986
7.121:985
7.121:984
7.122:984
7.122:984
7.123:985
7.123:986
7.124:986
7.124:987
7.124:988
7.124:990
7.124:846
7.124:708
7.125:573
7.128:434
7.128:326
7.129:227
7.129:99
7.129:54
7.129:108
7.129:188
7.129:260
7.130:324
7.130:363
7.132:390
7.149:390
7.149:408
7.149:435
7.149:499
7.149:535
7.150:516
7.150:487
7.150:448
7.150:396
7.152:357
7.152:335
7.153:314
7.153:294
7.153:229
7.153:195
7.153:225
7.153:299
7.153:369
7.157:403
7.157:423
7.157:438
7.157:451
7.158:465
7.158:525
7.158:542
7.158:516
7.158:468
7.159:405
7.161:364
7.162:326
7.178:307
7.178:311
7.178:307
7.178:243
7.179:212
7.181:234
7.181:283
7.182:325
7.182:366
7.182:397
7.182:422
7.182:442
7.183:481
7.183:549
7.183:562
7.186:518
7.186:457
7.186:410
7.186:381
7.187:366
7.187:351
7.187:345
7.187:317
7.187:256
7.188:249
7.189:275
7.190:310
7.190:356
7.190:413
7.190:459
7.206:459
7.206:483
7.206:491
7.206:510
7.207:565
7.210:570
7.210:534
7.211:480
7.211:435
7.211:394
7.211:385
7.211:375
7.211:363
7.211:338
7.214:288
7.214:276
7.214:296
7.214:333
7.215:383
7.215:442
7.215:481
7.215:502
7.215:517
7.215:527
7.218:564
7.218:555
7.218:513
7.218:479
7.218:463
7.219:445
7.234:431
7.239:409
7.239:395
7.239:367
7.239:314
7.240:310
7.240:343
7.240:391
7.240:434
7.240:483
7.241:512
7.242:529
7.243:542
7.243:560
7.243:606
7.244:601
7.244:573
7.244:533
7.244:500
7.246:458
7.247:435
7.247:413
7.247:404
7.247:384
7.248:340
7.248:339
7.248:373
7.248:411
7.248:443
7.249:468
7.267:468
7.267:480
7.267:494
7.267:522
7.268:568
7.268:633
7.268:624
7.268:595
7.268:559
7.269:523
7.272:476
7.272:433
7.272:407
7.272:407
7.273:402
7.273:373
7.273:364
7.273:371
7.274:411
7.274:460
7.275:510
7.276:540
7.276:554
7.276:566
7.276:603
7.277:654
7.277:651
7.277:623
7.278:576
7.279:529
7.295:487
7.295:475
7.296:459
7.296:447
7.296:409
7.296:364
7.296:348
7.300:374
7.300:438
7.300:488
7.301:528
7.301:571
7.301:609
7.301:630
7.301:654
7.301:696
7.304:664
7.304:610
7.304:568
7.304:529
7.305:498
7.305:479
7.305:467
7.305:466
7.305:440
7.306:396
7.308:402
7.308:435
7.308:477
7.308:538
7.324:538
7.324:566
7.324:582
7.324:595
7.325:606
7.325:652
7.328:715
7.329:697
7.329:629
7.329:558
7.329:518
7.329:488
7.330:476
7.330:454
7.330:479
7.333:461
7.333:411
7.333:412
7.333:424
7.334:449
7.334:514
7.334:542
7.334:558
7.334:601
7.335:628
7.337:670
7.337:703
7.337:671
7.337:643
7.338:590
7.352:524
7.352:504
7.354:470
7.357:447
7.357:450
7.357:429
7.358:379
7.358:362
7.358:387
7.358:449
7.358:510
7.359:580
7.362:588
7.362:554
7.363:560
7.363:617
7.363:673
7.363:659
7.363:617
7.363:538
7.364:475
7.364:461
7.366:478
7.366:457
7.366:438
7.366:369
7.367:303
7.367:272
7.367:310
7.367:401
7.381:401
7.381:460
7.386:507
7.386:506
7.386:519
7.387:530
7.387:566
7.387:597
7.387:594
7.387:543
7.387:491
7.390:450
7.390:428
7.391:395
7.391:365
7.391:355
7.391:310
7.391:284
7.392:289
7.392:335
7.392:377
7.393:426
7.393:457
7.393:477
7.393:497
7.395:513
7.395:560
7.395:581
7.395:559
7.395:516
7.414:457
7.414:403
7.414:367
7.414:348
7.416:341
7.416:329
7.416:272
7.416:250
7.419:275
7.419:314
7.419:347
7.419:382
7.420:420
7.420:446
7.420:466
7.420:482
7.420:542
7.421:565
7.423:538
7.423:492
7.423:441
7.423:393
7.423:361
7.424:341
7.424:338
7.424:340
7.424:292
7.427:267
7.428:284
7.428:319
7.443:319
7.443:366
7.443:415
7.443:444
7.444:459
7.444:475
7.444:493
7.448:552
7.448:571
7.448:543
7.448:500
7.449:454
7.449:409
7.449:392
7.449:377
7.449:372
7.449:360
7.452:306
7.452:280
7.452:292
7.452:321
7.452:356
7.453:403
7.453:437
7.453:470
7.453:495
7.456:521
7.456:571
7.456:573
7.456:558
7.471:538
7.471:500
7.472:456
7.472:424
7.476:401
7.476:384
7.478:365
7.478:319
7.478:307
7.478:328
7.479:366
7.479:412
7.479:464
7.479:509
7.480:540
7.480:547
7.481:564
7.481:613
7.481:605
7.481:557
7.481:495
7.481:437
7.481:382
7.483:348
7.484:322
7.484:299
7.484:284
7.484:255
7.484:268
7.485:320
7.501:320
7.501:376
7.501:431
7.505:484
7.505:515
7.505:535
7.505:552
7.506:573
7.506:633
7.506:628
7.506:593
7.506:555
7.507:507
7.509:463
7.509:433
7.509:426
7.510:420
7.510:397
7.510:351
7.511:351
7.511:379
7.511:433
7.512:493
7.512:549
7.513:574
7.513:586
7.513:593
7.513:602
7.513:645
7.513:640
7.533:615
7.533:577
7.533:532
7.533:462
7.533:416
7.534:390
7.534:381
7.534:355
7.534:321
7.538:338
7.538:392
7.538:456
7.538:495
7.539:535
7.539:563
7.539:595
7.539:604
7.539:605
7.540:624
7.542:607
7.542:561
7.542:520
7.542:510
7.542:501
7.543:479
7.543:448
7.544:428
7.544:390
7.544:352
7.545:384
7.561:384
7.562:432
7.562:463
7.562:482
7.562:512
7.562:524
7.564:514
7.564:502
7.564:520
7.566:582
7.567:595
7.567:567
7.567:523
7.567:480
7.567:439
7.567:406
7.568:377
7.568:368
7.570:337
7.570:302
7.570:310
7.570:346
7.571:398
7.571:443
7.571:482
7.571:509
7.571:528
7.572:541
7.574:581
7.574:627
7.590:616
7.590:580
7.590:533
7.591:490
7.591:450
7.594:426
7.595:412
7.595:406
7.596:366
7.596:325
7.596:334
7.596:365
7.596:403
7.597:443
7.597:484
7.599:512
7.599:534
7.599:546
7.599:583
7.600:622
7.600:604
7.600:564
7.600:516
7.600:475
7.603:437
7.603:414
7.603:407
7.604:407
7.604:359
7.604:321
7.619:321
7.619:334
7.620:361
7.620:408
7.623:460
7.623:504
7.623:526
7.623:539
7.624:550
7.624:595
7.624:638
7.624:623
7.624:585
7.625:542
7.627:486
7.627:433
7.628:403
7.628:389
7.628:387
7.628:343
7.628:313
7.628:327
7.628:360
7.628:407
7.631:456
7.631:498
7.631:523
7.631:535
7.632:544
7.632:593
7.648:629
7.652:609
7.652:569
7.652:518
7.652:469
7.652:439
7.653:423
7.653:412
7.653:405
7.653:348
7.653:314
7.656:326
7.656:353
7.656:392
7.656:436
7.657:476
7.657:507
7.657:524
7.657:532
7.657:606
7.660:643
7.661:622
7.661:587
7.661:535
7.662:479
7.662:438
7.662:414
7.662:414
7.662:424
7.663:377
7.681:377
7.681:347
7.681:354
7.681:384
7.681:417
7.682:458
7.682:505
7.682:527
7.682:547
7.682:569
7.685:637
7.685:660
7.685:631
7.685:589
7.686:540
7.686:489
7.686:458
7.686:424
7.686:413
7.689:409
7.689:345
7.689:329
7.689:350
7.689:397
7.690:445
7.690:490
7.690:530
7.690:562
7.690:561
7.693:544
7.709:588
7.709:604
7.711:585
7.711:560
7.711:514
7.711:484
7.711:455
7.713:411
7.713:384
7.713:366
7.713:331
7.713:308
7.713:339
7.713:390
7.713:427
7.713:476
7.718:523
7.718:547
7.718:575
7.718:604
7.719:676
7.719:697
7.719:654
7.719:606
7.719:538
7.720:467
7.722:421
7.722:385
7.722:380
7.722:365
7.738:365
7.738:299
7.738:282
7.738:318
7.738:368
7.739:410
7.742:452
7.742:500
7.742:527
7.742:537
7.742:559
7.743:612
7.743:614
7.743:583
7.743:558
7.747:512
7.747:473
7.747:440
7.747:415
7.747:419
7.747:414
7.748:354
7.748:347
7.748:372
7.748:406
7.750:453
7.750:507
7.750:543
7.750:565
7.751:566
7.767:586
7.767:643
7.767:644
7.771:611
7.771:562
7.771:510
7.771:461
7.771:423
7.771:400
7.771:387
7.772:357
7.772:313
7.775:317
7.775:347
7.775:391
7.775:437
7.776:495
7.776:530
7.776:552
7.776:561
7.776:576
7.778:626
7.779:635
7.779:627
7.779:599
7.779:555
7.780:503
7.780:478
7.780:455
7.780:454
7.795:454
7.795:438
7.800:387
7.800:383
7.800:405
7.800:443
7.801:480
7.801:523
7.801:555
7.801:583
7.801:599
7.803:627
7.803:687
7.804:701
7.804:682
7.804:640
7.804:599
7.804:557
7.804:528
7.805:516
7.805:510
7.808:477
7.808:414
7.808:405
7.808:423
7.809:457
7.809:491
7.809:534
7.809:558
7.809:562
7.828:562
7.828:589
7.829:630
7.829:614
7.829:571
7.829:523
7.829:483
7.829:433
7.832:399
7.832:376
7.832:369
7.833:343
7.833:297
7.833:305
7.833:356
7.833:408
7.834:456
7.834:508
7.836:546
7.836:567
7.836:564
7.836:581
7.837:622
7.837:626
7.837:595
7.837:535
7.837:482
7.840:437
7.840:420
7.840:406
7.857:406
7.857:394
7.857:335
7.857:292
7.858:310
7.858:345
7.858:385
7.860:421
7.861:478
7.861:502
7.861:502
7.862:513
7.862:544
7.862:589
7.862:581
7.862:551
7.862:520
7.865:480
7.865:425
7.865:415
7.865:398
7.866:396
7.866:349
7.866:306
7.866:306
7.866:344
7.869:389
7.869:436
7.869:481
7.869:509
7.885:536
7.886:545
7.886:582
7.886:638
7.890:626
7.890:604
7.890:566
7.890:525
7.891:459
7.891:406
7.891:361
7.891:347
7.891:306
7.891:279
7.894:303
7.894:331
7.894:373
7.894:407
7.894:443
7.894:478
7.894:504
7.894:518
7.895:570
7.898:593
7.898:558
7.898:518
7.898:473
7.899:425
7.899:381
7.899:361
7.913:361
7.913:365
7.913:380
7.918:347
7.918:319
7.918:315
7.919:339
7.919:381
7.919:422
7.919:468
7.919:504
7.919:517
7.920:533
7.922:584
7.922:611
7.922:589
7.922:558
7.922:507
7.923:462
7.923:433
7.923:408
7.923:403
7.927:407
7.928:370
7.928:352
7.928:350
7.928:377
7.929:413
7.929:448
7.929:458
7.947:471
7.947:500
7.947:542
7.947:636
7.948:709
7.948:720
7.948:712
7.948:700
7.948:683
7.951:679
7.951:702
7.951:734
7.952:756
7.952:725
7.952:713
7.952:757
7.952:826
7.952:916
7.953:990
7.955:988
7.955:987
7.955:986
7.955:985
7.956:984
7.956:982
7.956:981
7.956:981
7.956:982
7.957:982
7.958:982
7.975:982
7.976:982
7.976:982
7.976:983
7.976:985
7.976:986
7.977:987
7.977:988
7.977:990
7.980:897
7.980:776
7.980:642
7.980:499
7.980:386
7.980:361
7.980:337
7.980:302
7.980:272
7.983:248
7.984:218
7.984:218
7.984:233
7.984:251
7.984:255
7.985:207
7.985:186
7.985:199
7.985:223
7.987:272
7.987:326
8.004:367
8.004:396
8.005:414
8.005:429
8.005:485
8.009:497
8.009:481
8.009:444
8.009:395
8.010:355
8.010:343
8.010:341
8.010:335
8.011:307
8.011:228
8.012:218
8.012:252
8.012:302
8.012:356
8.013:415
8.013:455
8.013:474
8.013:478
8.013:491
8.017:543
8.017:543
8.017:513
8.017:465
8.018:400
8.018:337
8.033:337
8.033:322
8.033:308
8.033:312
8.037:311
8.037:276
8.037:279
8.037:320
8.038:378
8.038:435
8.038:483
8.038:516
8.038:537
8.038:539
8.041:571
8.042:628
8.042:614
8.042:573
8.042:505
8.043:432
8.043:368
8.043:321
8.043:266
8.043:257
8.044:227
8.045:172
8.045:183
8.045:233
8.045:301
8.045:368
8.061:445
8.066:508
8.066:554
8.066:580
8.066:608
8.066:646
8.067:634
8.067:591
8.067:512
8.067:417
8.067:331
8.070:295
8.070:283
8.070:280
8.070:261
8.071:222
8.071:235
8.071:279
8.071:337
8.071:426
8.073:524
8.073:585
8.074:650
8.074:707
8.074:732
8.074:771
8.074:726
8.075:641
8.075:556
8.075:498
8.094:498
8.094:431
8.094:381
8.094:331
8.095:306
8.095:266
8.095:218
8.095:225
8.095:259
8.095:306
8.099:356
8.099:412
8.099:463
8.100:504
8.100:527
8.100:571
8.100:643
8.100:649
8.100:624
8.102:585
8.102:550
8.103:514
8.103:492
8.103:484
8.103:485
8.104:447
8.104:392
8.104:385
8.104:408
8.106:435
8.123:462
8.123:495
8.123:517
8.123:528
8.124:543
8.124:588
8.124:643
8.128:647
8.128:631
8.128:605
8.128:583
8.128:569
8.129:567
8.129:564
8.129:560
8.129:526
8.131:471
8.131:461
8.132:459
8.132:473
8.132:495
8.132:541
8.132:571
8.133:601
8.133:633
8.133:691
8.135:735
8.135:702
8.135:635
8.136:554
8.151:554
8.151:485
8.151:460
8.151:449
8.153:447
8.153:453
8.156:420
8.156:402
8.156:423
8.157:449
8.157:499
8.157:566
8.157:630
8.157:670
8.157:700
8.160:725
8.161:783
8.161:826
8.161:791
8.161:739
8.162:679
8.162:624
8.162:572
8.162:530
8.162:485
8.163:437
8.163:344
8.164:251
8.164:219
8.164:232
8.179:285
8.180:371
8.180:427
8.184:452
8.184:484
8.184:517
8.185:554
8.185:600
8.185:612
8.185:587
8.185:563
8.186:569
8.189:598
8.189:608
8.189:588
8.189:584
8.189:521
8.189:483
8.190:504
8.190:539
8.190:561
8.190:591
8.193:617
8.193:641
8.194:660
8.194:659
8.194:707
8.194:739
8.194:715
8.195:673
8.208:673
8.208:636
8.212:593
8.213:580
8.213:575
8.213:579
8.213:605
8.213:564
8.213:528
8.215:546
8.215:584
8.217:626
8.217:656
8.217:666
8.217:645
8.218:599
8.218:571
8.218:606
8.218:620
8.218:594
8.219:545
8.221:478
8.221:405
8.222:355
8.222:324
8.222:321
8.222:328
8.222:282
8.223:257
8.223:277
8.241:317
8.241:364
8.241:410
8.243:449
8.243:469
8.243:482
8.244:494
8.244:549
8.246:572
8.247:556
8.247:525
8.247:493
8.247:457
8.247:431
8.247:412
8.247:404
8.248:396
8.248:344
8.250:334
8.250:369
8.250:428
8.250:520
8.250:577
8.251:585
8.251:561
8.251:528
8.251:504
8.253:548
8.253:567
8.254:557
8.270:557
8.271:527
8.271:485
8.271:444
8.271:405
8.271:396
8.271:383
8.274:358
8.274:290
8.274:264
8.275:268
8.275:276
8.275:284
8.275:299
8.275:312
8.275:327
8.277:334
8.278:367
8.279:452
8.279:476
8.279:458
8.279:439
8.279:419
8.279:392
8.280:371
8.280:345
8.283:336
8.283:330
8.283:285
8.284:264
8.299:294
8.299:331
8.299:370
8.300:421
8.303:461
8.303:485
8.303:492
8.304:505
8.304:562
8.304:578
8.304:544
8.304:492
8.305:449
8.307:408
8.307:381
8.307:363
8.307:350
8.308:339
8.308:295
8.308:287
8.308:300
8.308:340
8.309:389
8.311:444
8.311:474
8.311:490
8.311:504
8.312:534
8.312:588
8.312:590
8.327:590
8.328:575
8.328:552
8.332:519
8.333:477
8.333:445
8.333:439
8.333:425
8.334:396
8.334:347
8.334:322
8.334:329
8.334:359
8.336:388
8.336:440
8.336:486
8.337:525
8.337:560
8.337:595
8.337:659
8.337:658
8.338:610
8.340:543
8.340:482
8.340:440
8.340:416
8.341:390
8.341:367
8.341:325
8.341:269
8.361:265
8.361:288
8.361:343
8.361:401
8.361:459
8.361:499
8.362:523
8.362:536
8.362:563
8.365:616
8.365:611
8.365:575
8.365:529
8.365:484
8.366:437
8.366:414
8.366:403
8.366:409
8.366:385
8.369:335
8.369:327
8.369:354
8.369:396
8.370:440
8.370:488
8.370:519
8.370:541
8.370:554
8.373:582
8.373:632
8.389:632
8.389:629
8.389:600
8.389:552
8.390:509
8.390:467
8.390:438
8.391:418
8.391:408
8.393:371
8.393:331
8.393:339
8.393:375
8.393:427
8.395:481
8.395:532
8.395:563
8.395:574
8.397:569
8.397:601
8.397:653
8.397:653
8.398:623
8.398:580
8.398:531
8.399:490
8.399:461
8.399:444
8.400:446
8.401:420
8.417:392
8.417:400
8.417:426
8.418:457
8.418:478
8.422:500
8.422:521
8.422:536
8.422:554
8.423:594
8.423:632
8.423:620
8.423:581
8.424:524
8.424:474
8.427:429
8.427:400
8.427:391
8.427:397
8.428:363
8.428:328
8.428:337
8.428:362
8.428:401
8.430:445
8.430:489
8.430:526
8.430:551
8.431:570
8.431:613
8.446:613
8.446:656
8.446:646
8.446:610
8.451:555
8.451:497
8.451:446
8.451:414
8.451:397
8.451:390
8.452:352
8.452:321
8.452:331
8.452:370
8.455:418
8.455:465
8.455:504
8.455:527
8.456:545
8.456:556
8.456:606
8.456:637
8.456:614
8.459:574
8.459:524
8.460:478
8.460:443
8.460:424
8.460:409
8.461:398
8.475:348
8.479:317
8.479:326
8.479:359
8.479:406
8.480:457
8.480:493
8.480:515
8.480:525
8.480:530
8.481:574
8.483:598
8.483:582
8.483:555
8.484:523
8.484:486
8.484:456
8.484:447
8.484:445
8.485:436
8.488:386
8.488:361
8.488:388
8.488:436
8.489:491
8.489:546
8.489:578
8.489:582
8.489:563
8.489:539
8.508:539
8.508:573
8.508:593
8.509:573
8.509:548
8.509:516
8.509:481
8.510:467
8.510:444
8.510:437
8.512:447
8.512:415
8.512:399
8.512:427
8.513:461
8.513:490
8.513:499
8.513:483
8.513:455
8.516:460
8.516:475
8.516:530
8.516:543
8.517:500
8.517:421
8.517:337
8.517:286
8.517:252
8.518:220
8.520:184
8.537:146
8.537:105
8.537:161
8.537:278
8.537:388
8.538:475
8.538:562
8.541:630
8.541:666
8.541:673
8.541:654
8.541:655
8.541:626
8.541:568
8.542:523
8.542:484
8.545:453
8.545:471
8.545:464
8.545:431
8.546:379
8.546:305
8.546:292
8.546:334
8.546:389
8.547:445
8.549:511
8.549:551
8.549:561
8.549:569
8.565:569
8.565:574
8.565:631
8.565:639
8.565:606
8.566:564
8.569:513
8.569:455
8.569:418
8.570:411
8.570:412
8.570:404
8.570:347
8.570:318
8.571:325
8.573:360
8.573:420
8.573:503
8.573:574
8.574:611
8.574:621
8.574:634
8.574:698
8.574:723
8.574:702
8.578:676
8.578:646
8.578:584
8.579:527
8.579:466
8.594:426
8.594:380
8.594:279
8.598:224
8.598:241
8.598:332
8.598:442
8.599:535
8.599:592
8.599:614
8.599:591
8.599:546
8.603:536
8.603:484
8.603:406
8.603:348
8.604:319
8.604:290
8.604:294
8.604:327
8.604:367
8.605:393
8.606:371
8.606:415
8.607:481
8.607:516
8.607:531
8.607:531
8.607:531
8.608:530
8.622:530
8.622:524
8.627:501
8.627:521
8.627:490
8.627:446
8.627:424
8.627:404
8.628:371
8.628:337
8.628:325
8.631:334
8.631:322
8.631:291
8.632:318
8.632:390
8.632:459
8.632:501
8.632:518
8.633:521
8.633:519
8.635:488
8.635:459
8.635:462
8.635:452
8.636:423
8.636:384
8.636:383
8.636:376
8.636:399
8.655:442
8.655:511
8.655:524
8.655:519
8.655:526
8.656:483
8.656:457
8.656:423
8.659:405
8.661:420
8.661:431
8.661:434
8.661:452
8.661:495
8.662:517
8.662:517
8.662:489
8.662:470
8.663:433
8.663:373
8.663:313
8.664:262
8.664:175
8.664:77
8.664:42
8.664:64
8.664:95
8.665:99
8.667:83
8.667:72
8.684:72
8.684:70
8.684:87
8.684:137
8.684:211
8.684:248
8.685:249
8.685:220
8.688:207
8.688:202
8.688:208
8.688:218
8.689:242
8.689:222
8.689:191
8.689:195
8.689:196
8.693:192
8.693:220
8.693:293
8.693:359
8.694:398
8.694:411
8.694:465
8.694:532
8.695:554
8.695:549
8.696:531
8.696:499
8.696:462
8.712:433
8.712:410
8.712:406
8.712:344
8.717:294
8.717:306
8.717:320
8.718:340
8.718:358
8.718:376
8.718:387
8.718:412
8.718:441
8.721:497
8.721:537
8.721:524
8.721:473
8.722:412
8.722:346
8.722:310
8.722:317
8.722:359
8.723:409
8.725:408
8.725:436
8.725:533
8.726:647
8.726:731
8.726:801
8.726:860
8.741:860
8.741:911
8.741:935
8.746:946
8.746:990
8.746:988
8.746:988
8.747:987
8.747:987
8.747:987
8.747:986
8.747:986
8.748:986
8.750:985
8.750:985
8.750:985
8.750:985
8.750:985
8.750:984
8.751:983
8.751:983
8.751:983
8.753:983
8.753:985
8.753:986
8.754:987
8.754:985
8.754:754
8.754:548
8.755:395
8.774:297
8.774:192
8.774:97
8.774:36
8.774:16
8.774:17
8.775:102
8.775:198
8.775:286
8.775:345
8.778:380
8.778:393
8.778:393
8.778:408
8.779:484
8.779:542
8.779:554
8.779:538
8.779:505
8.780:491
8.782:496
8.782:497
8.783:467
8.783:435
8.783:365
8.783:313
8.783:300
8.784:309
8.784:334
8.786:381
8.802:381
8.802:428
8.802:469
8.802:476
8.804:449
8.804:482
8.804:479
8.804:449
8.807:402
8.807:357
8.807:313
8.807:308
8.808:310
8.808:319
8.808:348
8.808:330
8.808:324
8.809:360
8.811:384
8.811:408
8.811:435
8.811:464
8.812:462
8.812:462
8.812:467
8.812:500
8.812:488
8.813:437
8.814:377
8.815:310
8.831:235
8.831:182
8.831:182
8.831:200
8.831:204
8.836:171
8.836:197
8.836:241
8.836:299
8.837:353
8.837:416
8.837:467
8.837:480
8.837:511
8.838:532
8.840:581
8.840:599
8.840:579
8.840:524
8.841:492
8.841:478
8.841:470
8.841:457
8.841:427
8.843:386
8.843:317
8.844:307
8.844:339
8.844:359
8.844:388
8.859:388
8.859:415
8.860:435
8.860:484
8.863:531
8.863:552
8.865:615
8.865:618
8.865:562
8.865:476
8.866:420
8.866:374
8.866:346
8.866:337
8.868:351
8.869:345
8.869:302
8.869:292
8.869:321
8.869:367
8.870:413
8.870:439
8.870:457
8.872:463
8.872:461
8.872:487
8.872:560
8.873:588
8.873:578
8.873:545
8.888:490
8.892:440
8.892:432
8.894:438
8.894:452
8.894:429
8.894:387
8.895:379
8.895:392
8.895:412
8.895:421
8.897:450
8.897:480
8.897:484
8.898:470
8.898:506
8.898:592
8.898:635
8.898:642
8.899:602
8.901:534
8.901:473
8.901:427
8.902:388
8.902:382
8.902:379
8.902:358
8.902:395
8.903:451
8.903:521
8.922:521
8.922:594
8.922:661
8.922:701
8.922:717
8.922:701
8.923:671
8.923:663
8.923:618
8.923:531
8.926:445
8.927:410
8.927:397
8.927:413
8.927:447
8.927:463
8.927:426
8.928:358
8.928:336
8.930:340
8.930:387
8.931:460
8.931:521
8.931:545
8.931:554
8.931:539
8.932:549
8.932:594
8.932:585
8.933:543
8.950:483
8.950:458
8.950:479
8.950:507
8.950:529
8.951:528
8.951:482
8.954:424
8.954:422
8.955:450
8.955:496
8.955:531
8.955:571
8.955:589
8.956:611
8.956:640
8.959:698
8.959:772
8.960:759
8.960:710
8.960:654
8.960:602
8.960:559
8.961:532
8.961:529
8.961:515
8.961:446
8.961:375
8.963:358
8.963:382
8.978:382
8.978:439
8.979:503
8.979:564
8.979:566
8.979:547
8.983:545
8.983:554
8.983:571
8.984:541
8.984:538
8.984:551
8.984:537
8.984:508
8.985:482
8.987:461
8.987:442
8.987:407
8.987:395
8.987:436
8.987:497
8.988:549
8.988:578
8.988:619
8.988:606
8.991:581
8.991:555
8.991:546
8.991:534
8.991:524
9.007:501
9.008:467
9.012:476
9.012:472
9.012:470
9.012:457
9.012:439
9.013:401
9.013:398
9.013:416
9.013:425
9.013:423
9.016:403
9.016:423
9.016:442
9.016:461
9.017:488
9.017:519
9.017:554
9.017:558
9.018:536
9.018:490
9.020:446
9.020:402
9.020:380
9.020:378
9.020:413
9.020:407
9.021:371
9.021:354
9.035:354
9.036:357
9.040:367
9.040:339
9.040:347
9.040:376
9.040:430
9.041:468
9.041:494
9.041:484
9.041:444
9.044:402
9.044:380
9.044:383
9.044:365
9.045:324
9.045:295
9.045:319
9.045:363
9.045:374
9.045:396
9.049:422
9.049:448
9.049:447
9.049:456
9.049:446
9.049:474
9.049:493
9.049:496
9.049:472
9.069:438
9.069:425
9.069:426
9.070:436
9.070:439
9.070:433
9.070:435
9.070:447
9.073:411
9.073:333
9.073:316
9.073:334
9.074:370
9.074:383
9.074:400
9.074:409
9.074:414
9.077:428
9.077:481
9.077:510
9.077:501
9.078:473
9.078:464
9.078:475
9.078:466
9.078:443
9.079:411
9.081:380
9.081:314
9.081:249
9.097:249
9.098:256
9.098:286
9.098:315
9.098:342
9.098:384
9.099:430
9.102:455
9.102:467
9.102:503
9.102:546
9.102:550
9.103:550
9.103:524
9.103:484
9.103:438
9.103:395
9.105:392
9.106:404
9.106:380
9.106:354
9.106:359
9.106:388
9.107:432
9.107:427
9.107:413
9.109:408
9.109:418
9.109:415
9.110:431
9.125:409
9.126:373
9.126:377
9.126:384
9.130:385
9.130:387
9.130:389
9.130:394
9.132:403
9.132:384
9.132:363
9.132:362
9.132:368
9.134:387
9.134:403
9.134:424
9.134:433
9.135:435
9.135:431
9.135:479
9.135:521
9.135:522
9.135:505
9.139:469
9.139:425
9.139:385
9.139:336
9.140:328
9.140:371
9.140:382
9.155:382
9.155:398
9.155:451
9.158:496
9.160:524
9.160:545
9.160:555
9.160:566
9.160:588
9.161:592
9.161:613
9.161:596
9.161:559
9.163:515
9.163:479
9.163:449
9.163:453
9.163:469
9.164:491
9.164:487
9.164:444
9.164:430
9.167:435
9.167:446
9.167:457
9.167:473
9.168:487
9.168:515
9.168:552
9.168:562
9.188:578
9.188:549
9.188:505
9.188:476
9.188:472
9.188:457
9.189:463
9.189:464
9.189:466
9.192:483
9.192:480
9.192:444
9.193:423
9.193:437
9.193:451
9.193:478
9.193:494
9.194:506
9.194:510
9.196:514
9.196:553
9.196:555
9.197:531
9.197:506
9.197:501
9.197:463
9.197:444
9.198:434
9.200:445
9.200:454
9.216:454
9.216:430
9.217:421
9.217:444
9.217:473
9.217:482
9.217:513
9.218:530
9.220:548
9.221:563
9.221:585
9.221:642
9.221:639
9.221:632
9.221:601
9.221:566
9.222:524
9.222:517
9.224:521
9.224:535
9.224:538
9.226:484
9.226:452
9.226:468
9.227:470
9.227:454
9.227:460
9.227:452
9.228:476
9.228:517
9.245:539
9.245:577
9.245:580
9.245:576
9.245:564
9.249:549
9.249:516
9.249:512
9.249:521
9.250:546
9.250:553
9.250:527
9.250:519
9.250:516
9.251:526
9.253:525
9.253:550
9.253:534
9.253:539
9.253:561
9.254:579
9.254:601
9.254:589
9.254:570
9.257:535
9.257:498
9.257:452
9.257:441
9.258:444
9.258:469
9.273:469
9.273:467
9.274:446
9.274:450
9.278:464
9.278:490
9.278:495
9.278:524
9.279:540
9.279:552
9.279:555
9.279:570
9.279:606
9.280:615
9.282:607
9.282:598
9.282:582
9.282:534
9.283:513
9.283:511
9.283:529
9.283:502
9.283:454
9.286:446
9.286:447
9.286:468
9.286:484
9.287:505
9.287:511
9.287:525
9.301:537
9.307:567
9.307:592
9.307:583
9.307:572
9.308:556
9.308:554
9.308:580
9.308:619
9.309:642
9.309:669
9.310:611
9.311:521
9.311:452
9.311:412
9.311:435
9.311:493
9.311:596
9.311:652
9.311:578
9.315:520
9.315:551
9.315:589
9.316:601
9.316:584
9.316:556
9.316:546
9.316:523
9.317:500
9.317:466
9.335:466
9.335:457
9.335:426
9.335:381
9.336:400
9.336:449
9.336:501
9.336:530
9.336:565
9.337:593
9.339:617
9.339:634
9.339:679
9.339:703
9.340:700
9.340:690
9.340:652
9.340:620
9.340:577
9.343:502
9.343:442
9.343:455
9.343:444
9.343:411
9.344:382
9.344:387
9.344:402
9.344:441
9.344:472
9.347:510
9.364:549
9.364:520
9.364:550
9.364:586
9.364:582
9.365:556
9.365:524
9.368:497
9.368:473
9.368:447
9.368:434
9.368:433
9.369:383
9.369:355
9.369:382
9.369:423
9.372:468
9.372:503
9.372:521
9.372:531
9.372:554
9.373:568
9.373:621
9.373:652
9.373:649
9.373:609
9.375:561
9.375:518
9.376:486
9.376:465
9.391:465
9.392:453
9.392:447
9.392:411
9.392:383
9.392:378
9.396:393
9.396:427
9.397:460
9.397:478
9.397:494
9.397:506
9.397:534
9.398:582
9.398:590
9.401:550
9.401:503
9.401:467
9.401:467
9.401:485
9.401:449
9.402:411
9.402:397
9.402:360
9.402:360
9.404:394
9.404:436
9.404:470
9.404:494
9.405:501
9.421:499
9.421:502
9.425:519
9.426:590
9.426:607
9.426:567
9.427:525
9.427:489
9.427:468
9.427:466
9.427:460
9.427:455
9.429:464
9.429:441
9.429:420
9.429:432
9.430:477
9.430:509
9.430:505
9.430:498
9.430:500
9.431:511
9.433:550
9.433:604
9.434:575
9.434:526
9.434:504
9.434:478
9.434:453
9.435:436
9.449:436
9.449:436
9.454:458
9.454:482
9.454:476
9.454:466
9.454:467
9.454:452
9.454:466
9.454:486
9.454:490
9.458:475
9.458:483
9.458:512
9.459:580
9.459:613
9.459:587
9.459:539
9.459:519
9.460:484
9.460:476
9.461:470
9.461:469
9.462:478
9.462:447
9.462:454
9.463:514
9.463:634
9.463:681
9.463:647
9.482:660
9.482:741
9.482:825
9.482:895
9.482:989
9.483:989
9.483:990
9.483:990
9.486:982
9.486:968
9.487:969
9.487:981
9.487:990
9.487:985
9.487:949
9.488:953
9.488:965
9.491:944
9.491:905
9.491:872
9.492:839
9.492:812
9.492:791
9.492:759
9.493:757
9.493:718
9.493:635
9.495:609
9.495:486
9.495:338
9.511:338
9.511:276
9.511:220
9.511:192
9.512:221
9.512:247
9.513:280
9.515:297
9.515:318
9.515:339
9.515:383
9.515:407
9.516:419
9.516:435
9.516:461
9.517:524
9.517:544
9.519:511
9.519:473
9.520:464
9.520:481
9.520:486
9.520:472
9.520:481
9.520:480
9.520:458
9.522:419
9.524:411
9.524:441
9.524:447
