0.000:465
0.001:483
0.001:482
0.001:472
0.001:478
0.001:495
0.002:491
0.002:497
0.003:508
0.003:519
0.004:520
0.004:524
0.004:534
0.004:531
0.004:527
0.005:534
0.005:537
0.005:523
0.005:521
0.005:522
0.005:524
0.005:529
0.006:539
0.006:551
0.006:563
0.006:561
0.006:547
0.007:553
0.007:574
0.007:576
0.007:585
0.007:599
0.008:605
0.008:599
0.008:601
0.008:607
0.008:605
0.009:601
0.009:594
0.009:594
0.009:581
0.009:567
0.009:559
0.010:563
0.010:579
0.010:609
0.010:597
0.010:592
0.011:602
0.011:605
0.011:608
0.011:611
0.011:618
0.011:625
0.012:625
0.012:607
0.012:587
0.012:573
0.012:578
0.012:589
0.013:588
0.013:588
0.013:566
0.013:549
0.015:537
0.015:557
0.015:604
0.015:658
0.015:674
0.016:645
0.016:609
0.016:594
0.016:604
0.016:600
0.017:579
0.017:567
0.017:556
0.017:558
0.017:539
0.018:536
0.018:542
0.018:543
0.018:535
0.018:516
0.020:528
0.020:560
0.020:589
0.020:596
0.020:636
0.020:659
0.020:651
0.020:609
0.021:563
0.021:542
0.021:543
0.021:536
0.021:515
0.022:529
0.022:580
0.022:580
0.022:589
0.022:563
0.023:553
0.023:563
0.023:545
0.023:541
0.023:543
0.023:549
0.023:556
0.023:573
0.023:576
0.024:572
0.024:547
0.024:540
0.024:553
0.024:561
0.024:576
0.025:574
0.025:553
0.025:541
0.025:532
0.025:531
0.025:537
0.026:534
0.026:532
0.026:537
0.026:538
0.026:537
0.026:542
0.027:542
0.027:549
0.027:567
0.027:573
0.027:563
0.028:533
0.028:509
0.028:490
0.028:489
0.028:526
0.028:543
0.029:536
0.029:523
0.029:524
0.029:531
0.030:535
0.030:527
0.031:515
0.031:514
0.032:517
0.032:532
0.032:540
0.032:540
0.032:529
0.033:522
0.033:529
0.033:539
0.033:540
0.033:527
0.033:516
0.034:516
0.034:506
0.034:502
0.034:498
0.034:498
0.035:499
0.035:505
0.035:505
0.036:504
0.036:502
0.037:506
0.037:524
0.037:526
0.037:524
0.037:526
0.037:528
0.037:528
0.037:523
0.038:512
0.038:500
0.038:501
0.038:487
0.038:500
0.038:521
0.038:524
0.038:507
0.039:483
0.040:467
0.040:471
0.040:487
0.040:509
0.040:542
0.040:541
0.041:521
0.041:507
0.041:511
0.041:513
0.041:514
0.042:514
0.042:510
0.042:510
0.042:511
0.042:518
0.042:510
0.043:498
0.043:489
0.043:485
0.043:478
0.043:483
0.044:496
0.044:509
0.044:525
0.044:522
0.044:513
0.044:498
0.045:501
0.045:507
0.045:514
0.045:519
0.045:519
0.046:519
0.046:518
0.046:500
0.046:484
0.046:470
0.047:463
0.047:462
0.047:464
0.047:466
0.047:476
0.047:485
0.048:487
0.048:495
0.048:499
0.048:502
0.048:507
0.049:517
0.049:525
0.049:528
0.049:517
0.049:506
0.049:495
0.050:483
0.050:483
0.050:478
0.050:476
0.050:474
0.051:480
0.051:490
0.051:508
0.051:520
0.051:527
0.051:533
0.052:527
0.052:515
0.053:504
0.053:505
0.053:515
0.054:507
0.054:494
0.054:484
0.054:474
0.054:463
0.054:460
0.054:463
0.054:471
0.054:479
0.054:480
0.054:485
0.054:494
0.055:498
0.055:505
0.055:515
0.056:519
0.056:525
0.056:522
0.056:515
0.056:502
0.057:499
0.057:506
0.057:506
0.057:491
0.057:474
0.058:483
0.058:491
0.058:497
0.058:497
0.058:489
0.058:487
0.059:492
0.059:499
0.059:495
0.059:503
0.059:508
0.060:505
0.060:515
0.060:516
0.060:505
0.060:498
0.061:487
0.061:484
0.061:490
0.061:500
0.062:512
0.062:517
0.062:518
0.062:503
0.062:480
0.063:476
0.063:477
0.063:481
0.063:484
0.063:490
0.063:497
0.064:501
0.064:514
0.064:517
0.064:514
0.064:507
0.065:483
0.065:461
0.065:455
0.065:472
0.065:476
0.066:481
0.066:481
0.066:481
0.066:482
0.066:467
0.066:442
0.067:455
0.067:479
0.067:494
0.067:511
0.067:500
0.068:550
0.068:559
0.068:527
0.068:501
0.068:489
0.068:489
0.069:479
0.070:469
0.070:461
0.070:448
0.070:446
0.070:451
0.070:445
0.070:441
0.070:433
0.070:433
0.070:458
0.071:472
0.071:472
0.071:473
0.071:473
0.072:469
0.072:465
0.072:458
0.072:456
0.072:452
0.073:448
0.073:444
0.073:436
0.073:433
0.073:440
0.074:443
0.074:446
0.074:447
0.074:449
0.074:448
0.074:452
0.075:453
0.075:453
0.075:472
0.075:487
0.075:487
0.075:479
0.076:483
0.076:486
0.076:471
0.076:458
0.076:460
0.077:461
0.077:456
0.077:455
0.077:459
0.078:464
0.078:472
0.078:484
0.078:487
0.078:486
0.079:491
0.079:503
0.079:512
0.079:519
0.079:518
0.079:517
0.080:526
0.080:530
0.080:530
0.080:520
0.080:488
0.081:464
0.081:476
0.081:476
0.081:480
0.081:476
0.081:500
0.082:534
0.082:517
0.082:501
0.082:512
0.082:527
0.083:530
0.083:540
0.083:551
0.083:566
0.083:556
0.083:542
0.084:529
0.084:499
0.084:490
0.084:494
0.084:509
0.085:505
0.085:493
0.085:494
0.085:490
0.085:490
0.086:505
0.086:528
0.087:513
0.087:484
0.087:486
0.087:515
0.087:521
0.087:521
0.087:517
0.088:514
0.088:520
0.088:527
0.088:522
0.088:520
0.088:510
0.088:496
0.088:496
0.089:484
0.089:520
0.089:532
0.089:530
0.089:523
0.089:523
0.090:501
0.090:502
0.090:517
0.090:507
0.090:488
0.091:470
0.091:489
0.091:489
0.091:547
0.091:569
0.091:545
0.092:544
0.092:547
0.092:539
0.092:517
0.092:499
0.093:516
0.093:513
0.093:497
0.093:491
0.093:492
0.094:509
0.094:507
0.094:515
0.094:540
0.094:547
0.095:531
0.095:533
0.095:526
0.095:512
0.095:506
0.095:510
0.096:523
0.096:518
0.096:505
0.096:497
0.096:500
0.097:507
0.097:503
0.097:496
0.097:512
0.097:531
0.097:551
0.098:585
0.098:591
0.098:579
0.098:570
0.098:562
0.099:556
0.099:540
0.099:526
0.099:506
0.099:478
0.099:445
0.100:423
0.100:422
0.100:416
0.100:376
0.100:320
0.101:278
0.101:244
0.101:188
0.101:145
0.101:115
0.101:74
0.102:31
0.102:17
0.102:17
0.103:17
0.103:17
0.103:18
0.104:18
0.104:19
0.104:19
0.104:19
0.104:19
0.104:19
0.104:20
0.104:20
0.104:20
0.105:20
0.105:19
0.105:19
0.105:18
0.105:18
0.106:17
0.106:17
0.106:94
0.106:216
0.106:354
0.106:487
0.107:580
0.107:646
0.107:683
0.107:720
0.107:709
0.108:670
0.108:630
0.108:595
0.108:582
0.108:581
0.109:585
0.109:587
0.109:595
0.109:603
0.109:600
0.109:615
0.109:634
0.109:635
0.109:637
0.110:640
0.110:599
0.110:602
0.110:628
0.110:603
0.111:581
0.111:583
0.111:596
0.111:606
0.111:607
0.111:610
0.112:632
0.112:655
0.112:660
0.112:654
0.112:643
0.113:644
0.113:644
0.113:644
0.113:641
0.113:640
0.113:645
0.114:632
0.114:620
0.114:619
0.114:614
0.114:620
0.115:611
0.115:606
0.115:609
0.115:616
0.115:628
0.115:633
0.116:621
0.116:610
0.116:619
0.116:629
0.116:622
0.117:605
0.117:609
0.117:623
0.117:627
0.117:617
0.117:607
0.118:592
0.118:575
0.118:572
0.118:576
0.118:579
0.119:592
0.119:597
0.119:603
0.120:601
0.120:593
0.120:567
0.120:553
0.121:558
0.121:576
0.121:578
0.121:580
0.121:586
0.121:595
0.122:586
0.122:582
0.122:583
0.122:571
0.122:559
0.123:545
0.123:532
0.123:545
0.123:555
0.123:558
0.124:567
0.124:553
0.124:547
0.124:550
0.125:537
0.125:537
0.125:558
0.125:566
0.125:571
0.126:572
0.126:567
0.126:567
0.126:553
0.126:531
0.127:520
0.127:519
0.127:514
0.127:527
0.127:547
0.127:558
0.128:568
0.128:575
0.128:572
0.128:570
0.128:575
0.128:583
0.129:576
0.129:571
0.129:572
0.129:583
0.129:595
0.130:583
0.130:586
0.130:586
0.130:575
0.130:572
0.130:571
0.131:580
0.131:577
0.131:565
0.131:557
0.131:570
0.132:582
0.132:582
0.132:577
0.132:598
0.132:599
0.132:573
0.133:550
0.133:540
0.133:525
0.133:505
0.133:483
0.134:459
0.134:440
0.134:432
0.134:432
0.134:437
0.134:437
0.135:443
0.135:442
0.135:441
0.136:434
0.136:428
0.136:415
0.136:415
0.136:406
0.136:404
0.137:416
0.137:428
0.137:439
0.137:447
0.137:446
0.137:450
0.137:455
0.137:460
0.137:466
0.138:460
0.138:451
0.138:447
0.138:440
0.139:424
0.139:427
0.139:437
0.139:444
0.140:461
0.140:478
0.140:478
0.141:454
0.141:425
0.141:404
0.141:398
0.141:387
0.141:380
0.141:362
0.142:345
0.142:341
0.142:348
0.142:360
0.143:376
0.143:396
0.143:408
0.143:431
0.143:449
0.144:462
0.144:469
0.144:478
0.144:488
0.144:483
0.145:458
0.145:437
0.145:438
0.145:435
0.145:430
0.145:432
0.146:417
0.146:401
0.146:394
0.146:396
0.146:412
0.147:412
0.147:412
0.147:430
0.147:443
0.147:456
0.147:456
0.148:445
0.148:409
0.148:392
0.148:406
0.148:449
0.149:503
0.149:538
0.149:558
0.149:579
0.149:591
0.149:586
0.150:561
0.150:521
0.150:445
0.150:370
0.150:343
0.151:337
0.151:374
0.151:420
0.151:466
0.151:496
0.151:497
0.153:493
0.153:487
0.153:457
0.153:435
0.153:434
0.153:462
0.153:497
0.154:524
0.154:538
0.154:566
0.154:567
0.155:541
0.155:485
0.155:470
0.155:496
0.156:522
0.156:521
0.156:549
0.156:578
0.156:590
0.157:598
0.157:610
0.157:610
0.157:609
0.157:596
0.158:599
0.158:626
0.158:659
0.158:672
0.158:647
0.158:602
0.159:564
0.159:567
0.159:605
0.159:644
0.159:667
0.160:659
0.160:659
0.160:654
0.160:625
0.160:568
0.160:507
0.161:469
0.161:449
0.161:449
0.161:462
0.161:489
0.162:530
0.162:560
0.162:579
0.162:597
0.162:621
0.163:640
0.163:675
0.163:694
0.163:662
0.164:651
0.164:607
0.164:550
0.164:503
0.164:440
0.164:409
0.165:463
0.165:579
0.165:671
0.165:654
0.165:605
0.166:542
0.166:482
0.166:456
0.166:442
0.166:429
0.166:391
0.167:376
0.167:360
0.167:385
0.167:423
0.167:523
0.168:613
0.168:609
0.168:605
0.168:635
0.168:673
0.169:647
0.169:549
0.169:432
0.170:352
0.170:318
0.170:306
0.170:303
0.170:366
0.170:468
0.171:574
0.171:602
0.171:578
0.171:537
0.171:492
0.172:492
0.172:460
0.172:410
0.172:351
0.173:385
0.173:423
0.173:437
0.173:471
0.173:533
0.173:570
0.174:557
0.174:547
0.174:580
0.174:635
0.174:640
0.175:592
0.175:537
0.175:502
0.175:483
0.175:453
0.175:446
0.176:469
0.176:458
0.176:444
0.176:428
0.176:427
0.177:423
0.177:389
0.177:412
0.177:465
0.177:504
0.177:532
0.178:533
0.178:503
0.178:477
0.178:432
0.178:433
0.179:458
0.179:460
0.179:451
0.179:488
0.179:528
0.179:551
0.180:523
0.180:485
0.180:489
0.180:490
0.180:533
0.181:547
0.181:499
0.181:474
0.181:483
0.181:491
0.181:516
0.182:539
0.182:531
0.182:525
0.182:525
0.182:550
0.182:576
0.183:576
0.183:581
0.183:576
0.183:569
0.183:563
0.184:545
0.184:501
0.184:449
0.184:409
0.184:401
0.185:449
0.185:533
0.185:561
0.186:530
0.186:504
0.186:495
0.187:483
0.187:475
0.187:477
0.187:470
0.187:460
0.187:481
0.187:521
0.188:524
0.188:471
0.188:430
0.188:415
0.188:381
0.189:348
0.189:361
0.189:389
0.189:395
0.190:430
0.190:497
0.190:551
0.190:544
0.190:497
0.191:453
0.191:434
0.191:441
0.191:455
0.191:463
0.192:456
0.192:443
0.192:449
0.192:457
0.192:475
0.193:505
0.193:511
0.193:470
0.193:431
0.193:434
0.193:466
0.194:495
0.194:532
0.194:579
0.194:585
0.194:513
0.195:457
0.195:461
0.195:461
0.195:496
0.195:527
0.195:538
0.196:528
0.196:525
0.196:549
0.196:569
0.196:564
0.197:516
0.197:486
0.197:478
0.197:458
0.197:450
0.197:440
0.198:422
0.198:414
0.198:417
0.198:463
0.198:513
0.199:529
0.199:571
0.199:601
0.199:642
0.199:614
0.199:556
0.200:541
0.200:529
0.200:545
0.200:543
0.200:575
0.201:612
0.201:629
0.201:602
0.201:577
0.201:565
0.201:520
0.202:479
0.202:493
0.203:513
0.203:521
0.203:513
0.203:505
0.203:552
0.204:593
0.204:634
0.204:669
0.204:738
0.204:776
0.204:714
0.204:631
0.204:569
0.204:538
0.204:530
0.205:544
0.205:541
0.205:561
0.206:520
0.206:492
0.206:530
0.206:530
0.206:529
0.206:492
0.207:479
0.207:488
0.207:490
0.207:449
0.207:468
0.208:446
0.208:402
0.208:368
0.208:343
0.208:354
0.208:388
0.209:387
0.209:368
0.209:345
0.209:308
0.209:290
0.210:309
0.210:334
0.210:403
0.210:474
0.210:519
0.210:555
0.211:605
0.211:644
0.211:650
0.211:596
0.211:557
0.212:529
0.212:517
0.212:545
0.212:581
0.212:613
0.212:598
0.213:549
0.213:528
0.213:523
0.213:487
0.213:483
0.213:472
0.214:444
0.214:433
0.214:407
0.214:377
0.214:389
0.215:420
0.215:429
0.215:416
0.215:426
0.215:421
0.216:410
0.216:399
0.216:402
0.216:420
0.216:434
0.216:444
0.217:437
0.217:421
0.217:421
0.217:452
0.217:506
0.218:491
0.218:465
0.219:468
0.220:470
0.220:487
0.220:482
0.220:486
0.220:517
0.220:536
0.220:535
0.221:549
0.221:506
0.221:465
0.222:475
0.222:473
0.222:475
0.222:530
0.223:610
0.223:657
0.223:619
0.223:550
0.223:489
0.224:459
0.224:446
0.224:439
0.224:486
0.224:534
0.225:514
0.225:470
0.225:433
0.225:393
0.225:363
0.225:369
0.226:365
0.226:361
0.226:336
0.226:338
0.226:329
0.227:355
0.227:371
0.227:361
0.227:352
0.227:372
0.227:400
0.228:421
0.228:479
0.228:519
0.228:521
0.228:509
0.228:496
0.228:512
0.228:541
0.228:503
0.228:468
0.228:517
0.229:575
0.229:630
0.229:630
0.229:645
0.229:638
0.230:621
0.230:594
0.230:575
0.230:585
0.230:607
0.230:631
0.231:648
0.231:638
0.231:631
0.231:601
0.231:563
0.232:534
0.232:532
0.232:535
0.232:565
0.232:580
0.232:573
0.233:559
0.233:570
0.233:594
0.233:638
0.235:670
0.235:691
0.235:706
0.235:678
0.236:609
0.236:519
0.236:433
0.236:381
0.236:363
0.236:373
0.236:392
0.236:421
0.237:478
0.237:541
0.237:605
0.237:655
0.237:655
0.238:643
0.238:645
0.238:623
0.238:596
0.239:543
0.239:530
0.239:558
0.239:548
0.239:525
0.240:494
0.240:447
0.240:451
0.240:454
0.240:436
0.241:406
0.241:388
0.241:390
0.241:405
0.241:443
0.242:443
0.242:469
0.242:469
0.242:467
0.242:497
0.242:488
0.243:462
0.243:475
0.243:513
0.243:587
0.243:669
0.244:726
0.244:738
0.244:714
0.244:647
0.244:582
0.245:577
0.245:589
0.245:530
0.245:467
0.245:413
0.245:388
0.246:374
0.246:338
0.246:309
0.246:274
0.246:287
0.247:368
0.247:469
0.247:528
0.247:545
0.247:552
0.247:588
0.248:600
0.248:603
0.248:611
0.248:657
0.248:730
0.249:839
0.249:890
0.249:873
0.250:773
0.250:721
0.250:623
0.250:502
0.250:369
0.250:301
0.251:261
0.251:256
0.252:322
0.252:320
0.254:243
0.254:225
0.254:241
0.254:236
0.254:164
0.254:55
0.254:17
0.254:18
0.254:19
0.254:19
0.255:19
0.255:19
0.255:19
0.255:20
0.255:20
0.255:20
0.256:20
0.256:20
0.256:20
0.256:20
0.256:20
0.256:20
0.257:20
0.257:19
0.257:19
0.257:19
0.257:18
0.257:17
0.258:128
0.258:193
0.258:270
0.258:376
0.258:497
0.258:565
0.259:577
0.259:561
0.259:538
0.259:477
0.259:462
0.260:517
0.260:635
0.260:760
0.260:787
0.260:780
0.260:745
0.261:736
0.261:754
0.261:747
0.261:693
0.261:623
0.261:589
0.262:528
0.262:446
0.262:442
0.262:502
0.262:552
0.263:571
0.263:592
0.263:627
0.263:666
0.263:742
0.263:833
0.264:890
0.264:865
0.264:799
0.264:756
0.264:735
0.265:731
0.265:754
0.265:754
0.265:793
0.265:804
0.266:791
0.266:781
0.266:770
0.266:722
0.266:639
0.266:579
0.267:526
0.267:505
0.267:514
0.267:515
0.267:519
0.268:548
0.268:550
0.268:514
0.268:500
0.270:542
0.270:582
0.270:590
0.270:627
0.270:654
0.271:659
0.271:627
0.271:608
0.271:620
0.271:586
0.271:514
0.272:444
0.272:439
0.272:467
0.272:511
0.272:639
0.273:746
0.273:774
0.273:723
0.274:614
0.274:547
0.274:543
0.274:588
0.274:631
0.275:589
0.275:541
0.275:527
0.275:478
0.275:475
0.275:483
0.276:428
0.276:362
0.276:338
0.276:327
0.276:332
0.277:367
0.277:416
0.277:491
0.277:647
0.277:742
0.277:711
0.278:658
0.278:658
0.278:577
0.278:594
0.278:638
0.279:639
0.279:600
0.279:573
0.279:564
0.279:545
0.279:493
0.280:511
0.280:575
0.280:622
0.280:632
0.280:586
0.281:493
0.281:403
0.282:412
0.282:453
0.282:481
0.282:497
0.282:459
0.282:447
0.283:463
0.283:517
0.283:578
0.283:609
0.283:615
0.284:623
0.284:648
0.284:636
0.284:601
0.284:580
0.284:561
0.285:549
0.286:534
0.286:510
0.287:525
0.287:542
0.287:531
0.287:480
0.287:415
0.287:392
0.287:384
0.287:455
0.288:514
0.288:521
0.288:480
0.288:441
0.288:424
0.288:446
0.288:462
0.289:400
0.289:411
0.289:491
0.289:558
0.289:572
0.290:561
0.290:586
0.290:580
0.290:580
0.290:509
0.290:423
0.291:377
0.291:294
0.291:224
0.291:217
0.291:240
0.292:305
0.292:377
0.292:439
0.292:502
0.292:499
0.292:481
0.293:500
0.293:485
0.293:475
0.293:479
0.293:469
0.294:482
0.294:542
0.294:560
0.294:521
0.294:459
0.295:460
0.295:464
0.295:471
0.295:471
0.295:455
0.295:416
0.296:331
0.296:248
0.296:213
0.296:226
0.296:284
0.297:363
0.297:418
0.297:470
0.297:509
0.297:463
0.297:388
0.298:364
0.298:334
0.298:296
0.298:282
0.299:265
0.299:289
0.299:352
0.299:402
0.300:432
0.300:442
0.300:469
0.300:460
0.300:447
0.300:421
0.301:479
0.301:521
0.301:518
0.301:535
0.301:536
0.302:536
0.302:531
0.302:485
0.303:479
0.303:532
0.303:546
0.303:560
0.303:551
0.304:527
0.304:536
0.304:519
0.304:482
0.304:412
0.304:325
0.304:260
0.304:280
0.305:337
0.305:432
0.305:501
0.305:548
0.306:568
0.306:580
0.306:547
0.306:504
0.307:509
0.307:497
0.307:461
0.307:463
0.307:465
0.308:455
0.308:448
0.308:466
0.308:485
0.308:516
0.309:532
0.309:515
0.309:501
0.309:527
0.309:552
0.310:534
0.310:497
0.310:454
0.310:415
0.310:385
0.311:383
0.311:428
0.311:521
0.311:587
0.311:574
0.312:523
0.312:506
0.312:564
0.312:618
0.312:620
0.313:578
0.313:545
0.313:472
0.313:486
0.313:582
0.313:631
0.313:631
0.313:642
0.313:573
0.313:530
0.313:529
0.314:558
0.314:606
0.314:633
0.314:634
0.314:636
0.314:608
0.314:644
0.314:675
0.314:657
0.314:612
0.314:624
0.314:663
0.315:641
0.315:621
0.315:616
0.315:629
0.315:625
0.315:611
0.315:539
0.315:459
0.315:452
0.315:498
0.315:522
0.315:516
0.315:534
0.316:600
0.316:652
0.316:722
0.316:747
0.316:735
0.316:761
0.316:773
0.316:753
0.316:765
0.316:776
0.316:771
0.316:772
0.317:793
0.317:780
0.317:699
0.317:588
0.317:482
0.317:431
0.317:409
0.317:428
0.317:502
0.317:561
0.318:615
0.318:622
0.318:627
0.318:624
0.319:602
0.319:584
0.319:562
0.319:531
0.319:531
0.319:518
0.320:559
0.320:604
0.320:653
0.320:669
0.320:637
0.320:602
0.320:597
0.320:641
0.321:681
0.321:686
0.321:658
0.321:633
0.322:650
0.322:645
0.322:631
0.322:616
0.322:603
0.323:592
0.323:565
0.323:572
0.323:585
0.323:593
0.324:583
0.324:536
0.324:488
0.324:461
0.324:506
0.325:605
0.325:697
0.325:740
0.326:747
0.326:732
0.326:692
0.326:601
0.326:480
0.327:368
0.327:342
0.327:364
0.328:409
0.328:454
0.328:470
0.328:451
0.328:457
0.329:489
0.329:516
0.329:516
0.329:474
0.329:473
0.330:477
0.330:453
0.330:485
0.330:569
0.330:621
0.330:625
0.330:588
0.330:562
0.330:583
0.330:616
0.331:616
0.331:654
0.331:652
0.331:609
0.332:582
0.332:563
0.332:533
0.332:531
0.332:529
0.332:543
0.333:594
0.333:616
0.333:614
0.333:646
0.333:643
0.333:628
0.333:606
0.333:559
0.333:516
0.333:495
0.334:491
0.334:448
0.334:443
0.334:495
0.334:494
0.334:479
0.334:496
0.334:524
0.334:563
0.334:599
0.335:616
0.335:609
0.335:529
0.335:432
0.336:422
0.336:464
0.336:489
0.337:497
0.337:465
0.337:437
0.337:461
0.337:457
0.338:495
0.338:550
0.338:528
0.338:541
0.338:601
0.338:656
0.339:666
0.339:665
0.339:638
0.339:614
0.339:562
0.340:442
0.340:391
0.340:369
0.340:359
0.340:376
0.340:446
0.341:518
0.341:518
0.341:528
0.341:558
0.341:580
0.342:598
0.342:572
0.342:540
0.342:550
0.342:544
0.343:530
0.343:481
0.343:456
0.343:435
0.343:415
0.343:423
0.344:421
0.344:390
0.344:399
0.344:443
0.345:469
0.345:449
0.345:447
0.345:488
0.345:483
0.346:393
0.346:378
0.346:446
0.347:548
0.347:575
0.347:549
0.347:513
0.347:483
0.347:526
0.348:567
0.348:607
0.348:635
0.348:623
0.348:601
0.349:623
0.349:634
0.349:575
0.349:475
0.349:450
0.349:391
0.350:282
0.350:206
0.350:185
0.350:228
0.350:323
0.351:494
0.351:678
0.351:711
0.351:675
0.351:686
0.351:673
0.352:610
0.352:540
0.352:524
0.352:542
0.352:553
0.353:553
0.353:569
0.353:566
0.353:576
0.353:562
0.354:535
0.354:543
0.354:527
0.354:508
0.355:508
0.355:589
0.355:644
0.355:622
0.356:596
0.356:581
0.357:581
0.357:557
0.357:488
0.357:383
0.357:317
0.358:353
0.358:433
0.358:468
0.358:489
0.358:515
0.358:572
0.359:651
0.359:630
0.359:583
0.359:558
0.359:514
0.360:521
0.360:489
0.360:411
0.360:338
0.361:265
0.361:282
0.361:316
0.361:329
0.361:371
0.361:424
0.362:488
0.362:531
0.362:542
0.362:519
0.362:494
0.363:448
0.363:415
0.363:377
0.363:362
0.363:380
0.364:375
0.364:318
0.364:260
0.364:282
0.364:296
0.365:286
0.365:289
0.365:316
0.365:453
0.365:453
0.365:587
0.365:721
0.365:805
0.365:835
0.366:853
0.366:840
0.366:827
0.366:838
0.366:837
0.366:817
0.366:759
0.368:738
0.368:731
0.368:697
0.368:571
0.368:368
0.369:260
0.369:178
0.369:142
0.369:155
0.369:240
0.370:314
0.370:339
0.370:364
0.370:398
0.371:448
0.371:499
0.371:507
0.371:509
0.371:503
0.372:517
0.372:527
0.372:497
0.372:443
0.373:392
0.373:372
0.373:377
0.373:357
0.373:307
0.373:319
0.374:372
0.374:474
0.374:524
0.374:517
0.374:510
0.375:488
0.375:496
0.375:516
0.375:538
0.375:549
0.375:528
0.375:535
0.375:602
0.376:644
0.376:619
0.376:537
0.376:480
0.376:476
0.377:471
0.377:471
0.377:470
0.377:464
0.377:444
0.378:397
0.378:386
0.378:440
0.378:540
0.378:618
0.378:624
0.379:583
0.379:595
0.379:612
0.379:626
0.379:649
0.380:665
0.380:650
0.380:615
0.380:547
0.380:476
0.380:401
0.381:353
0.381:344
0.381:358
0.381:398
0.381:468
0.382:650
0.382:759
0.382:678
0.382:564
0.382:518
0.382:491
0.383:507
0.383:510
0.383:549
0.383:622
0.383:629
0.384:605
0.384:554
0.384:537
0.384:560
0.384:548
0.385:496
0.385:476
0.386:468
0.386:421
0.387:371
0.387:351
0.387:370
0.387:418
0.387:481
0.388:520
0.388:537
0.388:588
0.388:644
0.388:660
0.389:654
0.389:638
0.389:651
0.389:663
0.389:663
0.390:661
0.390:661
0.390:660
0.390:594
0.390:515
0.391:452
0.391:412
0.391:393
0.391:376
0.391:412
0.391:488
0.392:523
0.392:574
0.392:586
0.392:574
0.392:593
0.393:584
0.393:566
0.393:539
0.393:544
0.393:497
0.393:462
0.394:457
0.394:431
0.394:429
0.394:424
0.394:394
0.395:429
0.395:483
0.395:500
0.395:516
0.395:501
0.396:452
0.396:418
0.396:418
0.397:453
0.397:506
0.397:543
0.397:530
0.397:473
0.397:400
0.397:346
0.398:292
0.398:271
0.398:270
0.398:234
0.398:140
0.399:22
0.399:17
0.399:17
0.399:18
0.399:19
0.399:19
0.399:19
0.400:19
0.400:19
0.400:19
0.400:20
0.400:20
0.400:20
0.400:21
0.401:21
0.401:21
0.401:21
0.401:20
0.401:19
0.401:19
0.401:18
0.402:17
0.402:80
0.402:227
0.403:356
0.403:466
0.403:545
0.403:574
0.403:643
0.404:699
0.404:716
0.404:728
0.404:743
0.404:723
0.405:682
0.405:666
0.405:625
0.405:588
0.405:618
0.405:604
0.407:594
0.407:593
0.407:595
0.407:634
0.407:688
0.407:713
0.408:679
0.408:592
0.408:526
0.408:481
0.408:466
0.408:497
0.408:589
0.408:659
0.408:638
0.408:609
0.409:608
0.409:657
0.409:649
0.409:588
0.409:496
0.409:463
0.410:532
0.410:627
0.410:695
0.410:700
0.410:714
0.411:722
0.411:708
0.411:683
0.411:670
0.411:696
0.411:696
0.412:696
0.412:642
0.412:588
0.412:575
0.412:585
0.413:589
0.413:606
0.413:644
0.413:729
0.413:798
0.414:789
0.414:731
0.414:685
0.414:653
0.414:586
0.414:561
0.415:606
0.415:667
0.415:713
0.415:708
0.415:653
0.415:590
0.416:550
0.416:514
0.416:429
0.417:339
0.417:345
0.417:469
0.417:641
0.417:720
0.418:681
0.418:595
0.418:544
0.418:572
0.418:671
0.419:710
0.419:704
0.419:795
0.420:859
0.420:703
0.420:492
0.420:375
0.421:294
0.421:308
0.421:439
0.421:538
0.422:538
0.422:527
0.422:530
0.422:545
0.422:501
0.423:462
0.423:495
0.423:502
0.423:468
0.424:449
0.424:489
0.424:526
0.424:585
0.424:585
0.425:628
0.425:568
0.425:478
0.425:477
0.425:474
0.425:473
0.425:498
0.425:514
0.426:516
0.426:557
0.427:544
0.427:497
0.427:437
0.427:408
0.427:424
0.428:474
0.428:502
0.428:559
0.428:585
0.428:549
0.428:465
0.429:421
0.429:427
0.429:449
0.429:445
0.429:424
0.430:496
0.430:548
0.430:521
0.430:561
0.430:575
0.430:516
0.431:506
0.431:565
0.431:608
0.431:601
0.432:570
0.432:502
0.432:460
0.432:377
0.432:387
0.433:420
0.433:427
0.433:400
0.433:358
0.433:321
0.433:275
0.434:303
0.434:425
0.434:561
0.434:626
0.434:620
0.435:594
0.435:525
0.435:495
0.435:480
0.435:482
0.435:482
0.436:464
0.436:464
0.436:427
0.436:380
0.436:369
0.436:346
0.436:343
0.438:333
0.438:321
0.438:304
0.438:291
0.439:238
0.439:148
0.439:136
0.440:232
0.440:347
0.440:451
0.440:524
0.441:610
0.441:596
0.441:520
0.441:411
0.441:285
0.442:322
0.442:364
0.442:324
0.442:346
0.442:365
0.443:387
0.443:423
0.443:449
0.443:466
0.443:449
0.443:441
0.444:398
0.444:352
0.444:327
0.444:348
0.444:390
0.445:412
0.445:434
0.445:426
0.445:413
0.445:382
0.445:366
0.446:364
0.446:339
0.446:378
0.447:382
0.447:398
0.447:420
0.447:459
0.447:497
0.448:562
0.448:550
0.448:496
0.448:489
0.448:431
0.449:367
0.449:293
0.449:234
0.449:234
0.449:197
0.449:253
0.450:321
0.450:370
0.450:405
0.450:436
0.450:483
0.451:542
0.451:649
0.451:677
0.451:610
0.451:552
0.451:546
0.452:536
0.452:497
0.452:528
0.453:556
0.453:533
0.453:508
0.453:530
0.453:579
0.453:574
0.453:592
0.453:631
0.453:662
0.454:622
0.454:650
0.454:660
0.454:628
0.454:610
0.454:578
0.455:550
0.455:530
0.455:535
0.455:520
0.455:514
0.456:575
0.456:596
0.457:615
0.457:661
0.457:675
0.457:639
0.457:670
0.457:702
0.457:737
0.457:765
0.457:728
0.458:658
0.458:625
0.458:619
0.458:615
0.458:629
0.459:615
0.459:599
0.459:587
0.459:591
0.459:601
0.459:608
0.460:559
0.460:559
0.460:535
0.460:543
0.460:557
0.461:570
0.461:559
0.461:538
0.461:543
0.461:545
0.461:513
0.462:532
0.462:581
0.462:608
0.462:643
0.462:654
0.463:624
0.463:571
0.463:585
0.463:664
0.463:749
0.463:741
0.464:648
0.464:603
0.464:644
0.464:647
0.464:634
0.465:612
0.465:601
0.465:566
0.465:537
0.465:513
0.465:517
0.465:531
0.465:547
0.465:542
0.466:557
0.467:581
0.467:560
0.467:600
0.467:615
0.467:622
0.467:651
0.468:646
0.468:632
0.468:532
0.468:477
0.468:489
0.468:535
0.469:548
0.469:548
0.469:512
0.469:576
0.470:633
0.470:590
0.470:538
0.470:526
0.471:531
0.471:569
0.471:593
0.472:637
0.472:637
0.472:609
0.472:535
0.472:517
0.473:488
0.473:447
0.473:437
0.473:405
0.473:428
0.474:504
0.474:626
0.474:709
0.474:688
0.474:628
0.475:599
0.475:623
0.475:623
0.475:561
0.475:527
0.475:548
0.476:569
0.476:593
0.477:646
0.477:644
0.477:583
0.477:511
0.477:487
0.477:483
0.478:541
0.478:553
0.478:491
0.478:459
0.478:493
0.479:536
0.479:516
0.479:463
0.479:468
0.479:549
0.479:639
0.480:636
0.480:579
0.480:557
0.480:594
0.480:573
0.481:560
0.481:605
0.481:609
0.481:600
0.481:551
0.481:462
0.482:437
0.482:41
0.482:473
0.482:475
0.482:475
0.483:473
0.483:479
0.483:487
0.483:491
0.483:482
0.483:482
0.484:491
0.484:496
0.484:488
0.484:491
0.484:506
0.485:2
0.485:489
0.485:495
0.485:494
0.486:463
0.486:455
0.486:504
0.486:511
0.486:499
0.487:490
0.487:486
0.487:481
0.488:473
0.488:475
0.488:475
0.488:473
0.488:479
0.489:487
0.489:491
0.489:482
0.489:482
0.489:491
0.490:496
0.490:488
0.490:491
0.490:506
0.490:2
0.490:489
0.491:495
0.491:494
0.491:463
0.491:455
0.491:504
0.491:511
0.492:499
0.492:490
0.492:486
0.492:481
0.492:473
0.493:475
0.493:475
0.493:473
0.493:479
0.493:487
0.493:491
0.494:482
0.494:482
0.494:491
0.494:496
0.494:488
0.495:491
0.495:506
0.495:506
0.495:508
0.495:498
0.495:496
0.496:492
0.496:486
0.497:479
0.497:473
0.497:465
0.497:478
0.497:494
0.497:501
0.498:499
0.498:500
0.498:500
0.498:503
0.498:499
0.499:496
0.499:497
0.499:493
0.499:487
0.499:482
0.500:480
0.500:483
0.500:484
0.500:485
0.500:489
0.500:489
0.501:482
0.501:486
0.501:488
0.501:489
0.501:487
0.501:494
0.502:496
0.502:496
0.503:492
0.503:492
0.503:491
0.503:489
0.503:485
0.503:487
0.503:485
0.504:485
0.504:485
0.504:480
0.504:477
0.505:474
0.505:472
0.505:476
0.505:476
0.505:479
0.505:480
0.505:479
0.505:479
0.506:484
0.506:488
0.506:493
0.506:493
0.506:489
0.506:489
0.507:486
0.507:483
0.507:480
0.507:477
0.507:477
0.508:475
0.508:475
0.508:475
0.508:475
0.508:479
0.509:483
0.509:484
0.509:484
0.509:487
0.509:491
0.510:493
0.510:502
0.510:517
0.510:527
0.510:535
0.510:529
0.511:522
0.511:512
0.511:501
0.511:490
0.511:473
0.512:453
0.512:424
0.512:401
0.512:379
0.512:353
0.512:331
0.513:311
0.513:279
0.513:220
0.513:152
0.513:147
0.514:115
0.514:49
0.514:17
0.514:17
0.514:17
0.514:17
0.515:18
0.515:18
0.515:19
0.515:19
0.515:19
0.515:19
0.515:19
0.516:19
0.516:19
0.516:19
0.516:19
0.517:19
0.517:19
0.517:18
0.517:17
0.517:17
0.517:17
0.517:17
0.518:83
0.519:181
0.519:291
0.519:420
0.519:519
0.519:588
0.519:637
0.520:667
0.520:656
0.520:632
0.520:635
0.520:619
0.521:624
0.521:616
0.521:601
0.521:593
0.522:587
0.522:591
0.522:589
0.522:589
0.522:581
0.523:567
0.523:561
0.523:552
0.523:549
0.523:541
0.523:531
0.524:515
0.524:514
0.524:545
0.524:584
0.524:620
0.525:639
0.525:626
0.525:615
0.525:608
0.525:606
0.525:605
0.526:606
0.526:598
0.526:591
0.527:588
0.527:587
0.527:581
0.527:581
0.527:568
0.528:572
0.528:584
0.528:580
0.528:574
0.528:571
0.529:573
0.529:573
0.529:573
0.529:574
0.529:568
0.530:565
0.530:557
0.530:557
0.530:554
0.530:544
0.530:543
0.531:540
0.531:546
0.531:550
0.531:543
0.531:527
0.532:532
0.532:546
0.532:542
0.532:525
0.532:534
0.532:533
0.533:526
0.533:526
0.533:528
0.533:532
0.533:541
0.534:545
0.534:548
0.534:544
0.534:532
0.535:523
0.535:519
0.535:513
0.535:510
0.535:508
0.536:509
0.536:509
0.536:512
0.536:514
0.536:514
0.536:512
0.536:509
0.536:505
0.536:501
0.536:496
0.538:477
0.538:488
0.538:500
0.538:510
0.538:506
0.538:487
0.538:483
0.539:486
0.539:487
0.539:482
0.539:481
0.539:480
0.540:478
0.540:463
0.540:458
0.540:491
0.540:490
0.541:490
0.541:489
0.541:495
0.541:508
0.541:508
0.542:506
0.542:497
0.542:489
0.542:476
0.542:466
0.543:445
0.543:435
0.543:451
0.543:451
0.543:456
0.543:468
0.544:464
0.544:456
0.544:466
0.544:478
0.544:474
0.545:468
0.545:463
0.545:460
0.545:455
0.545:447
0.545:433
0.545:445
0.545:458
0.545:453
0.547:447
0.547:446
0.547:442
0.547:436
0.547:428
0.548:432
0.548:442
0.548:446
0.548:445
0.548:432
0.548:417
0.549:412
0.549:379
0.549:396
0.549:436
0.549:443
0.550:426
0.550:437
0.550:442
0.550:438
0.550:437
0.551:437
0.551:422
0.551:406
0.551:398
0.551:394
0.551:397
0.552:405
0.552:412
0.552:407
0.553:395
0.553:401
0.553:406
0.553:405
0.553:405
0.553:400
0.553:398
0.554:390
0.554:381
0.554:375
0.554:375
0.554:375
0.554:374
0.554:379
0.554:377
0.555:377
0.555:376
0.555:374
0.555:386
0.555:387
0.555:382
0.555:380
0.556:360
0.556:339
0.556:379
0.556:395
0.556:383
0.557:372
0.557:375
0.557:377
0.557:375
0.557:375
0.557:381
0.559:390
0.559:396
0.559:386
0.559:366
0.559:373
0.560:388
0.560:391
0.560:405
0.560:406
0.560:398
0.560:414
0.560:419
0.560:421
0.560:415
0.560:410
0.560:411
0.561:418
0.561:422
0.561:423
0.561:427
0.561:425
0.562:425
0.562:418
0.562:415
0.562:414
0.562:431
0.562:456
0.563:476
0.563:471
0.563:480
0.563:486
0.563:486
0.563:469
0.564:463
0.564:490
0.564:495
0.564:482
0.564:497
0.564:491
0.564:477
0.564:465
0.566:491
0.566:512
0.566:525
0.566:524
0.566:514
0.566:517
0.567:522
0.567:520
0.567:520
0.567:529
0.567:539
0.568:541
0.568:537
0.569:551
0.569:564
0.569:554
0.569:563
0.569:574
0.569:580
0.569:578
0.569:565
0.569:553
0.571:546
0.571:542
0.571:551
0.571:564
0.572:564
0.572:565
0.572:568
0.572:563
0.573:557
0.573:574
0.573:583
0.573:577
0.573:567
0.573:561
0.574:553
0.574:546
0.574:544
0.574:554
0.574:568
0.575:571
0.575:565
0.575:558
0.575:552
0.575:546
0.575:553
0.575:563
0.575:557
0.576:549
0.588:549
0.589:534
0.589:542
0.589:571
0.589:579
0.589:560
0.593:547
0.593:545
0.593:544
0.593:545
0.594:547
0.594:555
0.594:550
0.594:544
0.594:540
0.597:539
0.597:542
0.597:540
0.597:536
0.597:524
0.597:532
0.597:544
0.597:547
0.598:550
0.598:539
0.601:527
0.601:537
0.601:542
0.601:539
0.602:516
0.617:507
0.617:534
0.620:550
0.621:543
0.621:533
0.621:526
0.622:525
0.622:524
0.622:516
0.623:507
0.623:498
0.623:487
0.625:516
0.625:528
0.625:522
0.625:521
0.625:544
0.625:544
0.627:550
0.627:541
0.627:518
0.627:505
0.629:503
0.629:507
0.630:509
0.630:506
0.630:504
0.630:503
0.631:500
0.631:500
0.645:500
0.645:509
0.650:515
0.650:517
0.650:512
0.651:507
0.651:513
0.651:519
0.652:512
0.652:506
0.652:499
0.654:492
0.654:485
0.654:489
0.654:493
0.655:491
0.655:490
0.655:481
0.655:482
0.655:493
0.656:496
0.658:498
0.658:501
0.659:499
0.659:495
0.659:495
0.659:493
0.660:478
0.660:474
0.660:501
0.678:488
0.678:483
0.679:484
0.679:487
0.679:482
0.679:466
0.679:458
0.680:478
0.682:507
0.683:506
0.683:491
0.683:485
0.683:504
0.683:507
0.684:499
0.684:496
0.684:497
0.686:495
0.686:490
0.686:483
0.687:483
0.687:479
0.687:472
0.687:471
0.687:475
0.688:476
0.688:471
0.690:471
0.690:480
0.690:479
0.706:479
0.707:479
0.707:475
0.707:479
0.708:485
0.708:482
0.708:480
0.710:481
0.711:480
0.711:476
0.711:475
0.711:476
0.711:471
0.712:455
0.712:446
0.712:416
0.712:445
0.714:486
0.714:503
0.716:502
0.716:490
0.716:487
0.717:483
0.717:483
0.717:487
0.717:486
0.719:479
0.719:471
0.719:472
0.719:482
0.735:485
0.735:482
0.735:469
0.735:450
0.739:428
0.740:457
0.740:487
0.740:475
0.740:472
0.740:490
0.741:495
0.741:491
0.741:483
0.743:475
0.744:466
0.744:462
0.744:464
0.745:468
0.745:478
0.745:486
0.745:477
0.746:467
0.746:450
0.748:455
0.748:463
0.749:480
0.749:471
0.749:477
0.749:485
0.750:474
0.764:474
0.764:476
0.764:477
0.768:464
0.768:453
0.768:441
0.768:448
0.769:472
0.769:501
0.769:498
0.769:484
0.769:472
0.770:458
0.772:447
0.772:447
0.773:457
0.773:460
0.773:455
0.773:453
0.775:452
0.775:449
0.775:444
0.776:440
0.776:438
0.777:436
0.777:437
0.777:439
0.778:434
0.778:419
0.778:387
0.797:429
0.797:442
0.797:443
0.798:450
0.798:440
0.798:438
0.798:445
0.798:441
0.798:438
0.801:443
0.802:442
0.802:445
0.802:450
0.802:449
0.802:454
0.802:456
0.802:464
0.803:460
0.803:459
0.805:463
0.805:459
0.805:453
0.805:449
0.805:448
0.806:443
0.806:445
0.807:460
0.807:467
0.809:472
0.809:479
0.825:479
0.826:485
0.826:491
0.826:493
0.826:497
0.826:512
0.826:520
0.827:519
0.829:515
0.830:511
0.830:505
0.830:500
0.830:497
0.831:491
0.831:486
0.831:482
0.832:483
0.832:487
0.833:498
0.834:512
0.834:524
0.834:522
0.836:508
0.836:496
0.836:495
0.836:504
0.836:505
0.836:505
0.838:507
0.838:508
0.854:507
0.854:502
0.855:500
0.855:497
0.855:495
0.858:495
0.858:496
0.858:485
0.859:480
0.859:487
0.859:489
0.859:489
0.859:477
0.860:476
0.860:487
0.863:499
0.863:504
0.863:503
0.864:523
0.864:534
0.864:533
0.864:523
0.864:513
0.864:502
0.867:498
0.867:470
0.867:484
0.868:509
0.868:524
0.868:524
0.883:524
0.883:513
0.883:523
0.884:525
0.887:517
0.887:494
0.887:509
0.888:523
0.888:512
0.888:509
0.889:514
0.889:514
0.889:511
0.890:499
0.891:496
0.891:499
0.891:501
0.892:505
0.892:515
0.892:519
0.892:514
0.892:502
0.893:493
0.895:481
0.895:478
0.896:478
0.896:482
0.896:505
0.896:511
0.896:509
0.911:507
0.916:511
0.916:509
0.916:506
0.916:501
0.916:493
0.917:489
0.917:482
0.917:478
0.917:479
0.918:489
0.919:495
0.920:505
0.920:520
0.920:532
0.920:529
0.921:525
0.921:520
0.921:506
0.921:497
0.924:497
0.924:509
0.924:509
0.924:489
0.924:480
0.925:465
0.925:445
0.925:419
0.925:389
0.925:372
0.945:372
0.945:359
0.945:316
0.945:286
0.946:258
0.946:226
0.946:187
0.946:143
0.946:83
0.946:33
0.949:17
0.949:17
0.949:17
0.949:17
0.949:18
0.949:18
0.950:18
0.950:18
0.950:19
0.950:19
0.950:19
0.950:19
0.952:19
0.953:18
0.953:18
0.953:18
0.953:18
0.953:17
0.953:40
0.953:130
0.973:194
0.973:285
0.973:393
0.973:513
0.974:602
0.974:651
0.974:686
0.977:695
0.978:695
0.978:668
0.978:640
0.978:628
0.978:627
0.978:615
0.979:608
0.979:600
0.982:583
0.982:585
0.982:593
0.982:598
0.982:589
0.982:583
0.983:573
0.983:565
0.983:584
0.983:586
0.986:578
0.986:561
0.987:541
0.987:557
1.002:557
1.002:566
1.003:553
1.003:552
1.003:552
1.003:558
1.005:579
1.006:598
1.006:612
1.006:610
1.007:593
1.007:573
1.007:561
1.007:553
1.007:544
1.010:538
1.010:520
1.010:543
1.010:576
1.011:599
1.011:597
1.011:598
1.011:599
1.011:593
1.012:581
1.014:567
1.014:564
1.014:561
1.014:563
1.015:559
1.030:556
1.030:554
1.035:553
1.035:557
1.036:566
1.036:568
1.036:551
1.036:534
1.036:526
1.038:521
1.038:510
1.038:505
1.039:526
1.039:527
1.039:518
1.040:543
1.040:564
1.040:554
1.040:541
1.040:532
1.040:530
1.041:525
1.043:524
1.043:523
1.043:512
1.043:510
1.044:511
1.044:505
1.044:512
1.044:522
1.059:522
1.059:525
1.063:522
1.063:508
1.064:516
1.064:525
1.064:529
1.064:526
1.064:517
1.064:521
1.065:518
1.067:518
1.068:520
1.068:516
1.068:498
1.069:499
1.069:496
1.069:493
1.069:492
1.069:492
1.069:490
1.072:480
1.072:465
1.072:460
1.072:474
1.073:487
1.073:484
1.073:480
1.073:460
1.073:454
1.091:477
1.092:480
1.092:474
1.092:478
1.092:477
1.092:466
1.093:460
1.093:461
1.096:472
1.096:482
1.096:478
1.097:468
1.097:468
1.097:492
1.097:511
1.097:504
1.098:487
1.100:476
1.100:475
1.100:477
1.100:475
1.101:473
1.102:462
1.102:450
1.102:446
1.102:429
1.103:421
1.103:441
1.103:451
1.104:429
1.121:429
1.121:428
1.121:444
1.121:450
1.121:460
1.122:462
1.122:459
1.125:461
1.125:458
1.125:449
1.125:445
1.126:442
1.126:432
1.126:425
1.126:426
1.126:434
1.126:428
1.128:427
1.128:431
1.129:433
1.129:434
1.129:429
1.129:420
1.129:416
1.130:413
1.130:424
1.133:422
1.133:410
1.133:421
1.133:432
1.149:430
1.149:425
1.149:421
1.150:418
1.153:410
1.154:399
1.154:393
1.155:392
1.155:386
1.155:385
1.155:390
1.155:399
1.156:397
1.157:386
1.157:384
1.157:399
1.157:404
1.158:395
1.158:390
1.158:392
1.158:407
1.158:428
1.159:424
1.162:412
1.162:398
1.162:379
1.162:383
1.163:385
1.163:375
1.163:361
1.178:361
1.178:375
1.178:396
1.182:431
1.182:452
1.182:450
1.183:445
1.183:447
1.183:443
1.183:439
1.183:440
1.183:445
1.186:450
1.186:456
1.186:460
1.186:462
1.187:455
1.187:453
1.187:455
1.188:455
1.188:457
1.188:455
1.190:456
1.190:449
1.190:464
1.190:484
1.191:488
1.191:481
1.191:483
1.191:504
1.211:511
1.211:518
1.211:517
1.211:518
1.212:527
1.212:533
1.212:532
1.212:529
1.212:526
1.215:521
1.215:523
1.215:530
1.215:541
1.216:561
1.216:569
1.216:568
1.216:573
1.216:571
1.216:560
1.218:567
1.218:576
1.219:577
1.219:570
1.219:586
1.219:590
1.219:583
1.219:579
1.219:571
1.223:559
1.223:560
1.239:560
1.239:553
1.239:547
1.240:563
1.240:588
1.240:594
1.240:593
1.240:585
1.244:583
1.244:585
1.244:589
1.244:588
1.244:606
1.245:613
1.245:612
1.245:603
1.245:580
1.245:567
1.247:566
1.247:547
1.247:551
1.247:590
1.247:604
1.247:599
1.249:593
1.249:588
1.249:568
1.251:575
1.251:586
1.251:579
1.267:596
1.268:612
1.268:619
1.268:614
1.268:603
1.272:594
1.272:590
1.272:591
1.272:587
1.272:584
1.273:577
1.273:570
1.273:565
1.273:558
1.273:556
1.276:553
1.276:546
1.276:544
1.277:550
1.277:559
1.277:571
1.277:563
1.277:555
1.277:556
1.280:563
1.280:551
1.280:546
1.280:573
1.281:586
1.281:578
1.296:578
1.296:563
1.297:551
1.297:532
1.301:515
1.301:526
1.302:554
1.302:567
1.302:583
1.302:589
1.302:577
1.303:556
1.303:541
1.303:542
1.304:548
1.304:549
1.305:547
1.305:539
1.305:530
1.305:540
1.305:535
1.306:531
1.306:546
1.309:557
1.309:555
1.309:536
1.309:517
1.309:510
1.309:512
1.309:481
1.325:459
1.330:490
1.330:556
1.330:586
1.330:587
1.331:577
1.331:571
1.331:562
1.331:556
1.331:547
1.332:536
1.334:528
1.334:522
1.334:516
1.335:512
1.335:508
1.335:508
1.335:516
1.335:512
1.335:521
1.338:526
1.338:527
1.338:532
1.338:533
1.338:529
1.338:520
1.338:510
1.338:503
1.338:503
1.339:506
1.358:506
1.358:507
1.358:509
1.358:505
1.359:495
1.359:481
1.359:481
1.359:505
1.359:523
1.359:518
1.362:503
1.362:500
1.362:498
1.362:488
1.362:483
1.363:499
1.363:497
1.363:494
1.363:503
1.366:497
1.366:488
1.366:498
1.367:518
1.367:520
1.367:517
1.367:512
1.367:498
1.367:504
1.368:505
1.369:503
1.386:506
1.387:509
1.387:503
1.387:501
1.388:495
1.388:497
1.390:510
1.391:513
1.391:507
1.391:498
1.392:496
1.392:480
1.392:460
1.393:482
1.393:497
1.393:498
1.395:499
1.395:503
1.395:501
1.396:504
1.396:512
1.397:524
1.397:526
1.397:519
1.397:504
1.397:498
1.399:496
1.399:510
1.400:528
1.400:513
1.415:513
1.415:512
1.415:497
1.415:495
1.416:496
1.416:495
1.419:490
1.419:487
1.419:484
1.419:484
1.419:494
1.419:492
1.419:494
1.419:499
1.420:504
1.424:507
1.424:507
1.424:503
1.424:501
1.425:486
1.425:498
1.425:503
1.425:497
1.425:495
1.425:498
1.427:499
1.427:501
1.427:496
1.427:493
1.427:489
1.444:488
1.444:489
1.448:494
1.448:501
1.448:507
1.448:511
1.449:513
1.449:509
1.449:505
1.449:502
1.449:501
1.449:497
1.452:496
1.452:492
1.452:485
1.452:480
1.453:481
1.453:482
1.453:483
1.453:480
1.453:480
1.456:480
1.456:480
1.456:485
1.456:495
1.457:502
1.457:505
1.457:501
1.457:497
1.458:498
1.473:498
1.473:496
1.476:486
1.476:473
1.477:466
1.477:465
1.477:468
1.477:478
1.477:474
1.477:462
1.477:451
1.481:449
1.481:451
1.481:456
1.481:456
1.482:458
1.482:463
1.482:463
1.482:464
1.483:462
1.483:456
1.484:458
1.485:464
1.485:467
1.485:463
1.485:454
1.485:445
1.485:437
1.485:440
1.485:440
1.505:444
1.505:448
1.505:457
1.505:465
1.506:467
1.507:461
1.507:457
1.507:469
1.510:482
1.510:501
1.510:510
1.510:503
1.511:480
1.511:465
1.511:458
1.511:450
1.511:459
1.514:472
1.514:481
1.514:484
1.514:484
1.515:489
1.515:505
1.515:516
1.515:518
1.515:523
1.515:524
1.517:518
1.518:526
1.518:528
1.534:528
1.534:527
1.534:533
1.535:542
1.535:541
1.535:532
1.535:523
1.538:516
1.538:502
1.538:490
1.538:477
1.539:489
1.539:507
1.539:509
1.539:518
1.539:517
1.543:493
1.543:519
1.543:578
1.543:589
1.544:572
1.544:551
1.544:527
1.544:519
1.544:531
1.545:538
1.546:538
1.546:533
1.546:527
1.547:528
1.562:525
1.562:529
1.563:528
1.563:513
1.567:504
1.568:493
1.568:506
1.568:527
1.570:536
1.570:543
1.570:540
1.570:542
1.570:544
1.571:536
1.571:532
1.571:528
1.571:529
1.572:529
1.572:525
1.572:528
1.572:528
1.572:526
1.573:527
1.575:529
1.575:533
1.575:531
1.576:531
1.577:533
1.577:533
1.577:529
1.591:529
1.591:523
1.591:524
1.596:528
1.596:533
1.596:529
1.596:520
1.597:515
1.597:510
1.597:508
1.597:507
1.597:508
1.600:509
1.600:509
1.600:510
1.600:509
1.601:506
1.601:503
1.601:507
1.602:518
1.602:519
1.602:521
1.604:528
1.604:524
1.604:517
1.604:513
1.605:513
1.605:509
1.605:510
1.605:521
1.624:528
1.624:531
1.624:530
1.625:527
1.625:533
1.625:547
1.625:557
1.625:543
1.625:545
1.627:565
1.629:576
1.629:565
1.629:552
1.629:534
1.629:518
1.629:495
1.630:468
1.630:431
1.630:410
1.632:403
1.633:377
1.633:362
1.633:338
1.633:294
1.633:240
1.634:198
1.634:153
1.634:111
1.636:60
1.636:17
1.652:17
1.652:17
1.652:17
1.654:17
1.654:18
1.654:18
1.654:18
1.654:19
1.654:19
1.655:19
1.655:19
1.657:19
1.657:19
1.657:19
1.657:19
1.657:18
1.657:18
1.657:18
1.658:17
1.658:18
1.658:110
1.658:204
1.661:308
1.661:431
1.661:527
1.661:597
1.662:667
1.662:704
1.662:698
1.662:687
1.681:666
1.681:645
1.681:632
1.681:615
1.681:608
1.686:615
1.686:617
1.686:607
1.686:591
1.686:575
1.687:589
1.687:602
1.687:616
1.687:624
1.687:623
1.689:616
1.689:611
1.690:610
1.690:604
1.690:603
1.690:603
1.690:602
1.691:599
1.691:597
1.694:613
1.694:617
1.694:614
1.694:616
1.695:619
1.695:623
1.710:623
1.710:604
1.711:602
1.711:630
1.715:639
1.715:628
1.715:627
1.716:631
1.716:641
1.716:645
1.716:636
1.716:623
1.716:615
1.716:610
1.718:606
1.718:603
1.718:604
1.719:610
1.719:617
1.719:620
1.719:614
1.719:605
1.720:601
1.723:598
1.723:588
1.723:581
1.723:585
1.724:584
1.724:573
1.724:564
1.738:571
1.743:572
1.743:565
1.743:565
1.744:565
1.744:563
1.744:567
1.744:578
1.744:585
1.745:589
1.747:581
1.747:569
1.747:560
1.748:560
1.748:566
1.748:567
1.748:564
1.748:559
1.749:555
1.749:550
1.751:546
1.752:542
1.752:543
1.752:545
1.752:547
1.752:546
1.753:541
1.753:537
1.753:527
1.754:508
1.772:508
1.772:509
1.772:543
1.772:557
1.773:557
1.773:549
1.773:548
1.773:558
1.773:548
1.774:525
1.775:544
1.775:540
1.775:527
1.776:516
1.776:511
1.776:517
1.776:543
1.776:548
1.777:541
1.780:534
1.780:527
1.780:524
1.780:520
1.781:518
1.781:513
1.781:513
1.781:516
1.781:514
1.782:507
1.784:503
1.800:500
1.801:497
1.801:490
1.801:487
1.801:497
1.801:489
1.804:484
1.804:497
1.804:521
1.804:517
1.805:510
1.805:494
1.805:496
1.805:508
1.805:506
1.806:500
1.809:493
1.809:482
1.809:471
1.809:465
1.809:463
1.809:471
1.809:476
1.809:473
1.809:478
1.813:477
1.813:467
1.813:470
1.813:478
1.814:480
1.829:480
1.829:497
1.829:499
1.829:492
1.829:486
1.830:483
1.833:486
1.833:491
1.833:491
1.833:483
1.834:477
1.834:478
1.835:477
1.835:471
1.835:462
1.837:453
1.837:440
1.837:461
1.838:461
1.838:457
1.838:456
1.838:466
1.838:472
1.838:467
1.839:455
1.841:432
1.841:419
1.841:427
1.841:433
1.841:444
1.857:448
1.857:444
1.862:436
1.862:432
1.862:433
1.862:443
1.863:446
1.863:454
1.863:456
1.863:448
1.863:446
1.864:443
1.866:447
1.866:449
1.866:444
1.867:430
1.867:440
1.868:449
1.868:445
1.868:433
1.869:419
1.870:430
1.870:442
1.870:440
1.870:436
1.871:443
1.871:449
1.871:454
1.871:453
1.871:434
1.886:434
1.891:428
1.891:462
1.891:467
1.891:454
1.892:472
1.892:482
1.892:478
1.892:474
1.892:473
1.893:465
1.895:464
1.895:469
1.895:471
1.895:467
1.895:469
1.895:481
1.896:495
1.896:506
1.896:512
1.896:518
1.898:528
1.898:546
1.899:554
1.899:550
1.899:546
1.899:543
1.899:539
1.900:535
1.900:539
1.918:541
1.918:549
1.919:556
1.919:555
1.919:551
1.919:552
1.919:561
1.920:566
1.923:570
1.923:573
1.923:580
1.923:582
1.924:588
1.924:593
1.924:589
1.924:581
1.925:568
1.927:556
1.927:562
1.927:578
1.928:579
1.928:577
1.928:580
1.928:584
1.928:591
1.928:595
1.928:597
1.931:595
1.931:592
1.931:589
1.947:589
1.947:587
1.947:587
1.948:588
1.948:590
1.948:592
1.948:590
1.952:589
1.952:586
1.952:584
1.952:583
1.952:578
1.953:576
1.953:576
1.953:571
1.953:569
1.955:573
1.956:575
1.956:580
1.957:586
1.957:585
1.957:584
1.957:584
1.957:582
1.957:581
1.958:583
1.960:582
1.960:575
1.960:573
1.960:574
1.975:569
1.977:561
1.977:551
1.977:553
1.981:559
1.981:568
1.981:571
1.981:574
1.981:577
1.981:572
1.982:564
1.983:565
1.983:563
1.985:561
1.985:562
1.985:565
1.985:570
1.985:569
1.986:567
1.986:564
1.986:559
1.986:557
1.986:561
1.989:567
1.989:562
1.989:551
1.989:544
1.990:542
1.990:542
1.990:544
2.004:544
2.005:550
2.005:560
2.009:568
2.009:565
2.009:560
2.010:550
2.010:548
2.010:551
2.010:551
2.010:547
2.010:539
2.012:535
2.013:530
2.013:531
2.013:542
2.013:543
2.014:540
2.014:538
2.014:531
2.014:533
2.014:551
2.017:537
2.018:545
2.018:552
2.018:552
2.018:544
2.019:540
2.019:537
2.019:532
2.037:522
2.038:508
2.038:525
2.038:538
2.038:544
2.038:543
2.038:532
2.039:523
2.039:518
2.042:516
2.042:512
2.042:523
2.042:539
2.043:539
2.043:534
2.043:526
2.043:517
2.043:506
2.044:506
2.046:502
2.046:508
2.046:523
2.047:532
2.047:541
2.047:538
2.047:531
2.048:525
2.048:521
2.050:513
2.051:502
2.066:502
2.066:508
2.067:516
2.067:529
2.067:525
2.067:514
2.067:512
2.069:509
2.071:520
2.071:533
2.071:532
2.071:519
2.072:503
2.072:493
2.072:521
2.072:533
2.072:545
2.073:541
2.075:528
2.075:520
2.075:516
2.075:513
2.075:515
2.076:510
2.076:485
2.076:508
2.076:544
2.079:539
2.079:525
2.079:513
2.095:511
2.095:511
2.095:515
2.095:514
2.095:513
2.099:511
2.099:510
2.099:509
2.101:507
2.101:509
2.101:512
2.101:509
2.101:509
2.101:518
2.101:527
2.103:529
2.103:525
2.103:515
2.104:507
2.104:497
2.104:508
2.104:514
2.104:507
2.105:499
2.107:507
2.107:522
2.107:522
2.107:515
2.107:507
2.107:511
2.123:511
2.124:516
2.124:515
2.124:516
2.127:509
2.127:500
2.127:476
2.127:503
2.127:522
2.129:523
2.129:516
2.129:510
2.129:508
2.129:508
2.132:505
2.132:512
2.132:516
2.132:512
2.133:510
2.133:507
2.133:507
2.133:508
2.133:511
2.136:509
2.136:509
2.136:512
2.136:517
2.136:521
2.136:519
2.136:516
2.152:515
2.157:516
2.157:516
2.157:513
2.157:505
2.158:508
2.158:507
2.158:511
2.158:509
2.158:507
2.161:503
2.161:496
2.161:490
2.161:491
2.162:495
2.162:497
2.162:503
2.162:505
2.162:509
2.162:515
2.165:516
2.165:510
2.165:505
2.165:510
2.165:498
2.166:505
2.166:503
2.166:505
2.166:507
2.167:508
2.185:508
2.185:506
2.186:504
2.186:496
2.186:486
2.186:486
2.186:496
2.186:508
2.187:508
2.187:508
2.189:504
2.189:486
2.189:488
2.189:488
2.190:484
2.190:480
2.190:467
2.190:457
2.190:449
2.194:450
2.194:455
2.194:469
2.194:482
2.195:480
2.195:475
2.195:472
2.195:476
2.195:475
2.195:473
2.197:471
2.214:477
2.214:479
2.214:472
2.214:467
2.215:463
2.215:463
2.217:463
2.218:463
2.218:459
2.218:450
2.218:449
2.219:459
2.219:479
2.219:491
2.219:494
2.219:488
2.222:484
2.222:479
2.222:474
2.222:474
2.223:465
2.223:471
2.223:484
2.223:485
2.223:483
2.226:486
2.226:494
2.226:497
2.226:500
2.226:511
2.242:511
2.242:520
2.243:524
2.243:523
2.243:523
2.247:527
2.247:508
2.247:503
2.248:525
2.248:526
2.248:531
2.248:534
2.248:533
2.248:530
2.249:530
2.251:529
2.252:524
2.252:516
2.252:520
2.252:529
2.252:534
2.253:536
2.253:538
2.253:537
2.253:533
2.255:530
2.255:530
2.255:537
2.255:542
2.255:542
2.270:538
2.271:531
2.275:526
2.276:522
2.276:520
2.276:516
2.276:516
2.276:522
2.276:521
2.277:526
2.277:530
2.277:523
2.280:507
2.280:520
2.280:537
2.280:545
2.280:539
2.280:531
2.280:521
2.281:495
2.281:525
2.284:549
2.284:543
2.285:534
2.285:528
2.285:528
2.285:529
2.285:526
2.285:519
2.285:517
2.300:517
2.304:516
2.304:528
2.304:539
2.304:544
2.305:547
2.305:545
2.305:545
2.305:542
2.305:530
2.306:518
2.308:527
2.308:540
2.308:542
2.309:538
2.309:538
2.309:535
2.309:534
2.309:528
2.310:524
2.312:525
2.312:527
2.312:526
2.312:524
2.313:524
2.313:523
2.313:531
2.313:531
2.313:529
2.314:531
2.332:533
2.332:525
2.332:522
2.332:522
2.332:518
2.334:514
2.334:510
2.334:511
2.337:518
2.337:526
2.337:538
2.337:550
2.337:561
2.338:572
2.338:579
2.338:583
2.338:580
2.341:574
2.341:562
2.341:546
2.341:514
2.342:501
2.342:466
2.342:445
2.342:423
2.342:396
2.342:378
2.345:354
2.345:322
2.345:281
2.361:281
2.361:231
2.361:182
2.361:134
2.361:77
2.361:22
2.362:17
2.362:17
2.365:18
2.365:18
2.365:18
2.365:18
2.365:19
2.365:19
2.366:19
2.366:19
2.366:20
2.366:20
2.366:20
2.366:20
2.369:19
2.370:19
2.370:19
2.370:18
2.370:17
2.370:17
2.371:70
2.371:189
2.371:304
2.371:430
2.389:529
2.389:609
2.389:664
2.390:688
2.393:692
2.394:680
2.394:673
2.394:664
2.394:653
2.394:636
2.395:617
2.395:594
2.395:588
2.398:596
2.398:599
2.398:600
2.398:603
2.399:609
2.399:624
2.399:633
2.399:634
2.400:634
2.400:641
2.401:642
2.402:636
2.402:634
2.402:633
2.402:631
2.403:629
2.403:625
2.418:625
2.418:618
2.419:619
2.422:623
2.423:623
2.423:628
2.423:634
2.423:636
2.423:638
2.424:639
2.424:639
2.424:641
2.427:645
2.427:641
2.427:631
2.427:624
2.428:612
2.428:615
2.428:617
2.428:616
2.428:623
2.429:622
2.431:627
2.431:634
2.431:631
2.431:630
2.432:624
2.432:614
2.432:614
2.432:615
2.451:615
2.451:616
2.451:616
2.452:613
2.452:612
2.453:608
2.453:602
2.453:591
2.454:595
2.455:592
2.455:580
2.456:579
2.456:575
2.456:578
2.456:576
2.456:568
2.457:584
2.457:580
2.457:577
2.459:579
2.459:582
2.459:584
2.460:579
2.460:569
2.460:559
2.460:557
2.460:562
2.461:566
2.464:563
2.464:562
2.479:562
2.480:556
2.480:558
2.480:553
2.480:549
2.480:554
2.481:572
2.481:579
2.484:567
2.484:561
2.485:558
2.485:551
2.485:549
2.485:547
2.486:542
2.486:532
2.487:543
2.487:548
2.488:535
2.488:524
2.488:518
2.489:514
2.489:505
2.490:507
2.490:529
2.490:544
2.490:535
2.492:534
2.492:534
2.492:515
2.507:515
2.509:538
2.509:536
2.509:519
2.509:511
2.513:513
2.513:508
2.513:505
2.513:513
2.514:518
2.514:518
2.514:509
2.514:501
2.514:499
2.515:501
2.517:511
2.518:514
2.518:512
2.518:507
2.518:505
2.518:503
2.519:503
2.519:503
2.519:498
2.521:496
2.521:499
2.522:493
2.522:486
2.522:490
2.522:498
2.537:498
2.537:499
2.538:495
2.538:489
2.542:478
2.542:472
2.542:466
2.542:483
2.543:482
2.543:471
2.543:467
2.543:462
2.544:473
2.544:481
2.545:475
2.545:469
2.545:461
2.545:447
2.546:439
2.546:458
2.546:464
2.546:461
2.546:465
2.550:465
2.551:465
2.551:464
2.551:458
2.551:453
2.552:450
2.552:456
2.565:451
2.570:444
2.570:440
2.570:439
2.570:433
2.571:441
2.571:442
2.571:440
2.571:443
2.572:445
2.574:440
2.574:435
2.574:431
2.575:419
2.575:412
2.575:411
2.575:419
2.575:426
2.576:438
2.576:438
2.578:438
2.578:448
2.578:458
2.578:455
2.579:449
2.579:442
2.579:440
2.579:439
2.579:443
2.582:444
2.599:444
2.599:439
2.600:440
2.600:441
2.600:439
2.601:440
2.601:442
2.601:452
2.601:470
2.601:482
2.603:484
2.603:480
2.603:479
2.603:480
2.603:485
2.603:483
2.604:484
2.604:479
2.604:473
2.606:476
2.606:487
2.608:500
2.608:510
2.608:513
2.608:515
2.608:516
2.609:516
2.609:518
2.609:520
2.611:525
2.627:531
2.627:539
2.627:532
2.627:539
2.627:547
2.627:545
2.632:545
2.632:561
2.632:571
2.632:582
2.633:573
2.633:568
2.634:567
2.634:564
2.634:562
2.634:573
2.635:584
2.636:592
2.636:591
2.636:591
2.636:593
2.637:596
2.637:598
2.637:598
2.637:574
2.640:584
2.640:596
2.640:590
2.640:604
2.641:607
2.655:607
2.656:596
2.656:592
2.657:592
2.657:604
2.660:602
2.660:607
2.660:609
2.660:602
2.661:596
2.661:589
2.661:588
2.661:598
2.661:595
2.662:583
2.664:578
2.664:580
2.664:588
2.664:596
2.665:606
2.665:604
2.665:599
2.665:585
2.666:579
2.668:561
2.668:568
2.668:577
2.669:575
2.669:578
2.669:584
2.684:590
2.684:591
2.689:600
2.689:609
2.689:612
2.689:603
2.690:593
2.690:584
2.690:580
2.690:580
2.690:583
2.691:586
2.693:582
2.693:568
2.693:564
2.693:571
2.694:566
2.694:559
2.694:559
2.694:584
2.694:597
2.697:596
2.697:590
2.697:586
2.697:583
2.697:580
2.698:578
2.698:575
2.698:568
2.698:563
2.713:563
2.717:562
2.717:561
2.717:560
2.717:560
2.718:558
2.718:552
2.720:547
2.720:540
2.720:547
2.720:556
2.722:560
2.722:562
2.722:565
2.722:568
2.723:566
2.723:557
2.723:555
2.723:553
2.723:546
2.726:540
2.726:543
2.726:547
2.726:542
2.726:536
2.726:534
2.726:535
2.727:535
2.727:530
2.727:530
2.746:532
2.747:533
2.747:532
2.747:533
2.747:535
2.747:536
2.747:536
2.747:537
2.750:526
2.751:527
2.751:527
2.751:524
2.751:517
2.751:514
2.752:494
2.752:507
2.753:521
2.754:517
2.754:511
2.754:510
2.754:506
2.754:518
2.754:537
2.754:528
2.754:526
2.754:543
2.754:548
2.757:553
2.758:551
2.758:553
2.775:553
2.775:549
2.775:541
2.776:527
2.776:514
2.776:515
2.776:508
2.779:519
2.779:522
2.779:521
2.779:519
2.780:519
2.780:519
2.780:521
2.780:519
2.780:520
2.783:526
2.784:523
2.784:512
2.784:496
2.784:517
2.785:521
2.785:510
2.785:512
2.786:517
2.786:510
2.786:511
2.786:522
2.786:508
2.786:509
2.803:511
2.803:496
2.803:497
2.803:507
2.807:516
2.807:521
2.807:521
2.807:520
2.808:520
2.808:516
2.808:519
2.808:522
2.808:522
2.812:518
2.812:516
2.812:513
2.812:516
2.813:517
2.813:513
2.813:512
2.813:510
2.813:512
2.814:514
2.815:515
2.815:509
2.816:507
2.817:513
2.818:515
2.818:507
2.818:512
2.831:512
2.832:518
2.832:503
2.836:515
2.836:521
2.836:518
2.836:507
2.838:500
2.838:498
2.838:502
2.838:502
2.838:512
2.840:523
2.840:527
2.840:525
2.840:522
2.841:519
2.841:514
2.841:512
2.841:517
2.842:516
2.842:515
2.845:517
2.845:522
2.845:523
2.845:520
2.846:511
2.846:497
2.846:492
2.846:491
2.864:500
2.865:510
2.865:516
2.865:518
2.865:520
2.865:519
2.867:517
2.867:519
2.867:518
2.869:511
2.869:491
2.870:488
2.870:510
2.870:508
2.871:501
2.871:511
2.871:519
2.871:516
2.872:515
2.873:517
2.873:513
2.873:510
2.874:519
2.874:517
2.874:510
2.875:496
2.875:500
2.875:502
2.876:496
2.876:488
2.893:488
2.894:475
2.894:495
2.894:530
2.894:522
2.894:513
2.894:515
2.895:512
2.897:508
2.897:506
2.898:515
2.898:516
2.898:515
2.898:514
2.898:509
2.899:509
2.899:507
2.899:507
2.901:500
2.902:489
2.902:488
2.902:495
2.902:503
2.903:510
2.903:511
2.903:506
2.904:501
2.906:500
2.906:499
2.906:504
2.922:504
2.922:504
2.923:504
2.923:501
2.923:498
2.926:496
2.926:495
2.926:491
2.926:490
2.927:486
2.927:476
2.927:467
2.927:463
2.927:453
2.931:448
2.931:446
2.931:442
2.931:445
2.932:451
2.932:455
2.932:473
2.932:485
2.932:478
2.933:471
2.934:471
2.935:472
2.935:453
2.935:460
2.935:479
2.935:481
2.950:481
2.950:481
2.950:477
2.950:470
2.955:466
2.955:468
2.955:466
2.955:468
2.955:473
2.956:469
2.956:467
2.956:466
2.956:469
2.956:470
2.959:464
2.959:474
2.959:482
2.959:483
2.959:487
2.960:491
2.960:499
2.960:505
2.960:518
2.963:527
2.963:529
2.963:530
2.963:528
2.964:526
2.964:523
2.964:519
2.979:517
2.984:517
2.984:507
2.984:516
2.984:528
2.984:539
2.984:535
2.984:527
2.985:525
2.985:535
2.987:541
2.988:529
2.988:515
2.988:523
2.988:524
2.988:519
2.988:517
2.989:518
2.989:509
2.989:501
2.992:510
2.992:525
2.992:533
2.992:538
2.993:536
2.993:532
2.993:541
2.993:545
2.993:538
2.996:528
3.012:528
3.012:537
3.012:527
3.012:519
3.012:529
3.013:533
3.013:535
3.013:539
3.013:539
3.016:538
3.017:536
3.017:533
3.017:528
3.017:527
3.017:526
3.019:526
3.019:526
3.019:518
3.020:529
3.021:528
3.021:527
3.022:527
3.022:523
3.022:527
3.023:536
3.023:539
3.023:530
3.023:542
3.023:549
3.024:536
3.040:527
3.040:528
3.041:534
3.041:526
3.041:504
3.041:515
3.045:535
3.045:538
3.046:536
3.046:532
3.046:520
3.046:525
3.046:527
3.046:520
3.047:517
3.047:520
3.049:523
3.051:529
3.051:534
3.051:528
3.051:522
3.052:521
3.052:523
3.052:525
3.053:524
3.053:522
3.053:511
3.053:507
3.054:521
3.054:533
3.070:533
3.070:534
3.070:535
3.070:540
3.071:546
3.074:559
3.074:575
3.074:590
3.074:591
3.074:577
3.075:567
3.075:552
3.075:531
3.075:507
3.075:482
3.078:467
3.078:449
3.078:430
3.078:405
3.079:373
3.079:341
3.079:310
3.079:264
3.079:208
3.082:159
3.082:110
3.083:58
3.083:17
3.083:17
3.083:17
3.097:17
3.097:18
3.098:18
3.102:18
3.103:19
3.103:19
3.103:19
3.103:19
3.104:19
3.104:20
3.104:20
3.105:19
3.105:19
3.105:19
3.105:18
3.107:18
3.107:17
3.107:21
3.107:144
3.107:253
3.107:372
3.107:496
3.107:585
3.108:655
3.108:693
3.111:711
3.111:705
3.111:686
3.111:663
3.112:638
3.126:638
3.131:622
3.131:605
3.131:599
3.131:594
3.132:608
3.132:620
3.132:628
3.133:626
3.133:618
3.133:607
3.135:616
3.135:623
3.135:617
3.135:622
3.135:622
3.135:611
3.136:610
3.137:637
3.137:650
3.139:646
3.139:640
3.139:634
3.139:633
3.139:629
3.140:620
3.140:612
3.140:609
3.140:615
3.140:619
3.160:626
3.160:636
3.160:639
3.160:633
3.160:624
3.161:625
3.161:626
3.161:622
3.164:614
3.164:605
3.164:604
3.164:611
3.165:625
3.165:636
3.165:636
3.165:624
3.165:615
3.167:608
3.168:604
3.168:605
3.168:603
3.168:604
3.168:602
3.170:596
3.170:599
3.171:598
3.171:594
3.172:586
3.172:579
3.172:600
3.188:600
3.189:606
3.189:601
3.189:596
3.189:592
3.189:581
3.189:590
3.193:592
3.193:587
3.193:583
3.193:577
3.194:570
3.194:566
3.194:560
3.194:555
3.194:552
3.196:553
3.196:558
3.197:563
3.197:562
3.197:556
3.197:555
3.197:562
3.198:571
3.198:573
3.198:566
3.200:554
3.201:546
3.201:539
3.201:532
3.216:532
3.217:539
3.217:548
3.221:546
3.221:538
3.221:533
3.221:534
3.222:545
3.222:555
3.222:561
3.222:571
3.222:575
3.222:564
3.225:541
3.225:538
3.226:538
3.226:531
3.226:522
3.226:509
3.226:530
3.227:533
3.227:523
3.227:516
3.229:509
3.229:500
3.229:500
3.229:505
3.229:507
3.230:503
3.230:496
3.245:496
3.246:508
3.246:520
3.250:525
3.250:514
3.250:503
3.250:503
3.252:506
3.252:510
3.252:514
3.252:507
3.252:500
3.254:494
3.254:492
3.254:490
3.254:485
3.255:483
3.255:470
3.255:465
3.255:486
3.255:492
3.255:494
3.257:488
3.257:482
3.257:478
3.257:470
3.257:490
3.257:497
3.257:495
3.257:484
3.278:472
3.278:463
3.279:459
3.279:455
3.279:449
3.279:444
3.279:446
3.279:446
3.280:455
3.283:453
3.284:448
3.284:449
3.284:455
3.284:459
3.284:461
3.285:461
3.285:459
3.285:453
3.287:448
3.287:440
3.288:433
3.288:432
3.288:435
3.288:439
3.288:434
3.288:422
3.288:406
3.289:418
3.291:437
3.291:445
3.307:445
3.307:445
3.307:443
3.307:437
3.307:428
3.307:430
3.308:436
3.308:437
3.311:438
3.311:452
3.311:449
3.311:439
3.312:431
3.312:422
3.312:407
3.312:420
3.312:438
3.313:446
3.315:463
3.315:468
3.316:469
3.316:467
3.317:461
3.317:462
3.317:464
3.317:468
3.318:478
3.319:474
3.319:465
3.319:461
3.335:467
3.335:468
3.336:467
3.336:475
3.337:461
3.340:461
3.340:468
3.340:466
3.340:464
3.341:470
3.341:482
3.341:497
3.341:500
3.341:502
3.344:502
3.344:502
3.344:506
3.344:509
3.345:517
3.345:522
3.345:522
3.345:521
3.345:525
3.345:534
3.347:548
3.348:551
3.348:548
3.348:546
3.348:549
3.349:556
3.364:556
3.364:563
3.364:562
3.364:566
3.368:573
3.368:578
3.369:581
3.369:584
3.369:581
3.369:574
3.370:572
3.370:572
3.370:568
3.370:561
3.373:577
3.373:585
3.373:590
3.373:599
3.374:592
3.374:575
3.374:559
3.374:561
3.374:588
3.377:606
3.377:610
3.377:629
3.377:637
3.377:632
3.378:624
3.378:617
3.393:609
3.397:607
3.397:609
3.397:604
3.397:600
3.397:600
3.398:597
3.398:597
3.398:597
3.399:600
3.401:599
3.401:596
3.401:600
3.401:602
3.401:601
3.401:602
3.403:596
3.403:582
3.403:575
3.404:583
3.406:586
3.406:595
3.406:596
3.406:581
3.407:570
3.407:561
3.407:555
3.407:576
3.407:591
3.409:590
3.426:590
3.426:585
3.426:588
3.426:591
3.427:591
3.427:592
3.427:587
3.427:584
3.427:585
3.430:584
3.430:578
3.430:572
3.430:566
3.431:556
3.431:552
3.431:553
3.431:556
3.433:555
3.433:556
3.433:554
3.433:566
3.434:572
3.434:574
3.434:575
3.434:572
3.434:566
3.434:554
3.434:546
3.435:542
3.438:527
3.455:546
3.455:572
3.455:574
3.455:563
3.455:558
3.455:569
3.459:578
3.459:571
3.459:551
3.459:534
3.460:521
3.460:516
3.460:531
3.460:550
3.460:554
3.461:551
3.463:562
3.463:572
3.463:572
3.463:562
3.464:554
3.464:551
3.464:545
3.464:536
3.464:528
3.466:520
3.467:504
3.467:514
3.467:538
3.467:540
3.483:540
3.483:541
3.484:540
3.484:536
3.484:527
3.488:539
3.488:547
3.488:544
3.488:543
3.489:538
3.489:529
3.489:535
3.489:530
3.489:531
3.489:531
3.492:533
3.492:534
3.492:530
3.492:523
3.492:517
3.493:511
3.493:509
3.493:511
3.493:513
3.495:516
3.495:517
3.496:520
3.496:525
3.496:528
3.496:529
3.511:522
3.511:515
3.516:511
3.516:508
3.517:511
3.517:519
3.517:510
3.517:504
3.517:509
3.518:512
3.518:519
3.518:517
3.520:511
3.520:508
3.520:509
3.520:508
3.521:510
3.521:513
3.521:517
3.521:517
3.521:516
3.524:510
3.524:513
3.524:517
3.524:519
3.525:521
3.525:519
3.525:516
3.525:511
3.525:504
3.540:504
3.545:496
3.545:501
3.545:510
3.545:514
3.545:511
3.546:507
3.546:508
3.546:511
3.546:508
3.546:497
3.550:493
3.550:488
3.550:483
3.550:479
3.550:497
3.550:506
3.550:510
3.551:512
3.551:503
3.553:522
3.553:537
3.553:528
3.553:537
3.554:549
3.554:545
3.554:543
3.554:537
3.554:530
3.555:530
3.573:530
3.573:527
3.573:520
3.573:515
3.574:507
3.574:494
3.574:509
3.574:507
3.577:484
3.577:471
3.577:501
3.577:523
3.577:529
3.577:527
3.577:535
3.578:539
3.578:533
3.582:524
3.582:513
3.582:504
3.583:502
3.583:503
3.583:497
3.583:491
3.583:499
3.583:511
3.583:516
3.585:512
3.585:508
3.585:508
3.602:508
3.602:511
3.602:507
3.602:506
3.602:508
3.602:505
3.603:504
3.606:500
3.606:512
3.607:528
3.607:535
3.608:533
3.608:529
3.608:526
3.608:519
3.608:515
3.610:508
3.610:506
3.610:505
3.610:507
3.611:504
3.611:506
3.611:507
3.611:507
3.611:512
3.612:513
3.614:510
3.614:520
3.614:519
3.614:516
3.630:514
3.630:512
3.630:508
3.635:503
3.635:516
3.635:511
3.635:506
3.635:509
3.635:514
3.636:513
3.636:505
3.636:505
3.636:515
3.639:517
3.639:500
3.639:495
3.639:521
3.639:523
3.640:515
3.640:507
3.640:505
3.640:506
3.640:508
3.643:509
3.643:504
3.643:500
3.643:500
3.643:506
3.643:501
3.644:493
3.659:493
3.659:484
3.659:494
3.663:502
3.663:505
3.664:505
3.664:500
3.664:497
3.665:497
3.665:502
3.665:506
3.666:504
3.667:498
3.667:494
3.667:487
3.667:478
3.667:473
3.667:464
3.667:461
3.667:460
3.667:468
3.667:483
3.671:490
3.671:495
3.671:483
3.672:452
3.672:440
3.672:452
3.672:443
3.672:448
3.692:460
3.692:478
3.692:478
3.693:475
3.693:473
3.693:472
3.693:473
3.693:467
3.693:462
3.696:456
3.696:451
3.696:446
3.696:442
3.696:444
3.697:451
3.697:454
3.697:449
3.697:449
3.700:452
3.700:463
3.700:473
3.701:479
3.701:480
3.701:479
3.701:478
3.701:483
3.701:486
3.702:484
3.704:485
3.704:485
3.721:485
3.721:489
3.721:497
3.721:505
3.721:511
3.722:510
3.722:511
3.722:518
3.725:539
3.725:545
3.725:545
3.725:539
3.726:534
3.726:515
3.726:483
3.726:517
3.727:542
3.727:546
3.728:541
3.729:545
3.729:539
3.729:533
3.729:527
3.729:522
3.730:523
3.730:524
3.730:524
3.732:518
3.733:518
3.733:514
3.749:517
3.749:523
3.749:521
3.749:519
3.749:523
3.754:520
3.754:516
3.754:512
3.754:515
3.755:525
3.755:531
3.755:530
3.755:513
3.755:519
3.757:528
3.757:525
3.757:511
3.757:521
3.757:530
3.757:529
3.758:522
3.758:516
3.758:515
3.758:521
3.761:523
3.761:514
3.761:508
3.761:527
3.761:536
3.761:537
3.777:537
3.777:533
3.778:528
3.778:528
3.783:532
3.783:533
3.784:534
3.784:527
3.784:523
3.784:525
3.784:525
3.784:516
3.785:522
3.785:545
3.786:542
3.786:533
3.787:528
3.787:530
3.787:525
3.787:534
3.787:539
3.787:530
3.788:521
3.790:522
3.790:523
3.790:514
3.790:501
3.791:499
3.791:496
3.791:498
3.806:514
3.811:536
3.811:547
3.811:551
3.811:553
3.812:546
3.812:534
3.812:508
3.812:509
3.812:533
3.815:530
3.816:537
3.816:555
3.816:562
3.817:564
3.817:566
3.817:571
3.817:573
3.818:567
3.818:556
3.819:542
3.819:528
3.819:505
3.819:476
3.819:450
3.819:425
3.820:402
3.820:375
3.820:348
3.823:318
3.839:318
3.839:280
3.839:232
3.839:189
3.839:150
3.840:102
3.840:47
3.840:17
3.840:17
3.840:17
3.844:17
3.844:18
3.844:18
3.844:19
3.844:19
3.845:19
3.845:19
3.845:19
3.845:19
3.845:19
3.845:19
3.845:19
3.847:19
3.847:18
3.847:18
3.847:17
3.847:17
3.848:99
3.848:213
3.848:322
3.867:454
3.867:563
3.867:647
3.867:703
3.867:729
3.867:727
3.872:707
3.872:669
3.873:634
3.873:628
3.873:599
3.874:600
3.874:619
3.874:631
3.875:622
3.875:614
3.876:609
3.876:607
3.876:603
3.876:607
3.876:614
3.877:618
3.877:620
3.877:625
3.877:625
3.879:622
3.880:614
3.880:606
3.880:598
3.880:615
3.897:615
3.897:625
3.897:623
3.897:617
3.897:616
3.901:619
3.901:617
3.901:623
3.901:631
3.901:633
3.901:630
3.901:626
3.901:621
3.901:613
3.902:609
3.905:613
3.905:606
3.905:606
3.906:638
3.906:634
3.906:613
3.906:600
3.906:615
3.907:619
3.909:610
3.909:603
3.909:600
3.909:610
3.910:609
3.910:602
3.924:592
3.925:592
3.930:596
3.930:597
3.930:603
3.930:605
3.931:600
3.931:594
3.931:579
3.931:588
3.931:603
3.932:594
3.933:582
3.933:580
3.934:578
3.934:577
3.934:576
3.934:574
3.934:575
3.934:575
3.934:573
3.937:571
3.937:569
3.938:556
3.938:563
3.938:570
3.938:566
3.938:565
3.939:566
3.939:566
3.953:566
3.958:564
3.958:561
3.958:556
3.958:549
3.958:543
3.958:538
3.958:534
3.960:539
3.960:540
3.960:541
3.962:534
3.962:524
3.962:530
3.963:534
3.963:535
3.963:531
3.963:529
3.963:520
3.964:513
3.966:509
3.966:521
3.966:535
3.967:536
3.967:528
3.967:517
3.967:501
3.967:509
3.967:511
3.967:524
3.986:522
3.986:519
3.986:517
3.987:518
3.987:521
3.987:513
3.987:517
3.991:510
3.991:517
3.991:523
3.991:521
3.991:519
3.992:514
3.992:499
3.992:494
3.992:496
3.993:493
3.995:485
3.995:483
3.995:479
3.996:476
3.996:483
3.996:495
3.996:494
3.996:498
3.997:508
3.997:511
3.999:512
3.999:504
3.999:492
4.015:492
4.015:485
4.016:481
4.017:473
4.017:465
4.017:467
4.017:465
4.020:465
4.020:467
4.020:471
4.020:475
4.020:466
4.021:462
4.021:471
4.021:468
4.021:467
4.024:463
4.024:461
4.024:458
4.025:461
4.025:459
4.025:453
4.025:445
4.025:446
4.025:446
4.025:449
4.027:447
4.027:441
4.027:437
4.028:437
4.044:441
4.044:439
4.044:431
4.047:423
4.049:420
4.050:420
4.050:420
4.050:414
4.050:412
4.050:404
4.050:404
4.051:433
4.051:443
4.053:446
4.053:443
4.053:438
4.053:435
4.053:434
4.053:434
4.054:441
4.054:440
4.054:423
4.057:429
4.057:438
4.057:438
4.058:423
4.058:420
4.058:437
4.058:434
4.058:445
4.073:445
4.073:455
4.077:458
4.077:454
4.077:455
4.077:454
4.078:455
4.078:457
4.078:455
4.078:451
4.079:452
4.079:457
4.081:463
4.082:464
4.082:466
4.083:466
4.083:467
4.083:477
4.083:484
4.083:497
4.084:503
4.084:506
4.085:506
4.085:503
4.085:505
4.085:512
4.086:515
4.086:524
4.086:533
4.086:534
4.105:533
4.105:530
4.106:536
4.106:538
4.106:539
4.106:536
4.106:538
4.107:545
4.107:554
4.110:561
4.110:564
4.110:564
4.110:570
4.111:575
4.111:582
4.111:593
4.111:599
4.111:593
4.114:588
4.114:579
4.114:582
4.114:594
4.115:605
4.115:604
4.115:596
4.117:603
4.117:604
4.117:605
4.118:602
4.118:599
4.134:599
4.135:599
4.135:600
4.135:608
4.135:611
4.135:608
4.135:601
4.135:602
4.138:609
4.138:607
4.139:603
4.139:609
4.139:604
4.139:608
4.139:609
4.140:608
4.140:604
4.143:598
4.143:590
4.143:578
4.143:593
4.144:605
4.144:602
4.144:600
4.144:595
4.144:594
4.145:606
4.146:607
4.146:605
4.146:599
4.163:594
4.163:594
4.163:592
4.163:582
4.163:574
4.167:557
4.167:562
4.167:588
4.168:606
4.168:614
4.168:609
4.168:602
4.169:601
4.169:597
4.171:589
4.171:586
4.171:587
4.171:587
4.172:584
4.172:581
4.172:572
4.172:559
4.172:572
4.173:574
4.175:572
4.175:572
4.176:572
4.176:573
4.176:571
4.176:567
4.191:567
4.192:562
4.192:562
4.192:561
4.196:563
4.196:570
4.196:578
4.196:575
4.197:572
4.197:563
4.197:561
4.197:559
4.198:558
4.199:556
4.199:547
4.199:538
4.200:531
4.200:539
4.200:549
4.200:550
4.201:550
4.201:548
4.201:545
4.204:547
4.204:552
4.204:558
4.205:563
4.205:558
4.205:557
4.205:557
4.219:547
4.224:536
4.224:532
4.224:527
4.224:525
4.224:529
4.224:529
4.225:525
4.225:526
4.225:526
4.228:525
4.228:533
4.228:540
4.228:537
4.229:537
4.229:540
4.229:543
4.229:544
4.229:550
4.230:550
4.233:539
4.233:526
4.233:521
4.233:517
4.234:511
4.234:503
4.234:506
4.234:511
4.234:515
4.236:529
4.253:529
4.253:528
4.253:522
4.254:519
4.254:516
4.254:525
4.254:536
4.254:534
4.254:525
4.257:522
4.257:524
4.257:520
4.257:517
4.258:510
4.258:504
4.258:495
4.258:492
4.258:486
4.259:494
4.261:487
4.261:488
4.261:501
4.262:486
4.262:494
4.262:516
4.262:536
4.262:540
4.262:537
4.265:541
4.265:543
4.282:529
4.282:519
4.283:530
4.283:529
4.283:530
4.283:518
4.285:509
4.285:511
4.286:512
4.286:505
4.286:501
4.286:506
4.287:518
4.287:525
4.287:526
4.287:530
4.290:526
4.290:528
4.290:523
4.290:525
4.291:532
4.291:530
4.291:524
4.291:510
4.291:491
4.294:480
4.294:487
4.294:495
4.294:501
4.295:503
4.309:503
4.310:492
4.310:484
4.310:500
4.310:517
4.315:525
4.315:539
4.315:537
4.315:530
4.315:511
4.315:525
4.316:537
4.316:527
4.316:528
4.316:533
4.318:532
4.318:514
4.318:511
4.319:509
4.319:511
4.319:510
4.319:509
4.320:512
4.320:516
4.323:520
4.323:524
4.323:533
4.323:533
4.324:529
4.324:524
4.338:514
4.339:509
4.343:507
4.343:501
4.343:497
4.343:495
4.344:495
4.344:504
4.344:507
4.344:511
4.344:513
4.345:522
4.347:525
4.347:518
4.347:497
4.348:518
4.348:539
4.348:526
4.349:520
4.349:514
4.349:521
4.351:523
4.351:520
4.351:509
4.351:508
4.352:505
4.352:494
4.352:482
4.352:480
4.352:507
4.367:507
4.372:516
4.372:506
4.372:504
4.372:517
4.373:519
4.373:512
4.373:505
4.373:497
4.373:490
4.374:493
4.375:503
4.375:504
4.375:497
4.376:479
4.376:475
4.376:494
4.376:492
4.376:488
4.376:476
4.380:467
4.380:463
4.380:463
4.380:458
4.381:455
4.381:457
4.381:469
4.382:487
4.382:503
4.382:509
4.400:502
4.400:498
4.401:478
4.401:477
4.401:487
4.401:479
4.401:475
4.405:466
4.405:464
4.405:468
4.405:479
4.405:483
4.405:486
4.406:490
4.406:489
4.406:491
4.406:493
4.409:502
4.409:503
4.409:499
4.409:494
4.410:474
4.410:485
4.410:497
4.410:503
4.410:514
4.411:511
4.413:517
4.413:540
4.413:550
4.429:550
4.429:554
4.429:550
4.429:546
4.430:539
4.430:540
4.430:541
4.433:542
4.433:546
4.433:543
4.434:543
4.434:537
4.434:544
4.434:545
4.434:546
4.435:541
4.437:539
4.437:540
4.437:533
4.438:524
4.438:517
4.438:524
4.438:526
4.439:522
4.439:533
4.439:554
4.441:556
4.441:570
4.441:578
4.441:551
4.457:532
4.457:549
4.457:559
4.462:554
4.462:540
4.462:526
4.462:525
4.463:529
4.463:529
4.463:536
4.463:531
4.463:527
4.464:545
4.465:563
4.467:559
4.467:553
4.467:546
4.467:543
4.467:550
4.468:545
4.468:564
4.468:567
4.470:559
4.470:564
4.470:569
4.470:559
4.471:551
4.471:533
4.471:524
4.471:526
4.486:526
4.486:530
4.491:539
4.491:536
4.491:530
4.491:530
4.492:534
4.492:537
4.492:532
4.492:535
4.492:536
4.493:541
4.495:537
4.495:535
4.495:530
4.495:527
4.495:525
4.496:514
4.496:513
4.496:512
4.496:509
4.496:493
4.499:493
4.499:528
4.499:546
4.499:552
4.499:551
4.500:543
4.500:542
4.500:543
4.519:532
4.519:532
4.519:537
4.519:542
4.519:539
4.520:532
4.520:522
4.520:513
4.520:517
4.523:535
4.523:546
4.523:537
4.523:537
4.524:537
4.524:529
4.524:506
4.524:486
4.524:459
4.527:444
4.527:435
4.527:422
4.527:398
4.528:357
4.528:338
4.528:299
4.528:253
4.529:199
4.529:173
4.532:134
4.533:66
4.548:66
4.549:17
4.549:17
4.549:17
4.549:17
4.549:17
4.549:18
4.550:17
4.550:18
4.550:18
4.552:18
4.552:19
4.552:19
4.552:19
4.553:18
4.553:18
4.553:18
4.553:17
4.553:17
4.553:26
4.554:112
4.554:207
4.555:319
4.555:432
4.556:539
4.556:623
4.556:691
4.556:743
4.556:763
4.556:763
4.576:751
4.576:725
4.576:709
4.576:691
4.577:673
4.580:659
4.580:655
4.580:645
4.581:641
4.581:631
4.581:624
4.582:628
4.582:639
4.582:634
4.585:613
4.585:597
4.585:596
4.585:604
4.585:606
4.586:602
4.586:596
4.586:594
4.586:600
4.586:594
4.589:587
4.589:580
4.589:575
4.590:573
4.590:572
4.590:575
4.605:575
4.605:574
4.605:580
4.605:581
4.609:584
4.609:585
4.609:592
4.609:598
4.610:597
4.610:589
4.610:581
4.610:576
4.610:571
4.613:567
4.613:560
4.613:559
4.614:568
4.614:575
4.614:576
4.614:587
4.616:592
4.616:588
4.616:584
4.617:580
4.617:583
4.617:580
4.617:582
4.617:583
4.618:585
4.618:587
4.633:587
4.638:585
4.638:580
4.638:581
4.638:584
4.639:583
4.639:577
4.639:563
4.639:552
4.639:553
4.642:549
4.642:537
4.642:536
4.642:535
4.643:536
4.643:536
4.643:534
4.643:535
4.643:540
4.644:543
4.646:547
4.646:552
4.647:541
4.647:548
4.647:551
4.647:553
4.647:547
4.648:542
4.648:535
4.650:527
4.667:527
4.667:521
4.667:517
4.667:513
4.667:501
4.668:494
4.668:496
4.668:499
4.668:500
4.671:501
4.671:500
4.671:518
4.671:505
4.672:539
4.672:563
4.672:541
4.672:517
4.672:505
4.673:496
4.675:490
4.675:489
4.675:480
4.676:502
4.676:541
4.676:535
4.676:517
4.677:501
4.678:490
4.678:477
4.679:467
4.695:472
4.695:508
4.695:528
4.695:526
4.695:519
4.696:508
4.699:502
4.699:498
4.699:499
4.699:493
4.699:491
4.700:489
4.700:480
4.700:474
4.700:473
4.700:473
4.703:468
4.703:468
4.703:472
4.703:471
4.703:468
4.704:475
4.704:477
4.704:477
4.704:494
4.707:495
4.707:474
4.707:472
4.707:474
4.708:441
4.723:441
4.723:449
4.723:469
4.724:460
4.724:453
4.727:450
4.728:446
4.728:442
4.728:440
4.728:444
4.728:449
4.728:449
4.729:447
4.729:444
4.729:446
4.732:444
4.732:442
4.732:440
4.732:434
4.732:426
4.732:419
4.733:421
4.733:420
4.733:412
4.736:405
4.736:400
4.736:421
4.736:427
4.737:420
4.737:417
4.752:415
4.752:417
4.757:419
4.757:423
4.757:419
4.758:414
4.758:421
4.758:429
4.758:419
4.758:421
4.759:438
4.761:433
4.761:423
4.761:421
4.761:429
4.762:434
4.762:432
4.762:424
4.762:420
4.762:415
4.763:417
4.765:422
4.766:432
4.766:440
4.766:432
4.766:426
4.766:433
4.766:445
4.767:448
4.767:446
4.781:446
4.785:437
4.785:440
4.785:445
4.785:458
4.786:452
4.786:471
4.786:488
4.786:487
4.786:487
4.787:497
4.789:510
4.789:501
4.789:494
4.789:496
4.789:490
4.790:509
4.790:531
4.790:542
4.790:527
4.794:533
4.794:539
4.794:543
4.794:548
4.795:558
4.795:566
4.795:559
4.795:533
4.795:537
4.795:555
4.814:571
4.814:573
4.814:581
4.814:590
4.815:579
4.815:584
4.815:605
4.818:604
4.818:590
4.818:591
4.818:589
4.819:588
4.819:590
4.819:600
4.819:602
4.819:598
4.819:590
4.822:582
4.822:591
4.822:596
4.823:587
4.823:598
4.823:625
4.823:637
4.823:650
4.823:659
4.826:653
4.826:639
4.826:637
4.826:633
4.842:633
4.842:623
4.842:612
4.843:607
4.843:610
4.843:610
4.846:608
4.847:609
4.848:611
4.848:617
4.848:611
4.848:606
4.848:600
4.848:594
4.849:597
4.849:603
4.851:607
4.851:607
4.851:607
4.851:595
4.852:591
4.852:621
4.852:613
4.852:610
4.852:590
4.853:579
4.855:589
4.855:588
4.855:578
4.855:575
4.871:577
4.871:584
4.871:587
4.875:584
4.875:587
4.876:587
4.876:585
4.877:583
4.877:583
4.877:577
4.877:583
4.877:592
4.877:606
4.880:614
4.880:600
4.880:590
4.880:585
4.880:585
4.880:582
4.881:579
4.881:570
4.881:563
4.883:576
4.883:585
4.883:584
4.883:580
4.884:574
4.884:566
4.884:569
4.884:562
4.900:562
4.900:563
4.904:555
4.904:548
4.904:545
4.904:544
4.905:540
4.905:551
4.905:564
4.905:566
4.905:557
4.906:551
4.908:550
4.908:553
4.908:558
4.908:567
4.909:567
4.909:567
4.909:562
4.909:558
4.909:546
4.912:541
4.912:538
4.912:536
4.912:535
4.913:525
4.913:521
4.913:505
4.913:497
4.913:504
4.933:523
4.933:526
4.933:528
4.933:524
4.933:526
4.933:533
4.934:525
4.934:519
4.934:513
4.937:516
4.937:516
4.937:513
4.937:509
4.938:503
4.938:459
4.938:512
4.938:561
4.938:559
4.941:554
4.941:545
4.941:538
4.941:535
4.942:533
4.942:531
4.942:530
4.942:533
4.942:527
4.943:527
4.945:522
4.945:519
4.961:519
4.962:515
4.962:515
4.962:518
4.962:528
4.962:527
4.962:516
4.963:510
4.966:506
4.966:510
4.966:501
4.966:497
4.966:503
4.966:512
4.966:515
4.967:515
4.967:514
4.970:513
4.970:510
4.970:506
4.970:504
4.970:503
4.970:503
4.970:505
4.971:513
4.971:520
4.971:516
4.973:513
4.973:508
4.973:512
4.990:512
4.990:510
4.990:509
4.990:509
4.990:500
4.994:494
4.994:494
4.994:501
4.994:517
4.994:523
4.995:530
4.995:536
4.995:537
4.995:534
4.998:534
4.998:526
4.998:516
5.000:515
5.000:509
5.000:513
5.000:515
5.000:515
5.001:507
5.001:515
5.002:511
5.002:508
5.003:514
5.003:514
5.003:519
5.003:511
5.018:511
5.018:498
5.018:489
5.019:486
5.022:484
5.022:497
5.023:505
5.023:503
5.023:499
5.023:494
5.023:494
5.023:478
5.024:478
5.027:487
5.027:493
5.027:505
5.028:510
5.028:514
5.028:515
5.028:514
5.028:507
5.028:504
5.029:502
5.031:498
5.033:497
5.033:500
5.033:504
5.033:496
5.033:483
5.034:495
5.047:498
5.051:490
5.051:479
5.051:475
5.051:476
5.052:476
5.052:476
5.052:484
5.052:491
5.052:496
5.056:489
5.056:467
5.056:453
5.056:478
5.056:470
5.057:470
5.057:467
5.057:469
5.057:481
5.057:483
5.059:476
5.060:464
5.060:463
5.060:475
5.060:484
5.060:475
5.061:468
5.061:482
5.061:480
5.063:482
5.080:482
5.080:488
5.080:497
5.080:499
5.082:488
5.082:477
5.082:477
5.082:482
5.082:481
5.084:480
5.084:478
5.084:474
5.084:477
5.085:478
5.085:500
5.085:515
5.085:521
5.085:532
5.086:550
5.088:557
5.088:554
5.088:551
5.088:546
5.089:527
5.089:534
5.089:542
5.089:535
5.089:522
5.092:518
5.092:530
5.109:525
5.109:523
5.109:526
5.109:530
5.109:527
5.109:519
5.113:515
5.113:512
5.113:515
5.113:518
5.115:516
5.115:513
5.115:510
5.115:512
5.115:515
5.115:515
5.117:514
5.117:513
5.118:511
5.118:515
5.118:518
5.118:520
5.118:511
5.119:504
5.119:500
5.121:490
5.121:477
5.121:491
5.121:509
5.122:516
5.137:516
5.137:550
5.137:545
5.137:530
5.137:513
5.142:525
5.142:536
5.142:533
5.142:521
5.143:499
5.143:512
5.143:544
5.143:550
5.144:542
5.144:536
5.145:524
5.145:514
5.145:508
5.146:508
5.146:511
5.146:517
5.146:526
5.146:530
5.146:527
5.150:525
5.150:522
5.150:511
5.150:523
5.151:528
5.151:519
5.165:510
5.166:506
5.170:511
5.170:519
5.170:522
5.170:521
5.170:521
5.172:523
5.172:524
5.172:522
5.172:514
5.174:507
5.174:504
5.174:509
5.174:515
5.175:518
5.175:518
5.175:507
5.175:495
5.175:492
5.175:481
5.178:485
5.178:504
5.178:532
5.178:545
5.179:544
5.179:548
5.179:550
5.179:532
5.179:527
5.194:527
5.198:527
5.198:512
5.198:500
5.199:491
5.199:473
5.199:453
5.199:437
5.200:428
5.200:413
5.200:382
5.202:355
5.202:327
5.203:294
5.203:258
5.203:220
5.203:183
5.203:141
5.203:84
5.204:17
5.204:17
5.206:17
5.206:17
5.206:17
5.206:18
5.206:18
5.206:18
5.206:18
5.206:18
5.206:18
5.227:18
5.227:18
5.227:18
5.227:18
5.227:17
5.227:17
5.227:17
5.227:53
5.227:131
5.231:210
5.231:286
5.232:390
5.232:507
5.232:599
5.232:649
5.232:682
5.232:700
5.233:690
5.233:663
5.235:633
5.235:623
5.235:611
5.236:608
5.236:605
5.236:604
5.236:592
5.236:572
5.236:549
5.240:558
5.240:578
5.255:578
5.256:574
5.256:585
5.256:568
5.257:575
5.257:608
5.260:604
5.260:587
5.260:578
5.260:568
5.261:556
5.261:547
5.261:549
5.261:559
5.261:567
5.262:569
5.264:568
5.265:567
5.265:571
5.265:575
5.265:577
5.265:579
5.266:576
5.266:578
5.266:579
5.266:584
5.268:586
5.268:591
5.268:593
5.268:593
5.284:594
5.284:593
5.284:588
5.289:582
5.289:575
5.289:571
5.289:569
5.290:570
5.290:572
5.290:571
5.290:568
5.290:566
5.291:563
5.293:559
5.293:553
5.293:547
5.293:549
5.294:558
5.294:562
5.294:560
5.294:555
5.294:555
5.297:546
5.297:550
5.298:557
5.298:547
5.298:542
5.298:543
5.298:550
5.298:552
5.313:552
5.313:549
5.317:549
5.317:548
5.317:536
5.317:540
5.317:545
5.317:544
5.318:538
5.318:534
5.318:548
5.318:543
5.322:526
5.322:520
5.322:502
5.322:532
5.323:546
5.323:548
5.323:540
5.323:523
5.323:519
5.326:520
5.326:522
5.326:522
5.326:535
5.326:530
5.327:518
5.327:514
5.327:515
5.327:508
5.346:501
5.347:502
5.347:516
5.347:518
5.347:506
5.347:508
5.348:515
5.348:508
5.348:501
5.350:491
5.350:482
5.350:473
5.350:476
5.351:467
5.351:485
5.351:512
5.351:523
5.351:514
5.355:504
5.355:502
5.355:501
5.355:500
5.355:503
5.355:500
5.356:492
5.356:485
5.356:480
5.356:483
5.358:490
5.358:492
5.374:492
5.374:487
5.375:494
5.375:498
5.375:488
5.375:476
5.375:466
5.375:459
5.379:457
5.379:468
5.379:482
5.379:480
5.380:477
5.380:473
5.382:473
5.382:470
5.382:455
5.383:461
5.383:465
5.383:463
5.383:464
5.384:463
5.384:464
5.384:464
5.384:457
5.384:453
5.385:452
5.387:441
5.387:442
5.387:453
5.404:447
5.404:457
5.404:455
5.404:442
5.404:435
5.407:439
5.407:450
5.407:445
5.408:441
5.408:440
5.408:444
5.408:441
5.408:440
5.409:441
5.412:443
5.412:441
5.412:434
5.412:430
5.413:433
5.413:431
5.413:430
5.413:432
5.413:434
5.414:432
5.415:424
5.415:421
5.415:421
5.415:416
5.417:409
5.417:415
5.432:415
5.432:419
5.432:415
5.433:407
5.436:400
5.436:425
5.436:444
5.436:444
5.437:443
5.437:444
5.437:450
5.437:455
5.437:459
5.441:461
5.441:464
5.441:465
5.441:455
5.442:458
5.442:464
5.442:460
5.442:456
5.442:453
5.443:460
5.445:483
5.445:499
5.445:500
5.445:497
5.445:495
5.445:493
5.446:497
5.464:500
5.465:501
5.465:502
5.465:501
5.465:498
5.465:502
5.465:505
5.465:508
5.465:512
5.466:516
5.469:522
5.469:525
5.469:531
5.469:539
5.470:546
5.470:550
5.470:547
5.470:539
5.470:538
5.471:547
5.473:549
5.473:548
5.473:547
5.473:547
5.474:551
5.474:553
5.474:559
5.474:559
5.474:560
5.477:565
5.493:565
5.494:568
5.494:566
5.494:564
5.494:557
5.494:568
5.495:608
5.495:605
5.495:600
5.497:594
5.497:585
5.499:578
5.499:580
5.499:583
5.499:580
5.499:579
5.499:584
5.499:589
5.499:589
5.502:588
5.502:588
5.502:589
5.502:587
5.503:587
5.503:588
5.503:588
5.503:587
5.503:585
5.506:584
5.506:580
5.522:575
5.523:590
5.523:586
5.523:571
5.523:561
5.523:573
5.526:576
5.526:571
5.526:567
5.526:563
5.526:568
5.527:581
5.527:587
5.527:584
5.527:582
5.530:574
5.531:566
5.531:562
5.531:560
5.531:550
5.532:548
5.532:552
5.532:551
5.532:557
5.532:571
5.535:576
5.535:569
5.535:560
5.535:558
5.535:566
5.551:566
5.551:575
5.551:577
5.551:576
5.551:577
5.555:578
5.555:578
5.555:578
5.556:574
5.556:567
5.556:563
5.556:564
5.556:557
5.557:549
5.557:546
5.559:550
5.559:566
5.559:573
5.559:567
5.560:555
5.560:546
5.560:542
5.560:532
5.560:517
5.563:501
5.563:511
5.563:540
5.563:559
5.565:560
5.565:555
5.579:547
5.579:541
5.584:536
5.584:530
5.584:518
5.585:509
5.585:517
5.585:503
5.585:520
5.585:524
5.585:535
5.587:555
5.587:553
5.588:543
5.588:544
5.588:550
5.588:550
5.588:542
5.589:536
5.589:531
5.589:521
5.592:513
5.592:517
5.592:521
5.592:520
5.593:514
5.593:514
5.593:512
5.593:513
5.593:513
5.607:513
5.613:514
5.613:512
5.613:511
5.614:514
5.615:518
5.615:522
5.615:517
5.615:516
5.615:517
5.616:517
5.616:512
5.616:504
5.616:494
5.618:487
5.618:483
5.618:476
5.618:480
5.618:481
5.619:483
5.621:494
5.621:506
5.621:509
5.622:507
5.622:506
5.622:515
5.622:519
5.622:518
5.622:520
5.623:505
5.641:494
5.641:488
5.641:498
5.641:498
5.642:497
5.642:498
5.642:498
5.645:501
5.645:504
5.645:512
5.646:514
5.646:514
5.646:514
5.646:511
5.647:513
5.647:509
5.647:506
5.649:505
5.649:499
5.649:488
5.649:497
5.650:494
5.650:496
5.650:497
5.650:492
5.650:496
5.653:495
5.653:500
5.653:493
5.653:483
5.670:483
5.670:489
5.670:498
5.670:505
5.671:514
5.671:509
5.674:502
5.674:481
5.674:491
5.674:499
5.675:495
5.675:492
5.675:492
5.675:494
5.675:493
5.675:487
5.678:485
5.678:486
5.678:486
5.678:478
5.679:468
5.679:476
5.679:483
5.679:483
5.679:480
5.682:471
5.682:482
5.682:504
5.682:501
5.682:495
5.698:514
5.698:513
5.698:505
5.703:500
5.703:492
5.703:486
5.703:484
5.704:484
5.704:498
5.704:499
5.704:496
5.704:494
5.705:493
5.706:484
5.706:489
5.706:494
5.707:486
5.707:478
5.707:471
5.707:480
5.707:495
5.707:497
5.711:490
5.711:472
5.711:456
5.711:482
5.712:497
5.712:492
5.712:472
5.712:451
5.726:451
5.726:461
5.730:461
5.731:460
5.731:464
5.731:466
5.731:468
5.731:478
5.733:480
5.733:473
5.733:467
5.733:468
5.735:476
5.735:475
5.736:474
5.736:472
5.736:472
5.736:463
5.736:454
5.737:449
5.737:444
5.739:445
5.740:457
5.740:472
5.740:496
5.740:492
5.741:485
5.741:479
5.741:476
5.741:474
5.759:480
5.759:485
5.759:485
5.759:484
5.760:487
5.760:486
5.760:490
5.760:502
5.760:497
5.764:503
5.764:505
5.764:511
5.764:514
5.764:515
5.764:513
5.764:514
5.764:506
5.765:499
5.768:518
5.768:522
5.768:512
5.768:515
5.768:512
5.768:525
5.769:536
5.769:526
5.769:514
5.770:518
5.772:511
5.772:505
5.788:505
5.789:527
5.789:544
5.789:541
5.789:535
5.789:526
5.789:522
5.790:522
5.793:517
5.793:513
5.793:520
5.793:534
5.794:543
5.794:545
5.794:539
5.794:518
5.794:499
5.796:507
5.796:515
5.796:518
5.798:501
5.798:522
5.798:540
5.798:538
5.798:531
5.799:529
5.799:529
5.801:526
5.801:525
5.801:527
5.817:526
5.817:521
5.817:516
5.817:516
5.821:518
5.821:518
5.821:515
5.821:516
5.822:516
5.822:513
5.822:509
5.822:508
5.822:513
5.823:520
5.825:526
5.826:529
5.826:528
5.826:528
5.826:526
5.826:525
5.827:525
5.827:525
5.827:522
5.827:519
5.829:516
5.829:515
5.829:512
5.829:515
5.829:514
5.831:512
5.845:512
5.845:515
5.845:519
5.846:524
5.850:520
5.850:524
5.850:525
5.850:522
5.851:512
5.851:493
5.851:512
5.851:528
5.851:531
5.854:530
5.854:522
5.854:517
5.854:521
5.855:527
5.855:527
5.855:533
5.855:535
5.855:538
5.856:538
5.858:517
5.858:501
5.858:492
5.859:468
5.859:445
5.859:439
5.859:446
5.878:430
5.879:408
5.879:383
5.879:353
5.879:310
5.879:257
5.879:209
5.880:164
5.880:115
5.880:63
5.882:17
5.883:17
5.883:17
5.883:17
5.883:17
5.884:18
5.884:18
5.884:18
5.884:19
5.884:19
5.884:19
5.884:19
5.887:19
5.887:19
5.887:18
5.887:18
5.887:18
5.887:17
5.887:17
5.888:67
5.907:67
5.907:154
5.907:240
5.907:340
5.907:457
5.908:552
5.908:620
5.908:667
5.908:691
5.911:688
5.911:672
5.911:652
5.911:632
5.912:615
5.912:600
5.912:591
5.912:586
5.914:586
5.914:588
5.915:587
5.915:581
5.916:569
5.916:569
5.916:568
5.916:589
5.916:605
5.917:606
5.917:603
5.919:601
5.919:602
5.935:601
5.936:604
5.936:603
5.936:596
5.937:611
5.937:619
5.940:615
5.940:607
5.940:598
5.940:588
5.941:580
5.941:589
5.941:592
5.941:598
5.941:607
5.944:610
5.944:604
5.945:613
5.945:621
5.945:619
5.946:619
5.946:623
5.946:613
5.948:593
5.948:604
5.948:616
5.948:606
5.948:597
5.948:591
5.949:591
5.965:591
5.965:592
5.965:592
5.965:587
5.965:578
5.968:572
5.969:570
5.969:555
5.969:558
5.969:567
5.969:569
5.970:581
5.970:590
5.970:588
5.970:593
5.972:592
5.972:592
5.973:591
5.973:589
5.973:581
5.973:577
5.973:571
5.973:565
5.974:563
5.977:558
5.977:558
5.977:558
5.977:554
5.977:551
5.977:550
5.993:546
5.993:557
5.997:562
5.998:562
5.998:561
5.998:555
5.998:552
5.998:549
5.999:547
5.999:545
5.999:544
6.002:533
6.002:520
6.002:530
6.002:533
6.003:531
6.003:527
6.003:522
6.003:521
6.003:526
6.004:524
6.006:525
6.006:530
6.006:534
6.006:529
6.006:528
6.007:525
6.007:516
6.007:509
6.007:505
6.021:505
6.026:503
6.026:496
6.026:495
6.026:513
6.027:518
6.027:516
6.027:515
6.027:512
6.027:505
6.030:502
6.030:501
6.031:496
6.031:493
6.031:506
6.031:507
6.032:507
6.032:504
6.032:506
6.032:500
6.034:495
6.034:489
6.034:494
6.034:492
6.035:478
6.035:474
6.035:483
6.035:481
6.035:476
6.036:477
6.055:476
6.055:473
6.055:469
6.055:472
6.055:473
6.055:468
6.055:458
6.059:446
6.059:424
6.059:412
6.059:444
6.060:478
6.060:494
6.060:487
6.060:482
6.060:487
6.061:488
6.063:483
6.064:473
6.064:469
6.064:469
6.064:468
6.065:463
6.065:462
6.065:461
6.065:457
6.067:452
6.067:448
6.067:445
6.068:443
6.083:443
6.084:442
6.084:442
6.084:441
6.084:437
6.084:436
6.087:431
6.087:430
6.087:436
6.087:434
6.087:433
6.087:434
6.087:431
6.089:430
6.089:428
6.089:425
6.092:426
6.092:428
6.092:427
6.093:423
6.093:438
6.093:434
6.093:431
6.093:427
6.094:423
6.096:420
6.096:419
6.096:420
6.097:424
6.097:426
6.111:429
6.111:438
6.111:445
6.116:450
6.116:450
6.116:446
6.116:442
6.117:426
6.117:432
6.117:443
6.117:455
6.117:454
6.117:447
6.120:435
6.120:438
6.120:457
6.120:478
6.120:474
6.121:489
6.121:499
6.121:500
6.121:498
6.124:496
6.124:501
6.124:506
6.124:509
6.125:510
6.125:510
6.125:504
6.125:505
6.140:505
6.140:508
6.145:514
6.145:522
6.145:524
6.145:527
6.145:526
6.146:529
6.146:537
6.147:541
6.147:542
6.147:532
6.149:508
6.149:485
6.149:498
6.150:541
6.150:584
6.150:601
6.150:591
6.150:582
6.150:576
6.153:574
6.153:573
6.153:574
6.153:573
6.154:574
6.154:569
6.154:560
6.154:554
6.154:556
6.174:563
6.174:551
6.174:578
6.174:596
6.174:587
6.174:582
6.175:583
6.175:576
6.175:570
6.177:570
6.177:571
6.177:571
6.177:573
6.178:580
6.178:581
6.178:576
6.178:570
6.178:569
6.182:570
6.182:572
6.182:571
6.182:568
6.183:581
6.183:588
6.183:588
6.183:572
6.183:566
6.184:570
6.185:567
6.185:567
6.202:567
6.202:564
6.202:562
6.203:553
6.203:542
6.203:528
6.203:524
6.203:511
6.206:542
6.206:567
6.206:573
6.206:581
6.206:576
6.207:563
6.207:558
6.207:564
6.207:571
6.210:566
6.210:556
6.210:548
6.210:548
6.211:549
6.211:544
6.211:557
6.211:564
6.211:559
6.212:552
6.214:544
6.214:543
6.214:536
6.230:554
6.230:574
6.230:566
6.230:553
6.235:547
6.235:547
6.235:541
6.235:533
6.236:526
6.236:522
6.236:508
6.236:509
6.236:547
6.236:558
6.239:553
6.239:539
6.239:531
6.239:518
6.239:511
6.240:506
6.240:504
6.240:496
6.240:499
6.243:505
6.243:511
6.243:529
6.243:550
6.244:551
6.244:533
6.244:528
6.259:528
6.259:539
6.259:509
6.259:514
6.263:551
6.263:543
6.263:530
6.263:533
6.263:526
6.263:517
6.263:511
6.263:507
6.263:498
6.267:484
6.267:494
6.267:527
6.267:536
6.267:522
6.267:505
6.268:468
6.268:461
6.268:496
6.268:515
6.271:533
6.271:519
6.271:506
6.271:519
6.272:524
6.272:500
6.272:482
6.292:503
6.292:523
6.292:525
6.292:519
6.293:513
6.293:507
6.293:509
6.293:507
6.293:504
6.293:499
6.296:510
6.297:514
6.297:504
6.298:508
6.298:515
6.298:513
6.298:501
6.298:492
6.299:500
6.300:493
6.300:505
6.301:510
6.301:506
6.301:502
6.301:497
6.301:494
6.302:495
6.302:491
6.302:493
6.304:497
6.321:497
6.321:499
6.321:499
6.321:496
6.322:491
6.322:492
6.322:487
6.322:481
6.322:486
6.325:486
6.325:485
6.325:482
6.325:480
6.326:482
6.326:483
6.326:480
6.326:489
6.327:490
6.327:478
6.329:474
6.329:478
6.329:488
6.329:496
6.330:497
6.330:492
6.330:486
6.330:488
6.330:485
6.333:482
6.333:483
6.349:484
6.349:482
6.349:477
6.349:473
6.349:475
6.350:473
6.354:467
6.354:468
6.354:464
6.354:475
6.355:485
6.355:489
6.355:488
6.355:482
6.355:477
6.357:473
6.357:472
6.357:469
6.358:470
6.358:473
6.358:474
6.358:471
6.358:467
6.359:468
6.359:475
6.362:459
6.362:469
6.362:500
6.362:493
6.363:482
6.377:482
6.378:473
6.378:471
6.378:472
6.378:480
6.382:488
6.382:486
6.382:478
6.382:469
6.383:459
6.383:451
6.383:465
6.383:467
6.383:470
6.386:462
6.386:479
6.386:488
6.387:485
6.387:492
6.387:491
6.387:482
6.387:479
6.387:478
6.387:473
6.390:480
6.390:494
6.390:494
6.390:487
6.391:469
6.391:460
6.407:443
6.407:444
6.411:459
6.411:461
6.411:457
6.411:453
6.411:449
6.412:442
6.412:437
6.412:442
6.412:447
6.415:451
6.415:454
6.415:441
6.416:427
6.416:417
6.416:417
6.416:420
6.416:419
6.416:431
6.417:434
6.419:432
6.419:424
6.419:417
6.419:423
6.420:431
6.420:445
6.420:447
6.420:457
6.421:452
6.434:452
6.439:452
6.439:458
6.439:451
6.439:419
6.440:450
6.440:482
6.440:471
6.440:465
6.440:459
6.444:461
6.444:464
6.444:464
6.444:463
6.445:466
6.445:469
6.445:474
6.445:478
6.445:483
6.445:486
6.448:491
6.449:496
6.449:498
6.449:498
6.449:495
6.449:495
6.450:492
6.450:490
6.450:494
6.451:488
6.468:483
6.468:480
6.468:485
6.468:481
6.468:479
6.469:482
6.469:489
6.472:495
6.472:501
6.472:515
6.472:517
6.473:513
6.473:511
6.473:506
6.473:499
6.473:494
6.474:509
6.476:513
6.476:508
6.477:499
6.477:486
6.477:480
6.477:485
6.477:489
6.477:496
6.477:494
6.480:494
6.480:507
6.480:507
6.481:496
6.496:496
6.497:493
6.497:490
6.498:493
6.498:498
6.498:498
6.501:496
6.501:493
6.501:499
6.501:497
6.502:482
6.502:486
6.502:489
6.502:496
6.502:495
6.503:495
6.505:499
6.505:500
6.505:498
6.506:497
6.506:495
6.506:489
6.506:486
6.506:492
6.507:499
6.509:502
6.509:496
6.509:491
6.509:503
6.510:502
6.525:490
6.525:487
6.525:487
6.529:479
6.530:492
6.530:499
6.530:497
6.530:495
6.530:490
6.530:489
6.530:489
6.530:488
6.531:485
6.533:474
6.533:491
6.534:495
6.534:480
6.534:475
6.534:474
6.534:478
6.534:481
6.535:472
6.537:486
6.537:503
6.538:505
6.538:511
6.538:523
6.538:533
6.538:535
6.538:534
6.554:534
6.554:528
6.558:518
6.558:506
6.558:489
6.558:479
6.559:466
6.559:441
6.559:415
6.559:394
6.559:373
6.560:349
6.562:318
6.562:292
6.563:264
6.563:217
6.563:174
6.563:128
6.564:73
6.564:34
6.564:17
6.564:17
6.566:17
6.566:18
6.566:18
6.566:18
6.567:18
6.567:19
6.567:19
6.567:19
6.586:19
6.587:19
6.587:19
6.587:19
6.587:19
6.587:18
6.587:17
6.587:18
6.587:17
6.587:17
6.587:109
6.591:201
6.591:304
6.591:423
6.591:527
6.591:597
6.591:636
6.592:662
6.592:664
6.592:654
6.595:624
6.595:598
6.595:584
6.596:578
6.596:573
6.596:567
6.596:556
6.597:526
6.597:535
6.597:561
6.615:561
6.615:572
6.615:580
6.615:580
6.616:576
6.616:561
6.616:561
6.617:557
6.619:552
6.620:551
6.620:554
6.620:558
6.620:550
6.620:547
6.621:552
6.621:550
6.621:554
6.624:560
6.624:550
6.624:554
6.624:574
6.625:610
6.625:615
6.625:596
6.625:589
6.625:592
6.625:598
6.627:597
6.627:587
6.627:589
6.644:579
6.644:571
6.644:561
6.644:552
6.648:561
6.648:562
6.648:567
6.648:576
6.649:561
6.649:553
6.649:543
6.649:553
6.649:594
6.649:611
6.653:596
6.653:585
6.653:574
6.653:576
6.653:569
6.653:563
6.653:561
6.654:564
6.654:557
6.656:550
6.656:541
6.656:530
6.656:525
6.657:522
6.657:514
6.657:514
6.672:514
6.673:518
6.673:545
6.677:558
6.677:547
6.677:537
6.677:542
6.677:547
6.678:544
6.678:538
6.678:530
6.678:522
6.678:517
6.681:515
6.681:514
6.682:512
6.682:501
6.682:487
6.682:491
6.682:499
6.683:502
6.683:507
6.683:512
6.685:519
6.685:514
6.685:506
6.685:502
6.685:499
6.685:489
6.686:482
6.706:484
6.706:485
6.706:479
6.706:458
6.706:464
6.707:481
6.707:482
6.707:471
6.707:459
6.707:482
6.710:489
6.710:490
6.710:489
6.710:510
6.711:504
6.711:491
6.711:492
6.711:483
6.711:470
6.714:464
6.714:429
6.714:423
6.714:476
6.715:520
6.715:515
6.715:497
6.715:491
6.715:487
6.715:477
6.717:457
6.734:457
6.734:461
6.734:466
6.734:468
6.735:467
6.735:465
6.735:464
6.735:460
6.735:454
6.739:453
6.739:451
6.739:444
6.739:438
6.739:413
6.740:412
6.740:422
6.740:444
6.740:474
6.743:473
6.743:456
6.743:446
6.743:450
6.744:453
6.744:449
6.744:444
6.744:433
6.744:426
6.745:419
6.746:403
6.747:404
6.763:422
6.763:412
6.763:416
6.763:423
6.763:419
6.763:412
6.767:406
6.767:399
6.767:398
6.767:392
6.767:389
6.767:387
6.767:387
6.767:390
6.767:397
6.771:400
6.771:395
6.771:394
6.771:403
6.772:406
6.772:405
6.772:397
6.772:394
6.772:404
6.773:400
6.775:394
6.775:391
6.776:391
6.776:391
6.776:391
6.792:391
6.792:388
6.792:382
6.792:373
6.792:377
6.796:379
6.796:382
6.796:390
6.796:399
6.796:395
6.797:409
6.797:418
6.797:420
6.797:408
6.800:401
6.800:397
6.800:379
6.800:410
6.801:428
6.801:434
6.801:436
6.801:428
6.801:424
6.801:424
6.804:429
6.804:430
6.805:442
6.805:451
6.805:451
6.805:454
6.820:456
6.820:454
6.824:464
6.824:468
6.824:469
6.824:473
6.824:461
6.825:448
6.825:468
6.825:493
6.825:493
6.828:486
6.828:480
6.828:475
6.830:492
6.830:501
6.830:500
6.830:506
6.831:515
6.831:517
6.831:515
6.833:514
6.833:516
6.833:523
6.833:523
6.834:518
6.834:515
6.834:510
6.834:516
6.834:523
6.849:523
6.853:523
6.853:521
6.853:524
6.853:525
6.854:535
6.854:529
6.854:540
6.854:537
6.854:523
6.857:531
6.857:551
6.857:545
6.857:567
6.857:558
6.858:557
6.858:571
6.858:564
6.858:560
6.858:550
6.861:545
6.862:530
6.862:542
6.862:566
6.863:568
6.863:564
6.863:559
6.864:551
6.864:543
6.865:543
6.881:540
6.881:541
6.882:541
6.882:536
6.882:520
6.882:522
6.882:536
6.886:540
6.887:541
6.887:529
6.887:522
6.887:534
6.887:528
6.888:534
6.888:536
6.888:533
6.888:539
6.890:547
6.890:552
6.890:557
6.891:557
6.891:549
6.891:546
6.891:537
6.891:527
6.891:525
6.894:522
6.894:515
6.894:513
6.894:504
6.910:504
6.910:496
6.911:531
6.911:540
6.911:529
6.911:521
6.915:521
6.915:529
6.915:528
6.915:525
6.915:524
6.915:518
6.916:511
6.916:512
6.916:517
6.916:518
6.919:515
6.919:508
6.919:504
6.919:503
6.920:496
6.920:487
6.920:507
6.920:521
6.920:521
6.923:514
6.923:507
6.923:512
6.923:510
6.924:503
6.938:497
6.939:498
6.939:498
6.943:507
6.943:497
6.943:490
6.943:483
6.944:489
6.944:504
6.944:504
6.944:498
6.944:492
6.945:486
6.946:489
6.946:498
6.947:510
6.947:515
6.947:510
6.947:503
6.947:499
6.947:498
6.947:481
6.951:458
6.951:480
6.951:487
6.951:515
6.952:508
6.952:496
6.952:497
6.952:494
6.967:494
6.967:476
6.972:483
6.972:481
6.972:472
6.972:468
6.973:455
6.973:466
6.973:484
6.973:499
6.973:502
6.974:496
6.975:480
6.975:470
6.975:469
6.976:468
6.976:461
6.976:454
6.976:442
6.976:439
6.976:475
6.980:483
6.980:474
6.980:501
6.980:497
6.980:495
6.980:491
6.980:486
6.980:481
6.980:492
7.001:492
7.001:488
7.001:481
7.001:476
7.001:472
7.002:470
7.002:469
7.002:476
7.005:469
7.005:450
7.005:455
7.005:457
7.005:448
7.005:449
7.006:460
7.006:465
7.006:458
7.006:450
7.009:489
7.009:497
7.009:470
7.009:491
7.010:497
7.010:487
7.010:477
7.010:474
7.010:473
7.010:464
7.013:462
7.013:458
7.029:458
7.029:440
7.029:434
7.029:467
7.029:481
7.029:454
7.029:453
7.029:473
7.033:481
7.033:498
7.033:497
7.033:489
7.033:484
7.034:477
7.034:462
7.034:438
7.034:469
7.037:455
7.037:464
7.037:495
7.037:502
7.037:509
7.037:496
7.037:477
7.037:471
7.038:470
7.038:467
7.041:465
7.041:466
7.042:471
7.057:476
7.057:470
7.057:469
7.058:471
7.062:476
7.063:458
7.063:445
7.063:465
7.063:478
7.063:462
7.063:478
7.065:485
7.065:484
7.065:481
7.066:468
7.066:463
7.066:455
7.066:467
7.067:493
7.067:503
7.067:498
7.067:493
7.067:483
7.070:471
7.070:467
7.070:467
7.070:463
7.071:473
7.071:463
7.071:457
7.086:457
7.086:449
7.086:465
7.091:476
7.091:469
7.091:471
7.091:465
7.092:460
7.092:458
7.092:479
7.092:474
7.092:468
7.093:485
7.095:496
7.095:482
7.096:471
7.096:473
7.097:481
7.097:496
7.097:498
7.097:481
7.098:461
7.098:454
7.098:451
7.098:446
7.099:444
7.099:443
7.099:472
7.099:479
7.099:489
7.119:518
7.119:517
7.119:491
7.119:455
7.120:471
7.120:474
7.120:473
7.120:476
7.120:476
7.121:469
7.123:467
7.123:468
7.123:469
7.123:467
7.124:465
7.124:461
7.124:463
7.124:463
7.124:464
7.127:464
7.127:466
7.127:450
7.127:440
7.127:435
7.127:427
7.127:418
7.127:440
7.128:458
7.128:445
7.131:447
7.147:447
7.147:425
7.147:421
7.149:427
7.149:421
7.149:426
7.149:436
7.149:443
7.149:446
7.152:442
7.152:429
7.152:423
7.152:429
7.153:414
7.153:396
7.153:380
7.153:384
7.153:399
7.156:416
7.156:425
7.156:415
7.156:479
7.157:478
7.157:464
7.157:458
7.157:459
7.157:465
7.158:459
7.160:445
7.160:444
7.176:443
7.176:441
7.176:442
7.176:443
7.176:442
7.177:437
7.181:444
7.181:460
7.181:466
7.181:462
7.181:463
7.182:463
7.182:448
7.182:474
7.182:505
7.185:508
7.185:496
7.185:485
7.185:488
7.186:503
7.186:495
7.186:484
7.186:491
7.186:494
7.187:494
7.189:494
7.189:491
7.189:486
7.189:481
7.190:472
7.205:472
7.205:447
7.205:453
7.205:491
7.205:517
7.209:504
7.209:483
7.209:484
7.210:463
7.210:456
7.210:495
7.210:511
7.210:501
7.210:508
7.213:506
7.213:500
7.213:492
7.213:487
7.215:482
7.215:478
7.215:464
7.215:475
7.215:497
7.215:500
7.217:505
7.217:499
7.217:500
7.218:500
7.218:498
7.218:493
7.234:487
7.234:488
7.237:484
7.238:498
7.238:501
7.238:499
7.238:489
7.238:480
7.239:483
7.239:473
7.240:471
7.242:479
7.242:483
7.243:483
7.243:491
7.243:508
7.243:530
7.243:526
7.243:521
7.244:510
7.244:479
7.245:482
7.245:491
7.246:477
7.246:479
7.246:503
7.246:503
7.246:492
7.247:479
7.247:477
7.262:477
7.267:479
7.267:471
7.268:476
7.268:486
7.268:488
7.268:480
7.268:483
7.269:492
7.269:495
7.271:493
7.271:489
7.271:487
7.271:486
7.272:488
7.272:487
7.272:485
7.272:498
7.272:507
7.273:510
7.275:513
7.275:515
7.275:518
7.275:524
7.275:531
7.276:539
7.276:538
7.276:528
7.276:502
7.279:491
7.295:489
7.295:478
7.296:459
7.296:425
7.296:404
7.296:383
7.296:349
7.300:324
7.300:312
7.300:261
7.300:211
7.301:169
7.301:130
7.301:91
7.301:42
7.301:17
7.301:17
7.302:17
7.304:18
7.304:18
7.304:18
7.304:18
7.304:18
7.304:19
7.304:19
7.305:19
7.305:20
7.305:20
7.305:20
7.305:19
7.324:19
7.324:19
7.324:19
7.324:18
7.324:17
7.325:17
7.325:32
7.325:149
7.328:290
7.328:432
7.328:537
7.328:606
7.328:658
7.329:699
7.330:702
7.330:684
7.330:653
7.332:619
7.332:603
7.332:595
7.332:588
7.333:583
7.333:576
7.333:566
7.333:561
7.333:555
7.334:550
7.336:545
7.336:541
7.336:566
7.352:582
7.352:588
7.352:593
7.357:588
7.357:577
7.357:578
7.357:579
7.359:576
7.359:578
7.359:578
7.359:578
7.359:572
7.361:569
7.361:565
7.361:538
7.361:559
7.362:611
7.363:617
7.363:610
7.364:602
7.364:597
7.364:598
7.365:595
7.365:596
7.365:584
7.365:575
7.365:600
7.366:605
7.366:595
7.366:574
7.380:574
7.380:583
7.385:588
7.385:581
7.385:571
7.385:566
7.386:560
7.386:559
7.386:561
7.386:571
7.387:570
7.387:566
7.389:558
7.390:565
7.390:567
7.390:563
7.390:558
7.390:557
7.391:551
7.391:546
7.391:548
7.394:541
7.394:525
7.394:538
7.394:532
7.395:546
7.395:544
7.395:546
7.395:549
7.396:551
7.413:549
7.414:548
7.414:544
7.414:542
7.414:536
7.414:530
7.415:523
7.415:520
7.418:516
7.418:515
7.418:519
7.418:508
7.419:523
7.419:534
7.419:528
7.419:519
7.419:526
7.419:519
7.422:509
7.422:501
7.422:503
7.423:499
7.423:524
7.423:539
7.423:530
7.423:493
7.423:493
7.426:512
7.426:506
7.426:505
7.443:505
7.443:494
7.443:499
7.443:510
7.443:506
7.444:508
7.444:501
7.444:488
7.446:476
7.446:466
7.447:463
7.447:456
7.447:441
7.447:495
7.448:533
7.448:522
7.448:496
7.451:486
7.451:472
7.451:477
7.451:467
7.452:475
7.452:479
7.452:482
7.452:493
7.452:493
7.453:480
7.454:465
7.455:465
7.455:467
7.471:467
7.471:470
7.471:470
7.471:466
7.476:466
7.476:468
7.476:467
7.476:462
7.476:454
7.477:446
7.477:432
7.477:440
7.477:469
7.478:460
7.480:455
7.480:444
7.480:440
7.481:440
7.481:438
7.481:436
7.481:432
7.481:427
7.482:435
7.484:442
7.484:448
7.484:433
7.484:427
7.484:424
7.485:425
7.485:428
7.499:428
7.500:412
7.500:416
7.504:433
7.504:439
7.504:442
7.504:427
7.505:407
7.505:418
7.505:416
7.505:405
7.505:409
7.506:409
7.509:403
7.509:401
7.509:420
7.509:432
7.509:414
7.510:419
7.510:425
7.510:411
7.510:405
7.512:402
7.513:390
7.513:400
7.513:432
7.513:435
7.513:419
7.514:409
7.514:400
7.533:401
7.533:398
7.533:419
7.533:425
7.534:429
7.534:428
7.534:434
7.534:436
7.534:422
7.535:410
7.536:432
7.536:440
7.536:417
7.537:407
7.537:417
7.537:442
7.537:448
7.537:452
7.537:455
7.541:457
7.541:458
7.541:455
7.541:451
7.542:454
7.542:450
7.542:463
7.542:476
7.542:472
7.543:463
7.545:472
7.561:472
7.562:485
7.562:490
7.562:492
7.562:494
7.563:492
7.563:491
7.563:495
7.563:497
7.566:506
7.566:510
7.566:510
7.566:502
7.566:496
7.567:517
7.567:528
7.567:534
7.567:546
7.570:560
7.570:563
7.570:570
7.570:572
7.571:580
7.571:583
7.571:563
7.571:538
7.571:526
7.572:525
7.574:521
7.574:530
7.589:578
7.589:601
7.590:593
7.590:582
7.590:577
7.590:579
7.593:582
7.594:582
7.594:569
7.594:567
7.594:573
7.595:567
7.596:554
7.596:565
7.596:568
7.598:572
7.598:576
7.598:583
7.598:582
7.599:580
7.599:578
7.599:578
7.599:576
7.599:574
7.600:572
7.602:571
7.602:571
7.602:567
7.602:553
7.603:556
7.618:556
7.618:568
7.618:579
7.618:562
7.619:547
7.623:564
7.623:564
7.623:552
7.624:555
7.624:572
7.624:576
7.624:559
7.624:566
7.625:549
7.627:550
7.627:567
7.627:568
7.628:562
7.628:554
7.628:548
7.629:534
7.629:549
7.629:553
7.629:536
7.631:541
7.631:562
7.631:577
7.631:561
7.632:550
7.632:567
7.647:564
7.647:552
7.651:544
7.651:540
7.651:533
7.651:529
7.651:531
7.653:531
7.653:522
7.653:516
7.653:536
7.656:556
7.656:574
7.656:584
7.656:580
7.656:563
7.657:562
7.657:545
7.657:534
7.657:521
7.658:525
7.659:529
7.660:524
7.660:521
7.660:527
7.660:523
7.660:531
7.661:537
7.661:536
7.661:532
7.675:532
7.680:530
7.680:528
7.680:527
7.680:526
7.680:507
7.681:505
7.681:509
7.681:515
7.681:524
7.684:522
7.684:516
7.684:501
7.684:511
7.685:522
7.685:522
7.685:520
7.685:518
7.686:519
7.686:515
7.688:506
7.688:505
7.688:510
7.688:505
7.689:504
7.689:504
7.689:503
7.689:500
7.689:494
7.692:494
7.709:491
7.709:492
7.709:484
7.709:481
7.709:497
7.709:486
7.710:492
7.713:481
7.713:485
7.713:489
7.713:477
7.714:475
7.714:520
7.714:530
7.714:520
7.714:519
7.717:518
7.717:514
7.717:501
7.717:496
7.718:497
7.718:500
7.718:494
7.718:487
7.718:480
7.719:482
7.721:479
7.721:464
7.721:469
7.721:478
7.737:478
7.738:508
7.738:522
7.738:494
7.738:476
7.738:491
7.742:509
7.742:512
7.742:509
7.742:503
7.743:497
7.743:495
7.743:497
7.743:502
7.744:499
7.744:488
7.745:483
7.746:481
7.746:482
7.746:487
7.746:487
7.747:494
7.747:487
7.747:486
7.747:481
7.750:486
7.750:484
7.750:483
7.750:481
7.751:467
7.766:463
7.766:472
7.766:480
7.770:479
7.770:480
7.770:491
7.771:487
7.771:482
7.771:482
7.771:486
7.771:489
7.771:492
7.774:496
7.774:493
7.774:501
7.774:499
7.774:490
7.774:480
7.774:481
7.775:480
7.775:483
7.775:486
7.778:491
7.778:488
7.778:486
7.778:480
7.778:475
7.778:472
7.778:457
7.780:450
7.795:450
7.795:482
7.799:499
7.799:505
7.799:491
7.799:513
7.800:511
7.800:496
7.800:483
7.800:497
7.800:511
7.800:510
7.803:506
7.803:524
7.803:539
7.803:526
7.803:520
7.804:517
7.804:513
7.804:503
7.805:503
7.806:501
7.806:501
7.806:509
7.806:508
7.808:508
7.808:506
7.808:499
7.808:489
7.809:486
7.827:485
7.827:476
7.827:483
7.827:496
7.828:490
7.829:494
7.829:496
7.829:509
7.832:521
7.832:516
7.832:495
7.832:488
7.833:489
7.833:493
7.833:495
7.833:491
7.833:497
7.834:505
7.835:508
7.835:500
7.837:484
7.837:491
7.837:487
7.837:496
7.837:498
7.837:496
7.837:492
7.840:482
7.840:474
7.840:484
7.856:484
7.857:487
7.857:474
7.857:472
7.857:461
7.857:474
7.857:494
7.861:496
7.861:494
7.861:497
7.861:499
7.862:494
7.862:492
7.863:489
7.863:483
7.863:480
7.863:485
7.865:494
7.865:496
7.865:487
7.865:479
7.866:478
7.866:470
7.866:476
7.866:487
7.866:483
7.866:468
7.868:461
7.868:443
7.869:435
7.884:502
7.884:521
7.884:506
7.885:495
7.889:484
7.889:478
7.889:476
7.889:464
7.890:464
7.890:480
7.890:491
7.890:483
7.890:471
7.891:456
7.893:456
7.893:470
7.893:466
7.894:462
7.894:462
7.894:467
7.895:464
7.895:452
7.895:442
7.897:444
7.897:444
7.897:430
7.897:428
7.898:423
7.898:435
7.898:441
7.913:441
7.913:446
7.913:457
7.917:468
7.917:461
7.917:446
7.918:426
7.918:435
7.918:447
7.918:455
7.918:452
7.919:452
7.919:453
7.922:464
7.922:470
7.922:477
7.922:466
7.923:457
7.923:473
7.923:481
7.923:470
7.923:459
7.926:464
7.926:481
7.926:483
7.926:504
7.926:508
7.927:499
7.927:514
7.927:517
7.945:501
7.946:510
7.946:535
7.946:539
7.946:530
7.946:517
7.946:507
7.947:496
7.947:499
7.947:501
7.950:502
7.950:504
7.950:493
7.950:520
7.950:534
7.951:530
7.951:530
7.951:520
7.951:517
7.955:515
7.955:509
7.955:499
7.955:486
7.955:481
7.955:512
7.956:520
7.956:512
7.956:511
7.956:512
7.958:508
7.975:508
7.975:509
7.975:508
7.975:509
7.975:505
7.975:503
7.975:507
7.975:519
7.975:513
7.979:520
7.979:508
7.979:508
7.979:529
7.979:531
7.979:520
7.979:496
7.979:464
7.979:469
7.983:478
7.983:489
7.983:536
7.983:545
7.984:543
7.984:531
7.984:537
7.984:527
7.984:525
7.985:521
7.986:516
7.987:521
8.003:527
8.003:526
8.004:513
8.004:491
8.004:485
8.004:489
8.008:494
8.008:504
8.008:542
8.008:559
8.008:543
8.009:527
8.009:525
8.009:524
8.009:519
8.012:514
8.013:510
8.013:511
8.013:515
8.013:518
8.014:525
8.014:517
8.014:509
8.014:506
8.014:501
8.015:505
8.015:503
8.016:491
8.016:488
8.016:498
8.032:498
8.032:500
8.032:506
8.033:519
8.033:511
8.036:523
8.036:543
8.036:536
8.037:541
8.037:545
8.037:542
8.037:539
8.037:539
8.037:514
8.040:487
8.040:484
8.040:471
8.040:450
8.041:422
8.041:379
8.041:352
8.041:371
8.041:344
8.042:293
8.045:231
8.045:211
8.045:195
8.046:139
8.046:73
8.046:20
8.060:17
8.060:17
8.065:17
8.065:17
8.065:18
8.066:19
8.066:18
8.066:19
8.066:19
8.066:19
8.066:19
8.066:19
8.067:19
8.067:18
8.069:18
8.069:18
8.069:17
8.069:17
8.070:72
8.070:173
8.070:262
8.070:344
8.070:460
8.070:564
8.073:634
8.073:679
8.073:712
8.073:723
8.074:716
8.074:697
8.089:697
8.094:694
8.094:684
8.094:663
8.094:657
8.094:650
8.095:639
8.095:629
8.095:623
8.095:616
8.097:611
8.097:612
8.097:602
8.099:591
8.099:576
8.099:566
8.099:558
8.099:570
8.100:579
8.100:576
8.102:570
8.102:575
8.102:575
8.103:572
8.103:578
8.103:583
8.103:585
8.103:586
8.103:586
8.105:588
8.122:579
8.122:580
8.122:563
8.122:573
8.123:575
8.123:573
8.123:564
8.127:579
8.127:601
8.127:593
8.127:601
8.128:596
8.128:585
8.128:579
8.128:574
8.129:569
8.130:543
8.130:568
8.130:596
8.130:577
8.131:558
8.131:539
8.131:521
8.131:523
8.131:565
8.132:592
8.135:572
8.135:569
8.135:577
8.135:574
8.151:574
8.151:564
8.151:557
8.151:549
8.152:550
8.152:549
8.155:548
8.155:545
8.156:536
8.156:530
8.156:522
8.156:521
8.156:525
8.157:530
8.157:541
8.157:554
8.159:558
8.159:553
8.159:537
8.159:538
8.160:534
8.160:527
8.160:525
8.160:537
8.161:534
8.163:529
8.163:525
8.163:523
8.164:535
8.164:545
8.179:540
8.180:528
8.180:517
8.184:513
8.184:504
8.184:505
8.185:506
8.185:508
8.185:506
8.185:505
8.185:515
8.185:519
8.188:511
8.188:505
8.188:497
8.188:496
8.188:494
8.188:493
8.188:491
8.188:502
8.189:515
8.189:518
8.192:510
8.192:499
8.192:497
8.193:494
8.193:492
8.193:489
8.193:486
8.193:484
8.207:484
8.208:476
8.212:465
8.213:461
8.213:452
8.213:433
8.213:494
8.213:508
8.214:516
8.214:517
8.214:509
8.217:502
8.217:499
8.217:496
8.217:487
8.218:481
8.218:474
8.218:470
8.218:469
8.219:468
8.219:465
8.221:468
8.221:467
8.221:470
8.221:472
8.221:470
8.221:468
8.222:465
8.222:462
8.222:454
8.241:449
8.241:441
8.242:426
8.242:450
8.242:472
8.242:473
8.242:464
8.242:455
8.245:449
8.246:444
8.246:442
8.246:440
8.246:444
8.246:445
8.246:443
8.246:446
8.247:449
8.247:445
8.249:438
8.249:434
8.249:430
8.249:430
8.250:428
8.250:426
8.250:414
8.250:416
8.250:431
8.253:432
8.254:423
8.254:419
8.270:419
8.270:415
8.270:414
8.270:410
8.270:423
8.270:444
8.270:426
8.274:423
8.274:440
8.274:442
8.274:434
8.275:427
8.275:425
8.275:434
8.275:420
8.275:417
8.276:426
8.278:422
8.278:425
8.279:416
8.279:416
8.279:438
8.279:454
8.279:447
8.280:448
8.280:463
8.282:468
8.282:468
8.282:464
8.282:458
8.298:452
8.298:451
8.298:451
8.298:431
8.303:448
8.303:503
8.303:499
8.303:486
8.304:482
8.304:479
8.304:482
8.304:485
8.304:495
8.305:503
8.307:497
8.307:512
8.307:525
8.308:525
8.308:521
8.308:522
8.308:527
8.309:532
8.309:531
8.311:528
8.312:533
8.312:535
8.312:531
8.312:528
8.312:528
8.313:522
8.327:522
8.327:549
8.327:558
8.331:565
8.331:578
8.331:572
8.331:583
8.332:592
8.332:585
8.332:581
8.332:580
8.332:579
8.333:580
8.335:588
8.336:600
8.336:595
8.336:581
8.336:575
8.336:575
8.336:577
8.337:577
8.337:570
8.339:548
8.339:565
8.340:577
8.340:594
8.340:601
8.340:594
8.340:590
8.341:589
8.360:576
8.360:565
8.360:590
8.361:594
8.361:580
8.361:571
8.362:580
8.362:578
8.362:587
8.362:591
8.364:584
8.364:577
8.364:570
8.364:558
8.364:566
8.364:583
8.365:576
8.365:558
8.365:552
8.367:587
8.368:597
8.368:611
8.368:598
8.368:591
8.369:595
8.369:590
8.369:588
8.369:582
8.369:573
8.372:568
8.388:568
8.389:559
8.389:554
8.389:557
8.389:559
8.389:561
8.389:581
8.390:593
8.390:582
8.393:578
8.393:593
8.393:585
8.393:575
8.393:557
8.393:560
8.394:565
8.394:562
8.394:561
8.397:557
8.397:552
8.397:555
8.398:555
8.398:554
8.398:527
8.398:527
8.398:549
8.399:556
8.399:567
8.401:573
8.401:579
8.417:580
8.417:575
8.417:570
8.417:558
8.418:546
8.418:543
8.421:544
8.421:548
8.421:549
8.422:543
8.422:538
8.422:535
