0.000:448
0.001:444
0.002:436
0.003:432
0.003:431
0.003:427
0.003:415
0.003:401
0.003:403
0.004:406
0.004:406
0.004:411
0.004:401
0.004:394
0.004:398
0.004:398
0.005:396
0.005:398
0.005:394
0.005:382
0.005:385
0.005:388
0.006:388
0.006:389
0.006:389
0.006:384
0.006:379
0.006:376
0.006:379
0.006:374
0.006:374
0.006:370
0.006:375
0.006:371
0.007:358
0.007:356
0.007:364
0.007:369
0.007:367
0.008:366
0.008:355
0.008:347
0.008:355
0.008:365
0.008:363
0.009:352
0.009:345
0.009:347
0.009:348
0.009:350
0.010:354
0.010:362
0.010:355
0.010:357
0.010:369
0.010:371
0.011:360
0.011:356
0.011:348
0.011:340
0.011:347
0.011:360
0.012:369
0.012:373
0.012:373
0.012:378
0.012:376
0.013:376
0.014:383
0.014:385
0.014:378
0.014:382
0.014:397
0.014:396
0.014:395
0.014:395
0.016:404
0.016:416
0.016:427
0.016:433
0.016:435
0.016:427
0.017:419
0.017:432
0.017:439
0.017:435
0.017:441
0.018:464
0.018:473
0.018:487
0.018:487
0.019:496
0.019:497
0.019:486
0.019:482
0.019:491
0.019:507
0.019:511
0.021:513
0.021:521
0.021:531
0.022:540
0.022:543
0.022:539
0.022:547
0.023:550
0.023:549
0.023:543
0.023:548
0.023:541
0.023:544
0.024:542
0.024:542
0.024:541
0.024:542
0.024:557
0.025:563
0.025:570
0.025:585
0.025:588
0.025:572
0.026:559
0.026:563
0.026:568
0.026:576
0.026:573
0.026:575
0.026:576
0.026:576
0.026:577
0.026:586
0.026:586
0.027:585
0.027:580
0.027:571
0.027:570
0.027:567
0.027:570
0.028:566
0.028:564
0.028:560
0.028:557
0.028:555
0.028:555
0.028:563
0.029:565
0.029:565
0.029:559
0.029:557
0.030:546
0.030:546
0.030:546
0.030:555
0.030:555
0.030:562
0.031:573
0.031:564
0.031:550
0.031:550
0.031:552
0.031:552
0.032:551
0.032:554
0.032:554
0.032:554
0.032:555
0.033:553
0.033:559
0.033:547
0.033:539
0.033:535
0.033:531
0.034:534
0.034:537
0.034:546
0.035:536
0.036:531
0.036:538
0.036:541
0.036:535
0.037:529
0.037:517
0.037:521
0.037:528
0.037:529
0.037:533
0.037:524
0.037:521
0.037:511
0.038:515
0.038:528
0.038:533
0.038:530
0.039:527
0.039:523
0.039:539
0.039:532
0.039:524
0.039:522
0.040:529
0.040:531
0.040:513
0.040:519
0.040:519
0.041:499
0.041:499
0.041:500
0.041:507
0.041:513
0.041:516
0.042:516
0.042:520
0.042:523
0.042:519
0.042:508
0.043:502
0.043:505
0.043:510
0.044:515
0.044:513
0.044:512
0.044:509
0.044:503
0.044:491
0.044:503
0.044:517
0.044:511
0.045:507
0.045:506
0.045:498
0.045:503
0.046:500
0.046:500
0.046:498
0.046:495
0.046:494
0.046:497
0.046:497
0.047:494
0.047:491
0.047:484
0.047:487
0.047:494
0.048:502
0.048:506
0.048:513
0.048:514
0.048:505
0.049:492
0.049:479
0.049:469
0.049:471
0.049:475
0.050:481
0.050:489
0.050:485
0.050:484
0.050:476
0.051:476
0.053:484
0.054:483
0.054:484
0.054:486
0.054:487
0.054:486
0.054:487
0.055:486
0.055:485
0.055:478
0.055:474
0.055:474
0.055:481
0.055:487
0.055:488
0.056:480
0.056:471
0.056:466
0.056:469
0.056:476
0.057:473
0.057:471
0.057:470
0.057:472
0.057:484
0.058:481
0.058:478
0.058:479
0.058:486
0.058:485
0.058:477
0.060:473
0.060:462
0.060:465
0.060:475
0.060:469
0.060:474
0.060:477
0.060:482
0.060:486
0.061:482
0.061:475
0.061:470
0.061:469
0.061:462
0.062:452
0.062:464
0.062:482
0.062:486
0.062:486
0.063:489
0.063:496
0.063:484
0.063:465
0.063:456
0.063:450
0.064:459
0.064:467
0.064:461
0.064:459
0.064:463
0.065:465
0.065:460
0.066:454
0.066:452
0.066:454
0.066:471
0.066:483
0.066:477
0.066:481
0.067:476
0.067:476
0.067:480
0.067:475
0.067:457
0.067:464
0.067:481
0.067:496
0.068:490
0.068:489
0.069:494
0.069:492
0.070:485
0.070:483
0.070:479
0.070:476
0.070:475
0.070:477
0.070:477
0.070:472
0.070:472
0.070:480
0.070:484
0.070:473
0.070:474
0.070:465
0.071:459
0.071:463
0.071:468
0.072:478
0.072:473
0.072:472
0.072:473
0.072:483
0.072:485
0.073:477
0.073:474
0.073:475
0.073:484
0.073:489
0.074:484
0.074:475
0.074:477
0.075:476
0.075:475
0.075:468
0.076:467
0.076:473
0.076:480
0.076:479
0.076:469
0.076:463
0.077:463
0.077:478
0.077:479
0.077:479
0.077:478
0.077:474
0.078:484
0.078:478
0.078:475
0.078:475
0.078:472
0.079:469
0.079:472
0.079:467
0.079:460
0.079:467
0.079:471
0.080:462
0.080:464
0.080:466
0.080:470
0.080:476
0.081:480
0.081:472
0.081:460
0.081:460
0.081:458
0.081:467
0.082:467
0.082:462
0.082:456
0.082:464
0.082:462
0.083:464
0.083:464
0.083:458
0.083:451
0.083:445
0.083:445
0.084:446
0.084:450
0.084:443
0.084:436
0.084:437
0.085:435
0.085:437
0.085:439
0.086:439
0.086:438
0.086:433
0.086:429
0.088:428
0.089:424
0.089:430
0.089:433
0.089:426
0.089:431
0.089:434
0.089:445
0.089:452
0.089:457
0.089:455
0.091:450
0.091:447
0.091:443
0.091:438
0.092:438
0.092:447
0.092:447
0.092:447
0.092:444
0.092:442
0.092:436
0.092:433
0.092:439
0.092:452
0.092:462
0.093:473
0.093:466
0.093:455
0.093:452
0.093:457
0.093:465
0.093:471
0.093:474
0.093:478
0.093:496
0.093:509
0.093:519
0.093:523
0.093:521
0.094:514
0.094:501
0.094:491
0.094:483
0.094:481
0.094:483
0.094:487
0.094:484
0.094:484
0.094:487
0.094:488
0.094:506
0.094:510
0.094:505
0.094:499
0.094:488
0.095:469
0.095:462
0.095:473
0.096:476
0.096:487
0.096:494
0.096:507
0.097:519
0.097:517
0.097:500
0.097:473
0.097:455
0.097:459
0.097:466
0.097:470
0.097:483
0.097:498
0.097:511
0.097:512
0.098:500
0.098:503
0.098:509
0.098:509
0.098:506
0.098:501
0.098:504
0.098:511
0.098:514
0.098:513
0.098:496
0.099:492
0.099:493
0.099:477
0.099:451
0.100:447
0.100:446
0.100:442
0.101:445
0.102:453
0.102:468
0.102:481
0.102:488
0.102:489
0.102:490
0.103:493
0.103:511
0.103:527
0.104:550
0.104:574
0.104:582
0.104:591
0.104:617
0.106:630
0.106:628
0.106:607
0.106:594
0.106:574
0.107:546
0.107:511
0.107:482
0.107:457
0.107:449
0.107:448
0.107:450
0.107:463
0.107:475
0.107:494
0.108:499
0.108:499
0.108:490
0.109:489
0.109:507
0.109:502
0.110:480
0.110:461
0.110:450
0.110:448
0.111:432
0.111:417
0.111:444
0.111:468
0.112:488
0.112:488
0.112:506
0.112:515
0.112:521
0.112:538
0.112:548
0.113:549
0.113:565
0.113:581
0.113:578
0.113:560
0.113:527
0.114:502
0.114:497
0.114:486
0.114:457
0.114:433
0.114:416
0.114:403
0.115:376
0.115:315
0.115:238
0.115:176
0.115:130
0.115:81
0.116:57
0.116:25
0.116:17
0.116:17
0.116:17
0.116:17
0.116:17
0.118:17
0.118:17
0.118:18
0.118:18
0.118:19
0.119:19
0.119:19
0.119:19
0.119:19
0.120:19
0.120:19
0.120:18
0.120:17
0.120:17
0.121:62
0.121:154
0.122:243
0.122:331
0.122:397
0.123:495
0.123:590
0.123:671
0.124:733
0.124:753
0.124:717
0.124:644
0.125:617
0.126:630
0.126:630
0.126:639
0.126:618
0.127:604
0.127:591
0.127:612
0.127:625
0.127:586
0.128:533
0.128:500
0.128:512
0.128:527
0.128:531
0.128:520
0.129:514
0.129:508
0.129:506
0.129:516
0.129:522
0.129:530
0.130:536
0.130:522
0.130:506
0.130:512
0.130:513
0.131:529
0.131:564
0.131:582
0.131:567
0.131:556
0.131:557
0.132:526
0.132:503
0.132:490
0.132:465
0.132:408
0.133:377
0.133:402
0.133:455
0.133:491
0.133:535
0.134:588
0.134:611
0.134:617
0.134:621
0.134:620
0.135:613
0.135:623
0.135:626
0.135:620
0.135:621
0.135:604
0.135:595
0.136:585
0.136:570
0.136:567
0.136:577
0.136:564
0.137:530
0.137:482
0.137:482
0.137:450
0.138:429
0.138:421
0.138:429
0.138:454
0.138:479
0.139:500
0.139:507
0.139:497
0.139:468
0.139:463
0.139:437
0.140:450
0.140:467
0.140:488
0.140:497
0.140:483
0.141:488
0.141:505
0.141:541
0.141:562
0.141:606
0.141:657
0.142:657
0.142:612
0.142:571
0.142:540
0.142:532
0.143:514
0.143:456
0.143:416
0.143:388
0.143:380
0.143:375
0.144:356
0.144:362
0.144:369
0.144:359
0.144:335
0.144:288
0.145:270
0.145:306
0.146:392
0.146:448
0.146:488
0.146:551
0.146:598
0.146:619
0.146:631
0.146:613
0.147:559
0.147:522
0.147:535
0.147:558
0.147:567
0.147:575
0.148:573
0.148:562
0.148:557
0.148:557
0.148:536
0.149:513
0.149:492
0.149:481
0.149:501
0.149:512
0.149:537
0.150:545
0.150:516
0.150:480
0.150:471
0.150:464
0.151:442
0.151:424
0.151:414
0.152:405
0.152:408
0.152:411
0.152:422
0.152:428
0.152:428
0.152:439
0.152:477
0.153:499
0.153:501
0.153:492
0.153:493
0.153:482
0.153:450
0.153:409
0.153:387
0.153:374
0.153:377
0.154:381
0.154:404
0.154:432
0.154:417
0.154:421
0.154:439
0.154:463
0.155:471
0.155:480
0.155:482
0.155:480
0.155:450
0.157:430
0.157:432
0.157:438
0.157:416
0.157:398
0.158:395
0.158:391
0.158:376
0.158:382
0.158:381
0.158:378
0.159:382
0.159:391
0.159:388
0.159:388
0.159:395
0.160:413
0.160:427
0.160:409
0.160:381
0.160:372
0.161:388
0.161:411
0.161:423
0.161:442
0.161:449
0.161:460
0.162:453
0.162:436
0.162:438
0.162:435
0.162:415
0.163:391
0.163:351
0.163:323
0.163:329
0.163:324
0.163:338
0.163:364
0.163:404
0.163:447
0.163:493
0.164:495
0.164:471
0.164:450
0.164:422
0.164:387
0.165:356
0.165:325
0.165:311
0.166:317
0.166:338
0.166:373
0.166:386
0.166:407
0.167:416
0.167:413
0.167:451
0.167:470
0.167:496
0.168:524
0.168:512
0.168:500
0.168:503
0.169:508
0.169:521
0.169:522
0.169:517
0.169:520
0.169:539
0.169:566
0.169:588
0.169:613
0.169:628
0.170:628
0.170:630
0.170:628
0.170:623
0.170:636
0.170:647
0.171:624
0.171:621
0.171:613
0.171:590
0.172:579
0.172:566
0.172:559
0.172:567
0.172:572
0.172:572
0.172:566
0.174:551
0.174:514
0.174:486
0.174:458
0.174:420
0.174:410
0.175:436
0.175:479
0.175:520
0.175:561
0.175:591
0.175:630
0.175:655
0.175:671
0.176:688
0.176:703
0.176:717
0.176:697
0.176:652
0.176:604
0.177:604
0.177:609
0.177:606
0.177:593
0.178:593
0.178:594
0.178:579
0.179:552
0.179:545
0.179:569
0.180:604
0.180:641
0.180:673
0.181:694
0.181:702
0.182:655
0.182:620
0.182:621
0.183:622
0.183:619
0.183:626
0.183:646
0.184:671
0.184:671
0.184:664
0.184:622
0.184:579
0.184:563
0.185:579
0.185:603
0.185:622
0.185:630
0.185:632
0.185:604
0.186:540
0.186:470
0.186:420
0.186:393
0.186:373
0.187:382
0.187:405
0.187:470
0.187:554
0.188:607
0.188:636
0.188:651
0.188:668
0.188:681
0.189:676
0.189:638
0.189:591
0.189:556
0.189:562
0.190:543
0.190:521
0.190:516
0.190:502
0.191:482
0.191:483
0.191:510
0.191:538
0.191:560
0.191:566
0.192:577
0.192:593
0.192:593
0.192:581
0.192:565
0.193:540
0.193:515
0.193:523
0.193:533
0.193:531
0.194:513
0.194:520
0.194:539
0.194:534
0.194:514
0.194:529
0.195:576
0.195:599
0.196:622
0.196:638
0.196:638
0.196:647
0.196:639
0.196:618
0.197:601
0.197:589
0.197:547
0.197:494
0.197:470
0.198:472
0.198:493
0.198:516
0.198:506
0.198:492
0.199:520
0.199:560
0.199:580
0.199:577
0.199:569
0.199:543
0.200:520
0.200:524
0.200:510
0.200:481
0.200:471
0.200:455
0.201:444
0.201:432
0.201:420
0.202:428
0.202:449
0.202:486
0.202:527
0.202:569
0.202:580
0.202:558
0.202:519
0.203:482
0.203:491
0.204:537
0.204:598
0.205:618
0.206:603
0.206:578
0.206:544
0.207:509
0.207:481
0.207:471
0.207:493
0.208:522
0.208:548
0.208:571
0.209:576
0.209:576
0.209:562
0.209:554
0.210:550
0.210:532
0.210:517
0.211:520
0.211:520
0.211:525
0.212:544
0.212:568
0.212:585
0.212:587
0.213:598
0.213:613
0.213:612
0.214:598
0.214:553
0.214:515
0.214:509
0.214:538
0.215:545
0.215:531
0.215:507
0.215:495
0.215:474
0.215:459
0.215:446
0.215:433
0.216:438
0.216:440
0.216:462
0.216:485
0.216:509
0.216:505
0.216:504
0.216:540
0.218:552
0.218:544
0.219:528
0.219:520
0.219:503
0.219:461
0.219:448
0.219:458
0.220:464
0.220:454
0.220:425
0.221:419
0.221:445
0.221:503
0.222:555
0.222:571
0.222:555
0.222:530
0.223:509
0.223:492
0.223:485
0.223:483
0.223:485
0.224:498
0.224:513
0.224:534
0.224:569
0.224:595
0.225:596
0.225:588
0.225:588
0.226:585
0.226:576
0.226:553
0.226:541
0.226:546
0.227:534
0.227:479
0.227:452
0.227:455
0.227:479
0.227:506
0.227:520
0.227:529
0.227:545
0.228:549
0.228:555
0.228:550
0.228:554
0.228:553
0.229:541
0.229:524
0.229:516
0.229:509
0.229:497
0.230:475
0.230:459
0.230:452
0.230:461
0.230:480
0.231:480
0.231:481
0.231:499
0.231:518
0.232:528
0.232:534
0.232:529
0.232:510
0.232:489
0.233:476
0.233:489
0.233:507
0.233:532
0.233:543
0.233:537
0.234:551
0.234:538
0.234:517
0.234:499
0.234:514
0.236:532
0.236:543
0.236:522
0.236:499
0.236:501
0.236:502
0.236:475
0.236:462
0.236:475
0.237:485
0.237:485
0.237:508
0.238:527
0.238:536
0.238:545
0.239:550
0.239:551
0.240:560
0.240:561
0.240:538
0.240:524
0.240:497
0.240:487
0.241:478
0.241:481
0.241:496
0.241:505
0.242:476
0.242:477
0.242:464
0.242:471
0.242:494
0.243:494
0.243:501
0.243:538
0.243:581
0.243:623
0.244:645
0.244:633
0.244:596
0.244:526
0.244:461
0.244:395
0.244:351
0.244:346
0.245:360
0.245:408
0.245:450
0.245:482
0.245:512
0.245:528
0.246:518
0.246:489
0.246:471
0.246:485
0.246:531
0.246:578
0.248:590
0.248:578
0.248:568
0.248:552
0.248:523
0.249:506
0.249:499
0.249:474
0.249:465
0.249:455
0.250:448
0.250:450
0.250:493
0.250:493
0.250:549
0.251:574
0.251:560
0.251:526
0.251:476
0.252:453
0.252:438
0.252:414
0.252:383
0.252:382
0.253:409
0.253:431
0.253:453
0.253:476
0.253:488
0.254:511
0.254:524
0.254:573
0.254:621
0.254:655
0.256:666
0.256:653
0.256:636
0.256:626
0.256:605
0.257:572
0.257:539
0.257:529
0.257:527
0.257:502
0.257:471
0.257:438
0.257:425
0.257:440
0.257:446
0.258:445
0.258:443
0.258:423
0.259:424
0.259:428
0.259:443
0.260:460
0.260:460
0.260:457
0.261:454
0.261:468
0.261:503
0.261:540
0.262:573
0.262:603
0.262:592
0.262:577
0.262:552
0.262:555
0.262:575
0.262:591
0.263:588
0.263:574
0.263:543
0.263:543
0.264:522
0.264:495
0.264:487
0.264:493
0.264:496
0.266:492
0.266:468
0.266:473
0.267:480
0.267:512
0.267:545
0.267:559
0.268:567
0.269:563
0.269:519
0.269:469
0.270:455
0.270:484
0.270:514
0.270:525
0.270:556
0.270:598
0.270:627
0.270:655
0.270:668
0.270:640
0.271:603
0.271:570
0.271:548
0.271:532
0.271:521
0.271:514
0.272:509
0.272:494
0.272:474
0.272:468
0.273:476
0.273:492
0.273:520
0.274:540
0.274:540
0.274:549
0.275:567
0.275:581
0.275:592
0.276:578
0.276:564
0.276:553
0.276:521
0.276:508
0.276:488
0.276:470
0.277:452
0.277:456
0.277:473
0.277:473
0.277:469
0.277:483
0.277:507
0.277:507
0.277:520
0.277:516
0.277:520
0.278:525
0.278:523
0.278:501
0.278:490
0.278:499
0.279:506
0.279:505
0.279:506
0.279:514
0.279:508
0.280:512
0.280:520
0.280:516
0.280:492
0.280:454
0.280:406
0.280:345
0.281:287
0.281:255
0.281:211
0.281:173
0.281:119
0.282:63
0.282:19
0.282:16
0.282:17
0.282:17
0.283:17
0.283:18
0.283:18
0.283:19
0.283:19
0.283:18
0.284:19
0.284:18
0.284:17
0.285:25
0.285:180
0.285:283
0.285:348
0.285:383
0.285:417
0.285:441
0.286:460
0.286:476
0.286:556
0.286:626
0.286:610
0.286:529
0.287:449
0.287:385
0.288:351
0.288:368
0.288:391
0.288:406
0.289:424
0.289:424
0.289:432
0.289:451
0.289:463
0.289:430
0.290:391
0.290:411
0.290:458
0.290:525
0.290:563
0.291:559
0.291:561
0.291:567
0.291:569
0.291:561
0.291:571
0.292:561
0.292:547
0.292:536
0.292:524
0.292:546
0.293:569
0.293:587
0.293:595
0.293:619
0.293:632
0.294:640
0.294:647
0.294:638
0.294:628
0.294:626
0.294:637
0.295:648
0.295:651
0.295:645
0.296:623
0.296:608
0.296:607
0.296:615
0.296:610
0.297:589
0.297:566
0.297:552
0.297:542
0.297:551
0.297:579
0.298:592
0.298:579
0.298:578
0.298:591
0.298:591
0.299:585
0.299:587
0.299:601
0.299:596
0.299:589
0.299:588
0.300:591
0.300:603
0.300:604
0.300:604
0.300:614
0.301:593
0.301:585
0.301:580
0.301:569
0.301:582
0.303:576
0.303:572
0.303:573
0.303:555
0.304:541
0.304:532
0.304:508
0.304:483
0.305:463
0.305:453
0.305:434
0.305:430
0.305:441
0.306:461
0.306:483
0.306:495
0.306:507
0.306:517
0.306:485
0.306:488
0.306:506
0.306:523
0.306:524
0.306:524
0.308:530
0.308:548
0.308:540
0.308:543
0.308:555
0.309:588
0.309:597
0.309:618
0.309:628
0.309:622
0.310:599
0.310:569
0.310:506
0.310:465
0.310:434
0.310:376
0.311:351
0.311:382
0.311:409
0.311:443
0.311:472
0.312:512
0.312:540
0.312:584
0.312:629
0.312:630
0.313:614
0.313:593
0.313:589
0.313:589
0.313:600
0.314:614
0.314:625
0.314:619
0.314:598
0.314:538
0.314:497
0.315:497
0.315:530
0.315:560
0.315:551
0.315:545
0.315:534
0.315:526
0.315:540
0.316:534
0.316:516
0.316:492
0.316:494
0.316:503
0.317:499
0.317:485
0.317:461
0.317:445
0.318:444
0.318:474
0.318:507
0.320:513
0.320:498
0.320:485
0.320:454
0.320:427
0.321:402
0.321:387
0.321:361
0.321:340
0.322:312
0.322:288
0.322:301
0.322:343
0.322:362
0.322:346
0.323:365
0.323:423
0.323:477
0.323:516
0.323:519
0.324:498
0.324:487
0.324:472
0.324:463
0.324:474
0.325:477
0.325:459
0.325:440
0.325:410
0.325:353
0.326:303
0.326:246
0.326:246
0.326:216
0.326:194
0.326:178
0.326:165
0.326:173
0.327:219
0.327:292
0.327:390
0.327:509
0.327:606
0.327:658
0.328:684
0.328:691
0.328:666
0.328:648
0.328:613
0.328:581
0.329:553
0.329:539
0.329:547
0.329:554
0.329:526
0.330:504
0.330:460
0.330:405
0.330:386
0.330:385
0.330:417
0.331:441
0.331:475
0.331:497
0.331:515
0.331:532
0.332:530
0.332:558
0.332:569
0.332:564
0.332:547
0.332:521
0.333:515
0.333:518
0.333:488
0.333:460
0.333:464
0.334:468
0.334:475
0.334:490
0.334:505
0.336:534
0.336:555
0.336:565
0.336:569
0.336:587
0.337:609
0.337:628
0.337:628
0.337:611
0.337:579
0.338:564
0.338:564
0.338:562
0.338:553
0.339:533
0.339:517
0.339:493
0.339:447
0.340:383
0.340:337
0.340:391
0.340:478
0.340:533
0.341:558
0.341:590
0.341:623
0.341:622
0.341:616
0.341:600
0.342:591
0.342:583
0.342:578
0.342:586
0.342:599
0.343:625
0.343:650
0.343:668
0.343:642
0.343:626
0.344:623
0.344:597
0.344:577
0.344:564
0.344:552
0.344:544
0.344:544
0.344:547
0.344:562
0.345:566
0.345:574
0.345:581
0.345:565
0.345:538
0.345:522
0.346:488
0.346:461
0.346:466
0.346:488
0.346:518
0.347:568
0.347:617
0.347:630
0.347:593
0.347:557
0.347:557
0.348:581
0.348:600
0.348:620
0.348:607
0.348:594
0.349:610
0.349:610
0.349:620
0.349:610
0.349:603
0.349:602
0.350:607
0.350:607
0.350:606
0.350:596
0.350:585
0.351:574
0.351:577
0.352:582
0.352:586
0.352:590
0.352:593
0.353:578
0.353:548
0.354:531
0.354:505
0.354:458
0.354:441
0.355:477
0.355:507
0.355:530
0.355:562
0.355:578
0.355:594
0.355:600
0.355:604
0.357:594
0.357:570
0.357:547
0.357:552
0.357:564
0.357:556
0.358:554
0.358:550
0.358:542
0.358:535
0.358:543
0.359:530
0.359:516
0.359:496
0.359:493
0.359:500
0.360:514
0.360:511
0.360:505
0.360:495
0.360:500
0.360:521
0.361:534
0.361:545
0.361:544
0.361:537
0.361:529
0.362:516
0.362:492
0.362:477
0.362:477
0.363:474
0.363:479
0.363:472
0.363:482
0.363:503
0.363:513
0.364:503
0.364:513
0.364:517
0.364:517
0.364:528
0.365:532
0.365:531
0.365:522
0.365:512
0.365:517
0.366:521
0.366:506
0.366:482
0.366:453
0.366:435
0.366:437
0.366:443
0.367:476
0.367:526
0.367:547
0.367:564
0.369:584
0.369:602
0.369:595
0.369:585
0.369:569
0.369:550
0.369:548
0.369:546
0.370:530
0.370:516
0.370:494
0.370:487
0.371:479
0.371:462
0.371:464
0.372:477
0.372:481
0.372:473
0.372:465
0.372:462
0.373:457
0.373:428
0.373:395
0.373:375
0.373:368
0.374:384
0.374:391
0.374:413
0.374:426
0.374:444
0.375:470
0.375:500
0.375:500
0.375:508
0.375:544
0.376:575
0.376:597
0.376:606
0.376:595
0.376:577
0.376:559
0.376:545
0.376:518
0.376:505
0.377:495
0.377:494
0.377:509
0.377:545
0.377:544
0.378:524
0.378:513
0.378:489
0.378:488
0.378:498
0.378:483
0.379:468
0.379:463
0.379:463
0.379:478
0.379:516
0.380:530
0.380:521
0.380:528
0.380:538
0.380:544
0.380:542
0.381:533
0.381:526
0.381:515
0.381:487
0.381:485
0.382:472
0.382:471
0.382:509
0.382:542
0.382:565
0.382:575
0.383:583
0.383:569
0.383:534
0.383:495
0.383:486
0.383:496
0.384:501
0.384:501
0.385:500
0.386:476
0.386:450
0.386:433
0.386:419
0.386:425
0.386:412
0.386:412
0.386:413
0.387:411
0.387:401
0.387:417
0.387:451
0.387:491
0.387:512
0.387:540
0.387:566
0.387:560
0.387:544
0.388:530
0.388:532
0.388:524
0.388:499
0.389:486
0.389:478
0.389:455
0.389:458
0.389:470
0.390:485
0.390:511
0.390:516
0.390:492
0.390:488
0.391:481
0.391:484
0.391:455
0.391:432
0.391:437
0.391:430
0.392:438
0.392:463
0.392:465
0.392:458
0.392:471
0.393:464
0.393:444
0.393:427
0.393:409
0.393:397
0.393:399
0.394:404
0.394:418
0.394:438
0.394:466
0.394:498
0.394:519
0.394:553
0.394:600
0.394:606
0.395:592
0.395:564
0.395:537
0.395:517
0.395:511
0.396:505
0.396:486
0.396:478
0.396:478
0.396:476
0.396:486
0.397:500
0.397:503
0.397:503
0.397:514
0.397:520
0.398:529
0.398:529
0.398:529
0.398:522
0.398:507
0.398:498
0.399:488
0.399:477
0.399:472
0.399:455
0.399:443
0.400:433
0.400:440
0.400:445
0.400:430
0.400:426
0.401:432
0.401:443
0.402:462
0.402:466
0.402:455
0.402:462
0.402:475
0.403:472
0.403:469
0.403:482
0.403:498
0.404:483
0.404:464
0.404:463
0.405:469
0.405:464
0.405:448
0.405:437
0.405:432
0.406:427
0.406:438
0.406:453
0.406:457
0.406:479
0.406:495
0.406:508
0.408:521
0.408:523
0.408:513
0.408:504
0.408:501
0.408:488
0.408:478
0.408:480
0.409:471
0.409:451
0.409:451
0.409:435
0.410:442
0.410:445
0.410:450
0.410:471
0.410:490
0.410:504
0.411:516
0.411:519
0.411:527
0.411:523
0.411:523
0.412:514
0.412:504
0.412:526
0.412:547
0.412:562
0.412:557
0.413:518
0.413:475
0.413:444
0.413:442
0.413:437
0.414:449
0.414:459
0.414:464
0.414:458
0.414:455
0.414:468
0.415:484
0.415:512
0.416:536
0.416:539
0.416:534
0.416:528
0.416:519
0.417:522
0.417:520
0.417:514
0.417:490
0.417:476
0.418:493
0.419:495
0.419:485
0.419:466
0.419:473
0.419:482
0.419:470
0.420:489
0.420:510
0.420:540
0.420:538
0.420:534
0.421:535
0.421:527
0.421:501
0.421:483
0.422:463
0.422:444
0.422:444
0.422:457
0.422:454
0.423:453
0.423:450
0.423:468
0.423:493
0.423:543
0.424:574
0.424:574
0.424:564
0.424:549
0.424:534
0.424:533
0.424:525
0.424:499
0.424:465
0.425:471
0.425:485
0.425:450
0.425:409
0.425:425
0.425:445
0.426:474
0.426:517
0.426:547
0.426:553
0.426:545
0.426:532
0.426:519
0.428:517
0.428:522
0.428:533
0.428:527
0.428:511
0.428:491
0.429:467
0.429:425
0.429:408
0.429:434
0.429:467
0.429:502
0.430:534
0.430:586
0.430:597
0.430:588
0.430:580
0.430:578
0.431:559
0.431:512
0.431:496
0.431:498
0.431:525
0.432:520
0.432:518
0.432:511
0.432:491
0.432:469
0.432:450
0.432:421
0.432:421
0.432:395
0.432:369
0.433:324
0.433:269
0.433:217
0.433:168
0.433:113
0.434:70
0.434:32
0.434:17
0.434:17
0.434:17
0.435:17
0.435:18
0.435:18
0.435:18
0.435:18
0.435:18
0.436:18
0.436:19
0.436:19
0.436:19
0.436:18
0.436:18
0.436:17
0.437:17
0.437:17
0.437:77
0.438:152
0.438:226
0.438:278
0.438:357
0.438:437
0.439:485
0.439:528
0.439:564
0.439:588
0.439:594
0.439:606
0.440:566
0.440:510
0.440:487
0.440:515
0.440:579
0.441:594
0.441:589
0.441:570
0.441:555
0.441:530
0.441:507
0.442:504
0.442:527
0.442:549
0.442:567
0.442:584
0.443:600
0.443:611
0.443:627
0.443:616
0.443:616
0.443:587
0.444:585
0.444:609
0.444:610
0.444:612
0.444:606
0.445:598
0.445:588
0.446:573
0.446:562
0.446:570
0.446:575
0.446:578
0.446:582
0.446:580
0.446:590
0.447:598
0.447:592
0.447:581
0.447:577
0.447:571
0.447:558
0.447:551
0.447:546
0.447:520
0.448:505
0.448:511
0.448:531
0.448:539
0.449:542
0.449:571
0.449:601
0.449:592
0.449:569
0.449:574
0.450:588
0.450:595
0.450:595
0.450:580
0.450:580
0.452:571
0.452:546
0.452:520
0.453:503
0.453:503
0.453:501
0.453:518
0.453:535
0.453:537
0.454:522
0.454:509
0.454:508
0.455:544
0.455:571
0.455:587
0.456:596
0.456:599
0.456:599
0.456:585
0.456:585
0.456:576
0.457:554
0.457:518
0.457:508
0.457:522
0.457:514
0.458:496
0.458:487
0.458:493
0.458:491
0.458:480
0.458:450
0.459:452
0.459:469
0.459:493
0.459:532
0.459:584
0.460:611
0.460:604
0.460:563
0.460:545
0.460:525
0.460:505
0.461:496
0.461:489
0.461:473
0.461:475
0.461:475
0.462:490
0.462:505
0.462:500
0.462:494
0.462:491
0.462:477
0.463:484
0.463:497
0.463:508
0.463:520
0.463:526
0.464:502
0.464:491
0.464:501
0.464:510
0.464:523
0.464:515
0.464:514
0.464:515
0.464:515
0.464:523
0.465:498
0.465:487
0.465:468
0.465:471
0.465:476
0.465:485
0.465:491
0.465:487
0.467:484
0.467:471
0.467:471
0.467:461
0.467:449
0.467:438
0.469:435
0.469:422
0.469:430
0.469:445
0.469:444
0.469:417
0.470:407
0.470:418
0.470:437
0.471:438
0.471:449
0.471:483
0.471:516
0.472:537
0.472:537
0.472:502
0.472:468
0.472:433
0.472:415
0.473:403
0.473:399
0.473:398
0.473:400
0.473:410
0.474:420
0.474:424
0.474:437
0.474:451
0.474:455
0.474:460
0.475:442
0.475:444
0.476:452
0.476:460
0.476:468
0.476:472
0.476:474
0.476:482
0.476:455
0.476:422
0.476:420
0.477:405
0.477:405
0.477:401
0.477:403
0.477:386
0.477:378
0.478:391
0.478:393
0.478:395
0.478:406
0.478:427
0.479:441
0.479:451
0.479:453
0.479:453
0.479:453
0.479:437
0.479:414
0.479:403
0.479:395
0.480:388
0.480:398
0.480:410
0.480:403
0.480:388
0.481:398
0.481:414
0.481:433
0.481:442
0.481:444
0.482:454
0.482:456
0.482:453
0.482:457
0.482:455
0.482:445
0.483:435
0.483:443
0.483:435
0.483:438
0.483:441
0.484:444
0.486:465
0.486:474
0.486:468
0.486:469
0.486:479
0.486:498
0.486:507
0.486:508
0.486:523
0.486:560
0.488:573
0.488:575
0.488:568
0.488:555
0.488:524
0.488:499
0.489:476
0.489:465
0.489:456
0.489:451
0.489:453
0.490:443
0.490:413
0.490:387
0.490:393
0.490:438
0.490:484
0.491:561
0.491:622
0.491:654
0.491:621
0.491:581
0.492:560
0.492:560
0.492:559
0.492:543
0.492:557
0.493:559
0.493:537
0.493:504
0.493:508
0.493:495
0.494:448
0.494:432
0.494:483
0.494:566
0.494:599
0.494:636
0.495:647
0.495:654
0.495:666
0.495:641
0.495:599
0.496:567
0.496:567
0.496:574
0.496:596
0.496:591
0.496:566
0.496:561
0.496:548
0.496:548
0.497:526
0.497:531
0.497:517
0.497:470
0.497:435
0.497:464
0.498:507
0.498:546
0.498:594
0.498:599
0.498:576
0.498:571
0.499:551
0.499:517
0.499:521
0.499:539
0.499:521
0.500:514
0.500:526
0.500:538
0.500:526
0.500:
0.500:505
0.501:503
0.502:488
0.502:476
0.502:478
0.502:481
0.503:492
0.503:500
0.503:506
21
0.503:508
0.503:497
0.504:496
0.504:524
0.504:529
0.504:527
0.505:519
0.505:505
0.505:488
0.506:497
0.506:502
0.506:501
0.506:495
0.506:494
0.507:498
0.507:505
0.507:505
0.507:503
0.507:488
0.507:476
0.508:478
0.508:481
0.508:492
0.508:500
0.508:506
0.508:511
0.509:511
0.509:512
0.509:512
0.509:505
0.509:500
0.510:500
0.510:498
0.510:495
0.510:492
0.511:492
0.511:499
0.511:512
0.511:518
0.511:515
0.512:515
0.512:512
0.512:507
0.512:507
0.512:507
0.512:498
0.513:485
0.513:478
0.513:472
0.513:472
0.513:475
0.514:480
0.514:471
0.514:456
0.514:466
0.514:482
0.514:507
0.514:526
0.514:533
0.515:528
0.515:500
0.515:492
0.515:515
0.515:523
0.516:514
0.516:504
0.516:498
0.516:482
0.516:492
0.516:496
0.517:488
0.518:487
0.518:495
0.518:499
0.518:498
0.518:494
0.520:494
0.520:496
0.520:498
0.520:510
0.521:521
0.521:522
0.521:515
0.521:507
0.521:503
0.522:476
0.522:475
0.522:482
0.522:477
0.522:462
0.522:462
0.523:462
0.523:488
0.523:497
0.523:510
0.523:508
0.524:497
0.524:478
0.524:476
0.524:472
0.524:501
0.524:547
0.524:553
0.524:524
0.524:479
0.525:450
0.525:460
0.525:489
0.525:510
0.525:496
0.525:481
0.527:476
0.527:475
0.527:472
0.527:476
0.527:493
0.527:492
0.527:486
0.527:489
0.528:489
0.528:488
0.528:483
0.528:482
0.528:469
0.528:448
0.529:434
0.529:428
0.529:426
0.529:443
0.529:466
0.530:468
0.530:451
0.530:433
0.530:433
0.530:437
0.530:441
0.531:437
0.531:436
0.531:445
0.531:443
0.531:427
0.532:418
0.532:447
0.532:448
0.532:435
0.532:446
0.532:447
0.533:441
0.533:451
0.533:474
0.533:486
0.533:486
0.534:478
0.534:472
0.534:465
0.536:451
0.536:433
0.536:431
0.536:431
0.537:443
0.537:490
0.537:525
0.537:518
0.537:497
0.538:490
0.538:488
0.538:490
0.538:493
0.538:520
0.539:529
0.539:523
0.539:514
0.539:511
0.539:519
0.540:518
0.540:503
0.540:498
0.540:499
0.540:498
0.540:521
0.541:531
0.541:521
0.541:512
0.541:505
0.541:501
0.542:509
0.542:517
0.542:515
0.542:493
0.542:463
0.543:503
0.543:548
0.543:557
0.543:527
0.543:496
0.543:491
0.544:513
0.544:529
0.544:527
0.544:529
0.544:528
0.544:538
0.544:553
0.544:556
0.544:535
0.546:516
0.546:509
0.546:502
0.546:488
0.546:504
0.547:536
0.547:536
0.547:538
0.547:525
0.547:495
0.547:474
0.548:482
0.548:507
0.548:527
0.548:548
0.548:559
0.548:549
0.549:535
0.549:517
0.549:504
0.549:490
0.549:508
0.549:526
0.550:510
0.550:500
0.550:486
0.550:462
0.550:464
0.551:493
0.551:509
0.551:513
0.552:502
0.552:512
0.553:517
0.553:513
0.553:526
0.553:542
0.553:548
0.553:525
0.553:512
0.554:517
0.554:509
0.554:496
0.554:496
0.554:504
0.554:503
0.554:516
0.554:521
0.554:486
0.554:478
0.554:503
0.554:489
0.555:487
0.555:521
0.555:559
0.555:584
0.556:583
0.556:568
0.556:565
0.556:574
0.557:564
0.557:548
0.557:534
0.557:526
0.557:514
0.557:485
0.558:485
0.558:461
0.558:426
0.558:399
0.558:393
0.559:384
0.559:368
0.559:344
0.559:306
0.559:255
0.560:208
0.560:160
0.560:110
0.560:49
0.560:17
0.560:17
0.561:17
0.561:18
0.561:18
0.561:18
0.561:18
0.561:19
0.562:20
0.562:20
0.562:20
0.562:20
0.562:20
0.562:20
0.563:20
0.563:19
0.563:19
0.563:18
0.563:18
0.563:17
0.563:17
0.564:132
0.564:246
0.564:357
0.564:491
0.564:591
0.565:662
0.565:707
0.566:728
0.566:723
0.566:706
0.566:676
0.566:639
0.566:635
0.566:662
0.567:670
0.567:661
0.567:639
0.567:624
0.567:609
0.569:648
0.569:668
0.569:647
0.569:628
0.569:613
0.570:595
0.570:595
0.570:581
0.570:569
0.570:576
0.571:581
0.571:577
0.571:584
0.571:595
0.571:617
0.572:632
0.572:632
0.572:628
0.572:622
0.572:610
0.573:629
0.573:639
0.573:632
0.573:613
0.573:590
0.573:589
0.574:586
0.574:570
0.574:565
0.574:594
0.574:594
0.574:594
0.574:614
0.574:641
0.576:670
0.576:665
0.576:648
0.576:627
0.576:610
0.576:601
0.576:596
0.576:596
0.576:598
0.577:597
0.577:589
0.577:588
0.577:583
0.577:564
0.577:552
0.578:549
0.578:565
0.578:577
0.578:572
0.578:574
0.579:572
0.579:577
0.579:567
0.579:571
0.579:574
0.579:566
0.580:553
0.580:570
0.580:591
0.580:577
0.580:567
0.581:560
0.581:560
0.581:548
0.581:532
0.581:527
0.581:535
0.582:539
0.582:536
0.582:523
0.582:519
0.582:535
0.583:554
0.583:561
0.583:552
0.583:540
0.583:534
0.584:529
0.585:523
0.586:521
0.586:528
0.586:547
0.587:561
0.587:546
0.587:526
0.587:501
0.587:488
0.588:497
0.588:503
0.588:497
0.588:500
0.589:507
0.589:542
0.589:544
0.589:536
0.589:530
0.589:518
0.590:502
0.590:479
0.590:483
0.590:522
0.590:542
0.591:539
0.591:502
0.591:452
0.591:446
0.591:485
0.591:512
0.592:522
0.592:493
0.592:470
0.592:481
0.592:497
0.593:508
0.593:490
0.593:490
0.593:494
0.593:492
0.593:491
0.594:484
0.594:468
0.594:460
0.595:460
0.600:461
0.600:458
0.600:454
0.600:455
0.601:469
0.601:467
0.601:456
0.601:451
0.603:455
0.604:450
0.604:451
0.604:459
0.605:470
0.605:477
0.605:467
0.605:451
0.605:432
0.606:418
0.606:417
0.608:448
0.608:464
0.608:444
0.608:423
0.609:399
0.609:401
0.609:418
0.609:422
0.609:428
0.610:428
0.628:419
0.628:419
0.628:443
0.629:461
0.629:453
0.629:424
0.629:404
0.633:387
0.633:381
0.633:375
0.633:380
0.633:410
0.633:427
0.634:426
0.634:406
0.636:387
0.636:376
0.637:371
0.637:397
0.637:427
0.637:412
0.638:383
0.638:387
0.638:403
0.638:418
0.638:425
0.640:428
0.640:420
0.640:414
0.640:425
0.657:425
0.657:415
0.657:399
0.657:388
0.657:386
0.658:378
0.661:377
0.661:381
0.661:369
0.661:369
0.662:376
0.662:374
0.662:390
0.662:422
0.662:471
0.662:503
0.665:480
0.665:454
0.665:443
0.667:447
0.667:441
0.667:431
0.667:418
0.667:406
0.667:414
0.669:418
0.669:423
0.670:436
0.670:460
0.670:455
0.685:454
0.686:465
0.686:488
0.690:515
0.690:521
0.690:527
0.690:531
0.691:536
0.691:517
0.691:518
0.691:540
0.691:540
0.692:536
0.694:533
0.694:529
0.694:519
0.694:516
0.694:516
0.694:520
0.695:521
0.695:542
0.695:562
0.698:575
0.698:578
0.698:591
0.698:605
0.699:601
0.699:602
0.699:600
0.699:605
0.713:605
0.714:603
0.718:586
0.718:565
0.719:545
0.719:537
0.719:558
0.720:612
0.720:617
0.720:590
0.720:571
0.720:579
0.723:611
0.723:627
0.723:633
0.723:628
0.724:619
0.724:609
0.724:610
0.724:616
0.724:618
0.726:610
0.726:597
0.726:591
0.727:587
0.727:587
0.727:577
0.727:572
0.727:578
0.728:597
0.746:605
0.746:600
0.746:594
0.746:589
0.748:600
0.748:611
0.748:614
0.748:609
0.748:610
0.751:605
0.751:601
0.752:593
0.752:594
0.752:574
0.752:554
0.753:552
0.753:553
0.753:554
0.755:548
0.755:564
0.755:576
0.755:585
0.755:581
0.756:573
0.756:582
0.756:591
0.756:597
0.756:586
0.759:602
0.759:602
0.775:602
0.776:592
0.776:570
0.776:553
0.777:554
0.777:555
0.777:552
0.777:550
0.779:553
0.780:549
0.780:559
0.780:562
0.780:560
0.781:565
0.781:556
0.781:556
0.782:556
0.783:551
0.784:547
0.784:552
0.785:547
0.785:568
0.785:582
0.785:574
0.785:562
0.786:552
0.786:538
0.788:520
0.788:515
0.788:521
0.804:537
0.804:546
0.804:538
0.804:528
0.804:531
0.808:555
0.808:563
0.808:563
0.809:559
0.809:555
0.809:553
0.809:539
0.809:515
0.809:509
0.813:500
0.813:483
0.813:477
0.813:519
0.814:573
0.814:573
0.814:542
0.814:538
0.814:543
0.814:543
0.816:540
0.816:533
0.816:526
0.816:524
0.816:521
0.817:510
0.833:510
0.833:514
0.833:515
0.833:520
0.837:519
0.838:509
0.838:499
0.838:495
0.838:496
0.838:503
0.839:506
0.839:507
0.839:506
0.841:512
0.841:510
0.842:529
0.842:560
0.842:558
0.843:544
0.843:525
0.843:522
0.844:536
0.844:530
0.845:501
0.846:480
0.846:476
0.846:467
0.846:472
0.846:478
0.846:496
0.866:510
0.866:515
0.866:512
0.866:510
0.867:511
0.867:516
0.867:517
0.868:515
0.868:519
0.868:520
0.870:520
0.870:508
0.870:493
0.870:481
0.870:476
0.871:473
0.871:475
0.871:482
0.871:483
0.872:484
0.874:473
0.874:476
0.874:490
0.874:491
0.874:488
0.874:521
0.874:551
0.874:560
0.876:557
0.878:535
0.894:535
0.894:519
0.894:505
0.894:500
0.895:490
0.895:481
0.895:477
0.896:478
0.896:480
0.899:484
0.899:486
0.899:486
0.899:479
0.900:474
0.900:493
0.900:503
0.900:506
0.900:511
0.901:536
0.903:554
0.903:546
0.903:529
0.903:506
0.903:493
0.903:487
0.903:504
0.904:504
0.904:499
0.906:497
0.906:495
0.923:487
0.923:484
0.923:487
0.923:485
0.923:483
0.924:482
0.927:492
0.927:506
0.927:505
0.927:497
0.928:490
0.928:476
0.928:468
0.928:472
0.928:498
0.931:500
0.931:508
0.931:528
0.931:532
0.932:520
0.932:497
0.932:488
0.932:492
0.932:498
0.933:511
0.935:520
0.935:523
0.935:521
0.935:518
0.936:519
0.951:519
0.951:518
0.952:520
0.952:518
0.952:513
0.955:504
0.956:498
0.956:495
0.956:495
0.956:485
0.956:479
0.957:484
0.957:483
0.957:494
0.957:502
0.959:498
0.959:502
0.960:511
0.960:506
0.960:504
0.960:493
0.960:492
0.961:494
0.961:492
0.964:482
0.964:474
0.964:491
0.964:506
0.965:507
0.965:478
0.980:457
0.980:453
0.984:451
0.984:466
0.986:469
0.986:471
0.986:491
0.986:526
0.986:528
0.986:514
0.987:496
0.989:494
0.989:490
0.989:496
0.989:510
0.989:512
0.990:501
0.990:474
0.990:459
0.990:444
0.990:440
0.993:445
0.993:448
0.993:440
0.993:444
0.994:452
0.994:461
0.994:463
0.994:455
0.994:463
1.008:463
1.013:459
1.013:448
1.013:448
1.013:444
1.014:436
1.014:444
1.014:467
1.014:474
1.014:473
1.016:479
1.017:480
1.018:465
1.018:446
1.018:442
1.018:445
1.018:445
1.019:448
1.019:472
1.019:472
1.021:472
1.021:466
1.021:459
1.021:450
1.022:471
1.022:485
1.022:484
1.022:484
1.022:478
1.023:466
1.041:465
1.041:469
1.041:475
1.042:480
1.042:481
1.042:501
1.042:521
1.046:537
1.046:553
1.046:543
1.046:536
1.047:522
1.047:520
1.047:518
1.047:512
1.047:491
1.047:490
1.050:485
1.051:473
1.051:495
1.051:528
1.052:530
1.052:521
1.052:518
1.052:510
1.052:508
1.053:505
1.053:499
1.054:515
1.054:522
1.071:522
1.071:533
1.071:537
1.071:538
1.071:530
1.072:523
1.075:519
1.075:513
1.075:510
1.075:508
1.075:510
1.075:513
1.075:517
1.075:517
1.075:522
1.077:527
1.079:536
1.079:540
1.079:526
1.079:523
1.080:529
1.080:531
1.080:529
1.080:528
1.080:537
1.083:534
1.083:481
1.083:480
1.083:502
1.083:493
1.099:468
1.099:471
1.099:504
1.103:555
1.104:577
1.104:553
1.104:529
1.104:511
1.104:506
1.104:518
1.105:517
1.105:521
1.106:526
1.108:532
1.108:559
1.108:588
1.108:576
1.108:544
1.108:506
1.109:484
1.109:491
1.109:501
1.112:506
1.112:497
1.112:488
1.112:493
1.113:514
1.113:537
1.113:530
1.113:513
1.127:513
1.127:518
1.132:518
1.132:511
1.132:508
1.132:516
1.132:518
1.133:517
1.133:514
1.133:510
1.134:502
1.134:496
1.136:512
1.136:524
1.137:525
1.137:513
1.137:495
1.137:485
1.137:503
1.137:502
1.138:469
1.140:449
1.140:436
1.140:408
1.140:380
1.141:356
1.141:334
1.141:290
1.141:245
1.141:192
1.160:117
1.160:56
1.161:17
1.161:17
1.161:17
1.161:17
1.161:17
1.161:18
1.161:17
1.162:18
1.162:18
1.164:18
1.164:18
1.164:19
1.164:19
1.164:19
1.166:19
1.166:18
1.166:17
1.166:17
1.166:17
1.166:39
1.168:128
1.168:205
1.169:283
1.169:380
1.169:502
1.170:609
1.170:688
1.170:734
1.189:734
1.189:777
1.189:772
1.189:746
1.190:708
1.190:672
1.190:653
1.190:654
1.194:646
1.194:645
1.194:644
1.194:622
1.194:614
1.195:609
1.195:603
1.195:588
1.195:579
1.197:565
1.197:558
1.197:554
1.197:570
1.197:602
1.198:627
1.198:632
1.198:607
1.198:607
1.198:623
1.202:621
1.202:610
1.202:593
1.219:582
1.219:572
1.219:570
1.219:564
1.222:556
1.222:564
1.222:584
1.222:585
1.223:582
1.223:586
1.223:577
1.223:572
1.223:575
1.224:577
1.226:589
1.226:586
1.227:588
1.227:593
1.227:585
1.227:577
1.227:578
1.228:587
1.228:576
1.228:552
1.230:546
1.230:548
1.230:550
1.230:551
1.230:558
1.231:559
1.246:559
1.246:563
1.246:567
1.246:562
1.251:560
1.251:553
1.252:557
1.252:563
1.252:561
1.252:552
1.252:537
1.253:526
1.253:508
1.255:494
1.255:501
1.255:512
1.255:516
1.255:556
1.255:591
1.256:590
1.256:561
1.256:541
1.256:543
1.258:561
1.258:568
1.258:557
1.259:552
1.259:549
1.259:538
1.259:539
1.280:546
1.280:535
1.280:518
1.280:499
1.281:497
1.281:500
1.281:512
1.281:510
1.281:502
1.282:496
1.284:495
1.285:501
1.285:506
1.285:518
1.286:522
1.286:516
1.286:504
1.286:495
1.286:493
1.287:486
1.287:485
1.287:482
1.287:474
1.288:457
1.288:454
1.288:468
1.288:481
1.288:502
1.289:505
1.291:494
1.307:494
1.308:496
1.308:504
1.308:502
1.308:505
1.308:517
1.308:514
1.309:493
1.309:464
1.312:479
1.312:505
1.312:495
1.312:479
1.313:463
1.313:456
1.313:454
1.313:451
1.313:458
1.314:457
1.316:451
1.316:438
1.316:442
1.316:458
1.317:463
1.317:458
1.317:460
1.318:477
1.318:488
1.320:481
1.320:461
1.336:453
1.337:450
1.337:439
1.337:427
1.337:419
1.337:420
1.341:422
1.341:420
1.341:414
1.341:419
1.342:433
1.342:439
1.342:451
1.342:420
1.342:412
1.345:411
1.345:407
1.345:406
1.345:415
1.345:425
1.346:441
1.346:460
1.346:450
1.346:422
1.346:402
1.349:391
1.349:380
1.349:376
1.349:373
1.350:381
1.364:381
1.366:389
1.366:397
1.366:399
1.366:404
1.369:409
1.370:399
1.370:402
1.370:412
1.370:403
1.370:399
1.370:402
1.371:401
1.371:383
1.374:364
1.374:360
1.374:360
1.374:363
1.374:373
1.374:383
1.374:399
1.375:399
1.375:396
1.375:404
1.377:406
1.378:396
1.378:388
1.378:388
1.379:389
1.379:406
1.394:414
1.394:409
1.397:407
1.397:400
1.398:399
1.398:397
1.398:392
1.398:393
1.398:408
1.399:418
1.399:426
1.402:442
1.402:451
1.402:454
1.402:443
1.402:452
1.402:460
1.402:471
1.402:479
1.402:481
1.402:490
1.406:491
1.406:479
1.406:468
1.407:473
1.407:470
1.407:501
1.407:520
1.407:508
1.407:545
1.422:545
1.426:577
1.426:604
1.426:604
1.426:586
1.426:566
1.427:559
1.427:561
1.427:567
1.427:571
1.431:569
1.431:573
1.431:584
1.431:589
1.432:581
1.432:583
1.432:587
1.432:594
1.432:589
1.432:580
1.435:578
1.435:591
1.435:592
1.435:591
1.435:598
1.435:605
1.436:612
1.436:616
1.436:628
1.439:638
1.454:630
1.456:620
1.456:612
1.456:611
1.456:607
1.456:609
1.456:608
1.460:606
1.460:607
1.460:604
1.460:592
1.461:592
1.461:588
1.461:589
1.461:603
1.461:612
1.462:614
1.464:609
1.464:615
1.464:625
1.464:638
1.464:637
1.465:649
1.465:624
1.465:583
1.465:569
1.467:578
1.467:586
1.467:587
1.468:591
1.484:591
1.484:590
1.484:597
1.485:604
1.485:592
1.485:594
1.488:592
1.488:596
1.488:595
1.488:600
1.489:599
1.489:590
1.489:582
1.489:588
1.489:585
1.490:568
1.492:559
1.492:560
1.492:559
1.492:555
1.493:551
1.493:548
1.493:552
1.493:558
1.493:573
1.496:583
1.496:583
1.496:586
1.497:583
1.497:586
1.512:585
1.513:586
1.513:587
1.517:582
1.517:566
1.518:551
1.518:548
1.518:545
1.518:543
1.518:540
1.518:533
1.519:531
1.519:547
1.520:560
1.521:565
1.521:568
1.521:565
1.521:568
1.522:566
1.522:559
1.522:571
1.522:575
1.525:560
1.525:552
1.525:541
1.525:530
1.526:530
1.526:534
1.526:532
1.526:531
1.541:531
1.541:532
1.545:534
1.545:546
1.545:552
1.545:559
1.546:565
1.546:567
1.546:567
1.546:565
1.546:557
1.546:544
1.551:528
1.551:530
1.551:523
1.551:516
1.551:502
1.552:490
1.552:498
1.552:511
1.552:513
1.554:512
1.554:511
1.554:518
1.554:509
1.555:518
1.555:536
1.555:556
1.555:559
1.555:552
1.574:527
1.574:502
1.574:496
1.574:499
1.574:515
1.574:527
1.574:539
1.574:534
1.576:539
1.578:539
1.578:524
1.578:517
1.578:507
1.578:505
1.579:514
1.579:515
1.579:506
1.579:508
1.582:517
1.582:528
1.582:533
1.583:536
1.583:530
1.583:518
1.585:506
1.585:500
1.585:494
1.585:490
1.586:489
1.586:489
1.602:489
1.602:491
1.602:504
1.603:512
1.603:513
1.603:509
1.603:507
1.603:517
1.607:523
1.607:523
1.607:519
1.607:514
1.607:508
1.607:505
1.607:496
1.607:477
1.608:455
1.611:449
1.611:478
1.612:497
1.612:534
1.612:543
1.613:538
1.613:533
1.613:525
1.613:524
1.614:524
1.614:518
1.614:519
1.616:521
1.631:509
1.631:501
1.631:506
1.631:500
1.636:498
1.636:508
1.636:503
1.637:513
1.637:523
1.637:507
1.637:475
1.637:484
1.637:495
1.638:501
1.640:500
1.640:495
1.640:497
1.640:504
1.641:516
1.641:515
1.641:503
1.641:491
1.641:483
1.644:496
1.644:528
1.644:531
1.644:505
1.644:484
1.644:475
1.645:478
1.659:478
1.659:491
1.660:513
1.660:526
1.664:520
1.664:506
1.664:498
1.664:496
1.664:499
1.665:520
1.665:534
1.665:537
1.666:514
1.668:492
1.668:492
1.668:490
1.668:489
1.669:481
1.669:478
1.669:481
1.669:487
1.669:486
1.670:487
1.671:493
1.672:495
1.672:496
1.672:497
1.672:490
1.672:490
1.673:503
1.693:502
1.693:494
1.693:485
1.694:479
1.694:467
1.694:456
1.694:473
1.694:466
1.694:448
1.694:432
1.696:453
1.697:471
1.697:476
1.697:463
1.697:445
1.697:432
1.698:423
1.698:425
1.698:436
1.701:462
1.702:505
1.702:528
1.702:519
1.702:495
1.702:472
1.702:463
1.702:465
1.702:467
1.702:465
1.704:457
1.722:457
1.722:462
1.722:461
1.722:460
1.722:461
1.723:458
1.723:462
1.723:482
1.723:519
1.726:530
1.726:523
1.726:509
1.727:499
1.727:500
1.727:504
1.727:490
1.727:481
1.727:517
1.728:522
1.730:513
1.730:507
1.730:507
1.730:505
1.730:510
1.731:521
1.731:525
1.731:530
1.731:546
1.734:548
1.734:548
1.750:548
1.751:536
1.751:538
1.751:541
1.751:540
1.751:530
1.754:519
1.754:513
1.755:499
1.755:495
1.755:498
1.755:504
1.755:509
1.756:508
1.756:507
1.759:518
1.759:521
1.759:515
1.759:527
1.760:541
1.760:542
1.760:534
1.760:528
1.760:525
1.761:520
1.762:520
1.762:529
1.762:529
1.763:522
1.763:516
1.778:516
1.779:510
1.779:514
1.779:513
1.779:521
1.783:530
1.784:523
1.784:532
1.784:531
1.784:534
1.784:516
1.784:501
1.786:504
1.786:517
1.787:531
1.787:546
1.787:546
1.787:539
1.788:534
1.788:520
1.788:509
1.788:501
1.788:516
1.789:524
1.791:512
1.791:504
1.791:517
1.791:526
1.792:520
1.792:516
1.807:513
1.807:510
1.811:506
1.811:518
1.812:544
1.812:547
1.812:535
1.812:535
1.812:533
1.813:523
1.813:521
1.816:516
1.816:519
1.817:522
1.817:518
1.817:517
1.817:516
1.817:513
1.817:524
1.818:526
1.818:522
1.820:527
1.820:530
1.820:544
1.820:547
1.821:538
1.821:529
1.821:523
1.821:522
1.821:513
1.836:513
1.840:518
1.840:525
1.840:509
1.841:485
1.841:468
1.841:444
1.841:438
1.841:428
1.841:396
1.845:399
1.845:370
1.845:317
1.845:278
1.845:251
1.845:206
1.846:164
1.846:115
1.846:48
1.846:17
1.849:17
1.849:17
1.849:17
1.849:18
1.849:18
1.850:18
1.850:18
1.850:19
1.851:19
1.851:18
1.868:19
1.869:18
1.869:19
1.869:18
1.869:18
1.869:17
1.869:16
1.869:76
1.870:162
1.873:239
1.873:317
1.873:424
1.874:534
1.874:613
1.874:668
1.874:707
1.874:715
1.875:707
1.877:694
1.877:683
1.877:684
1.877:676
1.877:669
1.878:651
1.878:633
1.878:614
1.878:587
1.878:569
1.881:593
1.881:597
1.897:597
1.897:580
1.897:577
1.898:579
1.898:584
1.898:589
1.902:605
1.902:614
1.902:626
1.902:628
1.902:620
1.902:596
1.903:579
1.903:573
1.903:589
1.903:632
1.906:649
1.906:658
1.907:635
1.907:607
1.907:593
1.907:588
1.907:581
1.907:575
1.907:581
1.910:590
1.910:598
1.910:599
1.910:593
1.911:582
1.926:598
1.926:611
1.926:615
1.931:609
1.931:601
1.931:602
1.931:599
1.932:591
1.932:588
1.932:588
1.932:579
1.932:566
1.933:552
1.935:549
1.935:555
1.935:560
1.935:553
1.936:549
1.936:556
1.936:565
1.936:568
1.936:576
1.939:585
1.939:583
1.939:577
1.939:567
1.940:559
1.940:545
1.940:541
1.940:540
1.954:540
1.954:535
1.959:529
1.959:534
1.959:535
1.959:536
1.960:536
1.960:534
1.960:530
1.960:549
1.960:555
1.961:543
1.963:538
1.963:542
1.963:552
1.963:543
1.963:524
1.964:521
1.964:522
1.964:522
1.964:534
1.967:524
1.968:513
1.968:512
1.968:513
1.968:511
1.968:504
1.968:495
1.968:519
1.969:522
1.988:511
1.988:514
1.988:519
1.988:527
1.988:523
1.989:523
1.989:516
1.989:497
1.992:492
1.992:500
1.992:516
1.992:513
1.993:502
1.993:475
1.993:440
1.993:418
1.993:442
1.994:492
1.996:540
1.996:570
1.996:577
1.997:566
1.997:556
1.997:534
1.997:514
1.998:504
1.998:502
1.998:506
2.000:498
2.001:489
2.017:489
2.017:485
2.018:480
2.018:474
2.018:467
2.018:465
2.018:459
2.018:455
2.020:456
2.020:461
2.021:474
2.021:481
2.021:488
2.021:488
2.021:488
2.022:489
2.022:477
2.025:480
2.025:490
2.025:475
2.025:454
2.025:437
2.025:423
2.026:423
2.026:427
2.026:433
2.026:435
2.028:433
2.028:434
2.028:445
2.044:444
2.044:431
2.045:436
2.045:447
2.049:449
2.050:441
2.050:442
2.050:441
2.051:436
2.051:429
2.051:420
2.051:421
2.051:408
2.052:404
2.053:402
2.053:400
2.053:386
2.053:396
2.054:397
2.054:391
2.054:394
2.054:396
2.054:397
2.056:377
2.057:379
2.057:390
2.057:403
2.057:407
2.058:456
2.058:480
2.073:480
2.073:457
2.074:428
2.078:406
2.078:403
2.078:403
2.078:404
2.078:395
2.079:396
2.079:400
2.079:415
2.079:413
2.080:426
2.082:441
2.082:442
2.082:441
2.083:441
2.084:449
2.084:442
2.084:432
2.084:426
2.084:429
2.084:428
2.086:424
2.086:422
2.086:437
2.086:448
2.087:457
2.087:463
2.087:472
2.106:485
2.106:495
2.107:479
2.107:476
2.107:500
2.107:516
2.107:516
2.107:517
2.107:516
2.109:510
2.111:513
2.112:530
2.112:561
2.112:552
2.112:521
2.112:491
2.113:482
2.113:517
2.113:562
2.115:564
2.115:535
2.115:549
2.115:574
2.115:584
2.116:588
2.117:598
2.117:602
2.117:606
2.117:597
2.118:588
2.134:588
2.135:583
2.135:580
2.135:570
2.135:561
2.135:552
2.136:570
2.136:604
2.136:606
2.139:597
2.139:597
2.139:599
2.139:592
2.140:584
2.140:589
2.140:577
2.140:619
2.140:668
2.143:660
2.143:630
2.143:614
2.143:593
2.144:582
2.144:584
2.144:573
2.144:569
2.144:569
2.145:570
2.147:567
2.147:566
2.163:570
2.163:584
2.163:598
2.164:612
2.164:625
2.164:639
2.167:653
2.169:636
2.169:613
2.169:598
2.169:591
2.169:584
2.169:578
2.170:571
2.170:563
2.172:564
2.172:563
2.172:562
2.172:553
2.173:566
2.173:580
2.173:592
2.173:582
2.174:571
2.174:586
2.176:593
2.176:603
2.176:612
2.176:610
2.176:610
2.192:610
2.193:602
2.193:579
2.193:569
2.193:559
2.196:539
2.196:529
2.196:528
2.197:549
2.197:582
2.197:593
2.197:577
2.197:572
2.199:560
2.200:566
2.201:577
2.201:575
2.201:573
2.201:572
2.201:571
2.202:578
2.202:573
2.202:552
2.202:545
2.204:551
2.204:544
2.205:545
2.205:548
2.205:557
2.205:557
2.220:550
2.220:547
2.224:553
2.225:553
2.225:547
2.225:551
2.226:556
2.226:564
2.226:567
2.226:564
2.226:563
2.229:555
2.229:533
2.229:525
2.229:517
2.230:511
2.230:517
2.230:520
2.230:515
2.230:511
2.231:508
2.232:511
2.232:522
2.234:524
2.234:528
2.234:551
2.234:582
2.234:599
2.234:591
2.234:566
2.249:566
2.254:547
2.254:526
2.254:522
2.254:514
2.254:505
2.255:506
2.255:506
2.255:505
2.255:508
2.258:507
2.258:500
2.258:497
2.258:502
2.258:503
2.258:513
2.258:547
2.259:540
2.259:516
2.259:523
2.262:545
2.262:581
2.262:589
2.262:568
2.263:531
2.263:504
2.263:491
2.263:496
2.263:489
2.266:499
2.283:511
2.283:521
2.284:524
2.284:525
2.284:527
2.284:530
2.284:527
2.286:526
2.286:523
2.286:524
2.287:521
2.287:516
2.287:511
2.287:505
2.287:497
2.288:489
2.288:489
2.290:488
2.290:494
2.291:506
2.291:504
2.291:495
2.291:493
2.291:496
2.292:499
2.292:504
2.295:505
2.295:498
2.295:494
2.295:503
2.310:503
2.311:522
2.311:527
2.311:509
2.311:500
2.311:504
2.314:491
2.315:513
2.315:518
2.315:498
2.315:487
2.315:487
2.315:487
2.317:493
2.317:504
2.317:522
2.319:535
2.319:531
2.319:528
2.319:527
2.320:523
2.320:512
2.320:511
2.320:511
2.320:507
2.323:496
2.323:478
2.323:474
2.323:474
2.324:487
2.339:494
2.339:493
2.339:488
2.344:494
2.344:497
2.344:494
2.344:498
2.345:499
2.345:500
2.345:506
2.345:515
2.346:540
2.348:547
2.348:520
2.348:509
2.348:503
2.349:492
2.349:482
2.350:480
2.350:494
2.350:498
2.350:510
2.352:542
2.352:539
2.353:517
2.353:505
2.353:494
2.353:487
2.354:509
2.354:510
2.367:510
2.368:502
2.373:497
2.373:506
2.373:514
2.373:505
2.374:495
2.374:468
2.374:448
2.374:467
2.374:469
2.374:470
2.376:490
2.376:516
2.376:524
2.376:528
2.377:518
2.377:503
2.377:510
2.378:515
2.378:511
2.381:514
2.381:511
2.381:498
2.381:479
2.382:472
2.382:481
2.382:472
2.382:460
2.383:451
2.401:454
2.401:454
2.402:452
2.402:448
2.402:456
2.402:463
2.403:468
2.403:473
2.405:484
2.405:487
2.405:482
2.405:480
2.406:472
2.406:464
2.406:457
2.406:454
2.406:451
2.406:439
2.410:430
2.410:428
2.410:429
2.410:433
2.410:448
2.410:465
2.410:480
2.410:484
2.411:484
2.413:490
2.413:492
2.413:484
2.430:484
2.430:459
2.430:456
2.431:479
2.431:492
2.431:510
2.431:530
2.431:514
2.434:482
2.434:476
2.434:482
2.435:514
2.435:514
2.436:496
2.436:489
2.436:502
2.436:519
2.438:558
2.438:591
2.438:578
2.438:563
2.438:556
2.438:538
2.440:525
2.440:515
2.440:504
2.440:508
2.442:515
2.442:514
2.442:514
2.458:510
2.458:504
2.458:494
2.459:489
2.463:494
2.463:510
2.463:543
2.463:565
2.464:568
2.464:542
2.464:536
2.464:523
2.464:508
2.464:516
2.467:543
2.467:545
2.467:541
2.467:549
2.467:539
2.468:519
2.468:502
2.468:506
2.468:518
2.470:521
2.471:515
2.471:515
2.471:515
2.471:518
2.471:539
2.471:544
2.487:544
2.487:540
2.487:531
2.491:525
2.492:518
2.492:517
2.492:521
2.492:517
2.492:529
2.493:518
2.493:513
2.493:507
2.493:505
2.495:504
2.495:518
2.495:540
2.495:543
2.496:531
2.496:519
2.496:516
2.496:515
2.496:516
2.496:536
2.499:563
2.499:563
2.499:543
2.500:519
2.500:513
2.500:512
2.500:510
2.520:509
2.520:504
2.520:506
2.520:506
2.520:511
2.521:516
2.521:527
2.521:529
2.521:530
2.521:538
2.524:555
2.524:556
2.524:537
2.525:520
2.525:511
2.525:513
2.525:512
2.525:515
2.526:513
2.528:516
2.528:530
2.528:533
2.528:547
2.529:568
2.529:613
2.529:612
2.529:558
2.529:520
2.530:515
2.532:507
2.548:507
2.548:497
2.548:476
2.549:442
2.549:405
2.549:376
2.549:349
2.550:311
2.550:258
2.553:200
2.554:143
2.554:88
2.554:46
2.554:17
2.554:17
2.554:17
2.554:17
2.554:18
2.554:18
2.555:18
2.557:18
2.557:19
2.557:19
2.557:19
2.557:19
2.557:19
2.557:19
2.557:19
2.558:19
2.558:18
2.576:18
2.577:17
2.577:17
2.577:31
2.578:150
2.578:271
2.578:378
2.581:502
2.581:605
2.581:686
2.582:726
2.582:736
2.582:729
2.583:702
2.583:666
2.583:641
2.586:619
2.586:605
2.586:600
2.586:602
2.586:606
2.587:612
2.587:616
2.587:600
2.587:576
2.587:575
2.589:582
2.589:593
2.589:605
2.590:614
2.605:614
2.605:620
2.606:615
2.606:614
2.606:616
2.610:612
2.610:617
2.610:621
2.610:630
2.610:631
2.611:621
2.611:620
2.611:603
2.612:597
2.613:591
2.614:569
2.614:577
2.614:587
2.614:580
2.615:638
2.616:685
2.616:703
2.616:689
2.616:677
2.618:660
2.618:634
2.618:636
2.619:641
2.619:635
2.619:621
2.634:597
2.634:571
2.638:576
2.639:591
2.639:597
2.639:602
2.639:589
2.639:577
2.640:586
2.640:591
2.640:595
2.643:591
2.643:588
2.643:597
2.643:615
2.644:612
2.644:585
2.644:580
2.644:582
2.644:573
2.644:568
2.647:586
2.647:596
2.647:589
2.647:572
2.647:569
2.648:567
2.648:569
2.648:571
2.648:572
2.663:572
2.667:575
2.667:576
2.667:574
2.668:572
2.668:579
2.668:572
2.668:562
2.668:557
2.669:545
2.671:527
2.671:516
2.672:530
2.672:546
2.672:552
2.672:547
2.672:537
2.673:523
2.673:529
2.673:554
2.676:560
2.676:559
2.676:542
2.677:539
2.677:537
2.677:533
2.677:534
2.677:540
2.677:532
2.679:520
2.696:511
2.696:497
2.696:486
2.696:495
2.696:521
2.696:526
2.696:515
2.699:500
2.700:495
2.700:503
2.700:509
2.700:514
2.700:519
2.702:533
2.702:543
2.702:536
2.702:512
2.705:511
2.705:500
2.705:507
2.705:518
2.705:524
2.705:527
2.706:512
2.706:492
2.706:475
2.708:462
2.708:459
2.708:465
2.708:468
2.724:468
2.724:473
2.724:461
2.724:460
2.724:454
2.726:471
2.729:506
2.729:543
2.729:550
2.729:516
2.730:482
2.730:470
2.730:470
2.730:484
2.730:475
2.731:462
2.733:450
2.733:444
2.733:435
2.733:436
2.733:441
2.734:447
2.734:484
2.734:488
2.735:464
2.736:454
2.736:453
2.736:444
2.736:443
2.736:447
2.753:454
2.753:440
2.754:422
2.757:418
2.757:424
2.757:435
2.757:436
2.758:432
2.758:427
2.758:431
2.758:432
2.758:430
2.762:430
2.762:418
2.762:420
2.762:425
2.763:429
2.763:429
2.763:437
2.763:422
2.763:403
2.764:399
2.765:399
2.766:402
2.766:410
2.766:410
2.766:405
2.766:418
2.766:424
2.766:425
2.782:425
2.782:421
2.786:417
2.786:427
2.786:434
2.787:437
2.787:436
2.787:441
2.787:449
2.787:448
2.787:445
2.788:440
2.790:435
2.790:408
2.790:403
2.790:409
2.790:408
2.791:407
2.791:440
2.791:460
2.791:459
2.794:472
2.794:495
2.794:510
2.795:497
2.795:493
2.795:490
2.795:486
2.795:495
2.796:507
2.814:519
2.814:511
2.815:483
2.815:470
2.815:469
2.815:494
2.816:518
2.816:527
2.819:527
2.819:522
2.819:529
2.820:534
2.820:539
2.820:549
2.820:550
2.820:545
2.820:543
2.821:554
2.823:562
2.823:565
2.823:591
2.823:585
2.823:565
2.824:571
2.824:599
2.824:599
2.824:584
2.827:576
2.827:574
2.827:575
2.843:575
2.843:584
2.843:592
2.844:593
2.844:596
2.844:602
2.844:611
2.848:609
2.848:607
2.848:606
2.848:603
2.849:603
2.849:599
2.849:592
2.849:582
2.850:577
2.850:577
2.852:580
2.852:586
2.852:590
2.853:593
2.853:598
2.853:587
2.854:581
2.854:589
2.854:600
2.855:614
2.855:637
2.856:650
2.856:637
2.872:610
2.872:594
2.872:587
2.872:590
2.876:585
2.876:584
2.876:574
2.876:568
2.876:584
2.877:594
2.877:596
2.877:593
2.877:587
2.877:585
2.881:593
2.881:590
2.881:589
2.881:580
2.882:574
2.882:566
2.882:545
2.882:541
2.882:559
2.884:587
2.885:592
2.886:558
2.886:540
2.886:540
2.887:554
2.887:572
2.900:572
2.900:590
2.901:584
2.905:576
2.905:575
2.905:572
2.905:576
2.905:577
2.905:568
2.906:561
2.906:551
2.906:539
2.906:527
2.909:530
2.909:545
2.909:558
2.909:562
2.910:565
2.910:553
2.910:540
2.910:549
2.910:552
2.913:546
2.913:552
2.913:562
2.913:560
2.914:559
2.914:556
2.914:548
2.914:547
2.933:560
2.933:556
2.933:544
2.935:545
2.935:552
2.935:549
2.936:530
2.936:508
2.937:507
2.937:517
2.937:531
2.938:538
2.938:543
2.938:540
2.938:544
2.938:540
2.939:532
2.939:528
2.939:536
2.942:531
2.942:547
2.942:568
2.942:561
2.942:539
2.943:516
2.943:509
2.943:501
2.943:500
2.943:507
2.946:512
2.962:512
2.962:508
2.962:507
2.962:511
2.962:516
2.963:532
2.963:543
2.963:548
2.963:540
2.967:525
2.967:510
2.967:492
2.967:495
2.967:515
2.968:522
2.968:518
2.968:512
2.969:523
2.970:523
2.970:508
2.970:489
2.971:494
2.971:503
2.971:525
2.971:544
2.971:557
2.972:560
2.972:556
2.974:560
2.974:543
2.991:519
2.991:506
2.991:498
2.991:501
2.992:514
2.992:508
2.995:512
2.995:508
2.995:487
2.996:467
2.996:474
2.996:490
2.996:505
2.996:517
2.996:514
2.998:525
2.999:551
2.999:548
2.999:534
2.999:535
2.999:528
3.000:512
3.000:503
3.000:511
3.000:522
3.003:518
3.003:517
3.004:495
3.004:486
3.005:482
3.020:482
3.021:483
3.021:485
3.021:490
3.022:498
3.024:498
3.024:502
3.024:504
3.024:517
3.024:543
3.025:570
3.025:570
3.025:555
3.025:529
3.027:501
3.028:484
3.028:474
3.028:467
3.028:466
3.029:464
3.029:476
3.029:479
3.029:481
3.030:486
3.031:493
3.032:488
3.032:503
3.032:513
3.032:532
3.032:541
3.048:532
3.048:514
3.052:501
3.053:492
3.053:485
3.053:485
3.054:490
3.054:509
3.054:518
3.055:519
3.055:510
3.056:510
3.056:500
3.056:499
3.057:498
3.057:498
3.057:502
3.057:505
3.057:507
3.057:503
3.058:510
3.060:521
3.060:530
3.060:545
3.060:544
3.061:522
3.061:494
3.061:469
3.061:484
3.062:498
3.076:498
3.080:481
3.080:472
3.081:469
3.081:456
3.081:454
3.081:504
3.081:546
3.081:555
3.081:540
3.085:518
3.085:509
3.085:512
3.085:514
3.085:498
3.085:497
3.085:497
3.085:485
3.086:480
3.086:478
3.088:473
3.089:490
3.089:486
3.089:474
3.090:474
3.090:491
3.090:503
3.091:499
3.091:487
3.092:484
3.109:476
3.109:468
3.110:475
3.110:513
3.110:524
3.110:506
3.110:467
3.113:452
3.114:454
3.114:447
3.114:438
3.114:434
3.116:440
3.116:445
3.116:446
3.116:446
3.118:455
3.118:473
3.118:480
3.118:481
3.119:480
3.119:481
3.119:476
3.120:461
3.120:446
3.120:441
3.122:440
3.122:437
3.122:436
3.122:446
3.138:446
3.138:463
3.138:465
3.138:464
3.139:466
3.139:473
3.142:483
3.142:492
3.142:492
3.143:481
3.143:477
3.143:486
3.143:500
3.144:514
3.144:516
3.144:504
3.146:501
3.146:501
3.146:494
3.147:486
3.147:484
3.147:489
3.147:487
3.149:496
3.149:527
3.150:571
3.150:592
3.150:584
3.150:559
3.150:528
3.166:512
3.166:515
3.167:542
3.170:553
3.171:546
3.171:521
3.171:502
3.171:497
3.172:503
3.172:521
3.172:530
3.172:536
3.174:524
3.175:504
3.175:506
3.175:515
3.176:506
3.176:524
3.176:534
3.176:527
3.176:527
3.176:538
3.179:561
3.179:565
3.180:553
3.180:518
3.180:493
3.180:494
3.180:498
3.181:501
3.196:501
3.196:487
3.200:504
3.200:518
3.200:521
3.200:530
3.200:545
3.200:546
3.200:540
3.200:538
3.201:532
3.201:534
3.204:535
3.204:550
3.204:556
3.204:545
3.204:538
3.204:537
3.204:524
3.205:500
3.205:500
3.208:497
3.208:488
3.208:505
3.208:517
3.208:517
3.209:522
3.209:527
3.209:534
3.209:541
3.228:547
3.228:544
3.228:536
3.229:527
3.229:514
3.229:500
3.229:494
3.230:496
3.232:503
3.232:503
3.232:510
3.232:523
3.233:519
3.233:506
3.233:495
3.234:499
3.234:510
3.234:512
3.236:522
3.236:530
3.236:522
3.237:538
3.237:553
3.237:570
3.237:581
3.237:587
3.237:574
3.241:545
3.241:528
3.241:531
3.257:531
3.257:549
3.257:553
3.257:542
3.258:534
3.258:525
3.258:515
3.261:518
3.261:516
3.261:484
3.261:437
3.262:423
3.262:431
3.262:411
3.262:383
3.262:347
3.263:295
3.266:239
3.266:181
3.266:125
3.267:66
3.267:17
3.267:17
3.267:17
3.267:17
3.268:18
3.268:18
3.268:18
3.269:19
3.269:19
3.286:19
3.286:19
3.286:19
3.286:19
3.286:20
3.287:20
3.290:19
3.290:19
3.290:19
3.290:18
3.290:18
3.290:17
3.290:23
3.291:140
3.291:252
3.291:389
3.294:499
3.294:586
3.295:668
3.295:718
3.295:724
3.296:710
3.296:687
3.296:663
3.296:642
3.296:626
3.298:615
3.299:613
3.299:598
3.299:584
3.314:584
3.314:571
3.315:569
3.318:591
3.318:591
3.318:596
3.318:604
3.318:611
3.319:621
3.319:623
3.319:618
3.319:624
3.319:640
3.322:651
3.323:650
3.323:645
3.323:639
3.323:627
3.323:615
3.324:608
3.324:604
3.324:610
3.326:615
3.327:612
3.327:607
3.327:621
3.327:631
3.327:631
3.328:634
3.328:632
3.346:648
3.346:664
3.348:667
3.348:661
3.348:648
3.348:642
3.348:639
3.349:628
3.349:613
3.349:603
3.351:591
3.351:596
3.351:620
3.351:632
3.351:614
3.351:604
3.353:586
3.353:581
3.353:585
3.355:598
3.355:614
3.355:616
3.356:609
3.356:596
3.356:584
3.357:574
3.357:569
3.357:571
3.357:571
3.359:589
3.376:589
3.376:617
3.376:620
3.377:599
3.377:576
3.377:547
3.377:558
3.378:575
3.378:573
3.380:560
3.380:556
3.380:576
3.380:589
3.381:579
3.381:582
3.381:578
3.382:576
3.382:579
3.383:578
3.384:568
3.384:553
3.384:544
3.384:540
3.384:529
3.384:520
3.384:514
3.386:529
3.386:544
3.388:541
3.388:543
3.404:538
3.405:543
3.405:571
3.405:585
3.405:578
3.405:563
3.408:546
3.408:530
3.408:519
3.408:507
3.408:518
3.409:520
3.409:508
3.409:500
3.409:501
3.413:497
3.413:498
3.413:507
3.413:514
3.414:513
3.414:510
3.414:498
3.414:479
3.414:481
3.414:512
3.416:543
3.416:548
3.417:524
3.417:506
3.417:509
3.433:509
3.433:523
3.433:522
3.434:518
3.434:510
3.437:491
3.437:473
3.437:464
3.437:463
3.437:469
3.438:476
3.438:483
3.438:489
3.438:496
3.441:507
3.441:499
3.441:484
3.441:473
3.442:468
3.442:462
3.442:458
3.442:468
3.442:467
3.443:456
3.445:431
3.445:425
3.445:451
3.445:473
3.446:466
3.446:464
3.462:455
3.466:448
3.466:464
3.467:466
3.467:452
3.467:449
3.468:462
3.468:465
3.468:448
3.469:451
3.469:443
3.470:431
3.470:413
3.470:403
3.470:402
3.471:413
3.471:438
3.471:443
3.471:419
3.471:402
3.472:401
3.474:429
3.474:453
3.474:452
3.474:432
3.474:420
3.474:416
3.474:419
3.475:431
3.475:427
3.490:427
3.494:419
3.494:406
3.494:386
3.494:383
3.494:385
3.494:388
3.496:384
3.496:376
3.496:369
3.498:376
3.499:394
3.500:438
3.500:456
3.500:441
3.500:439
3.500:439
3.500:436
3.500:447
3.501:455
3.503:447
3.503:439
3.503:434
3.503:433
3.503:434
3.504:433
3.504:420
3.504:419
3.504:424
3.506:427
3.523:433
3.523:450
3.523:466
3.523:483
3.523:496
3.524:493
3.524:495
3.527:504
3.527:513
3.527:514
3.527:512
3.528:520
3.528:512
3.528:497
3.528:499
3.528:510
3.531:519
3.532:521
3.532:522
3.532:529
3.532:530
3.532:524
3.533:539
3.533:571
3.533:595
3.533:599
3.535:590
3.535:576
3.535:572
3.536:566
3.552:566
3.552:556
3.552:567
3.552:588
3.552:599
3.552:575
3.556:558
3.556:564
3.556:569
3.556:573
3.556:599
3.557:620
3.557:625
3.557:617
3.557:620
3.557:611
3.560:606
3.560:620
3.560:617
3.560:609
3.560:603
3.561:587
3.561:598
3.561:617
3.561:613
3.564:599
3.564:602
3.565:593
3.565:588
3.565:591
3.580:594
3.580:600
3.581:614
3.584:618
3.584:617
3.584:611
3.584:607
3.584:612
3.584:607
3.584:590
3.584:577
3.584:579
3.589:584
3.589:582
3.589:577
3.589:581
3.589:589
3.589:591
3.590:594
3.590:587
3.590:581
3.590:570
3.593:559
3.593:562
3.593:566
3.593:572
3.593:573
3.593:588
3.593:610
3.593:611
3.608:611
3.608:595
3.613:594
3.613:611
3.613:622
3.614:608
3.614:577
3.615:545
3.615:537
3.615:544
3.615:560
3.616:573
3.617:577
3.617:580
3.617:587
3.617:587
3.617:588
3.617:587
3.617:586
3.618:581
3.618:568
3.621:542
3.621:528
3.621:517
3.621:513
3.621:524
3.622:525
3.622:533
3.622:557
3.622:585
3.642:591
3.642:555
3.642:533
3.642:555
3.642:556
3.643:542
3.643:551
3.643:566
3.646:565
3.646:558
3.646:555
3.646:556
3.647:563
3.647:560
3.647:537
3.647:519
3.648:513
3.648:511
3.650:502
3.650:495
3.650:493
3.650:502
3.651:520
3.651:544
3.651:567
3.651:577
3.651:571
3.654:569
3.654:566
3.654:559
3.670:559
3.670:548
3.670:533
3.671:521
3.671:515
3.671:504
3.671:503
3.675:511
3.675:515
3.675:511
3.675:510
3.675:512
3.675:517
3.676:516
3.676:544
3.676:560
3.676:554
3.679:550
3.679:540
3.679:527
3.679:506
3.680:490
3.680:490
3.680:498
3.680:490
3.680:491
3.683:519
3.683:556
3.683:564
3.683:554
3.699:546
3.699:544
3.699:534
3.699:523
3.704:528
3.704:540
3.704:540
3.704:538
3.705:525
3.705:514
3.705:507
3.705:504
3.705:500
3.706:492
3.707:494
3.707:505
3.707:521
3.708:520
3.708:507
3.708:497
3.708:503
3.708:518
3.709:535
3.712:529
3.712:529
3.712:555
3.712:564
3.713:543
3.713:523
3.713:491
3.728:491
3.728:470
3.728:470
3.732:469
3.732:500
3.732:533
3.733:519
3.733:496
3.733:480
3.735:489
3.735:502
3.735:493
3.735:488
3.736:491
3.736:505
3.737:509
3.737:514
3.737:505
3.737:490
3.738:476
3.738:475
3.738:493
3.740:525
3.740:527
3.740:523
3.740:511
3.741:495
3.741:483
3.741:483
3.741:499
3.761:509
3.761:511
3.761:505
3.761:502
3.762:506
3.762:509
3.762:510
3.762:506
3.762:508
3.762:511
3.765:516
3.765:517
3.765:508
3.765:496
3.765:494
3.765:491
3.765:485
3.765:486
3.767:483
3.769:487
3.769:490
3.769:479
3.769:469
3.770:473
3.770:498
3.770:529
3.770:549
3.770:548
3.771:526
3.772:506
3.789:506
3.790:506
3.790:528
3.790:539
3.790:526
3.790:524
3.791:512
3.791:489
3.791:477
3.793:472
3.794:483
3.794:504
3.794:517
3.794:507
3.794:490
3.795:473
3.795:489
3.795:514
3.797:522
3.797:517
3.799:522
3.799:531
3.799:527
3.799:518
3.799:504
3.799:497
3.799:492
3.799:497
3.801:498
3.801:500
3.817:500
3.817:495
3.818:501
3.818:514
3.818:503
3.822:489
3.822:483
3.822:497
3.822:522
3.823:529
3.823:507
3.823:502
3.823:521
3.823:535
3.824:531
3.826:508
3.826:492
3.826:477
3.826:478
3.826:500
3.826:501
3.827:491
3.827:477
3.827:456
3.827:482
3.829:499
3.830:497
3.830:493
3.830:495
3.830:501
3.846:501
3.847:517
3.847:525
3.847:527
3.847:516
3.850:504
3.851:491
3.851:483
3.851:478
3.851:474
3.852:482
3.852:496
3.852:494
3.852:484
3.855:492
3.855:501
3.855:510
3.855:507
3.855:508
3.856:511
3.856:504
3.856:501
3.856:507
3.856:505
3.858:494
3.858:480
3.859:492
3.859:507
3.859:502
3.859:489
3.874:471
3.879:458
3.879:456
3.879:458
3.879:458
3.880:455
3.880:453
3.880:466
3.880:480
3.881:484
3.882:476
3.883:487
3.883:511
3.883:494
3.883:466
3.884:457
3.884:449
3.884:445
3.884:439
3.884:422
3.888:424
3.888:441
3.888:457
3.888:470
3.889:480
3.889:467
3.889:451
3.889:459
3.889:476
3.889:491
3.904:491
3.908:479
3.908:480
3.908:483
3.908:466
3.908:448
3.909:455
3.909:463
3.909:453
3.909:441
3.912:442
3.912:452
3.912:464
3.912:479
3.913:465
3.913:473
3.913:482
3.913:494
3.913:507
3.914:504
3.915:492
3.916:502
3.916:519
3.916:524
3.916:521
3.916:512
3.916:518
3.916:522
3.916:509
3.920:498
3.937:486
3.937:482
3.937:483
3.937:493
3.937:505
3.937:508
3.938:503
3.941:505
3.941:524
3.941:538
3.941:553
3.942:541
3.942:520
3.942:508
3.942:510
3.942:524
3.945:518
3.945:498
3.945:500
3.945:508
3.946:495
3.946:499
3.946:514
3.946:520
3.946:525
3.946:538
3.948:541
3.949:533
3.949:527
3.949:522
3.965:522
3.965:535
3.966:557
3.966:564
3.966:546
3.966:520
3.969:528
3.969:528
3.969:530
3.970:525
3.970:513
3.970:503
3.970:499
3.970:491
3.970:493
3.971:516
3.973:540
3.973:547
3.973:545
3.973:543
3.974:527
3.974:519
3.974:519
3.974:514
3.974:499
3.977:492
3.978:496
3.978:513
3.978:523
3.978:549
3.994:558
3.994:546
3.994:524
3.998:505
3.998:502
3.998:503
3.999:511
3.999:526
3.999:526
3.999:527
3.999:527
4.000:525
4.002:518
4.002:516
4.002:518
4.002:515
4.003:502
4.003:495
4.003:499
4.003:491
4.003:498
4.004:499
4.006:499
4.006:501
4.006:501
4.006:500
4.006:499
4.006:501
4.007:524
4.007:533
4.022:533
4.022:524
4.027:515
4.027:507
4.027:517
4.027:519
4.027:520
4.028:530
4.028:544
4.028:545
4.028:532
4.031:527
4.031:533
4.032:533
4.032:550
4.032:553
4.032:529
4.032:500
4.032:485
4.032:522
4.033:531
4.035:505
4.036:496
4.036:480
4.036:449
4.036:403
4.036:355
4.036:311
4.037:262
4.037:209
4.056:153
4.056:91
4.056:31
4.056:17
4.056:17
4.056:17
4.056:17
4.056:18
4.056:18
4.056:18
4.060:19
4.060:19
4.060:19
4.060:19
4.061:20
4.061:20
4.061:20
4.061:20
4.061:20
4.061:19
4.061:19
4.062:18
4.064:18
4.064:17
4.064:49
4.065:173
4.065:291
4.065:426
4.065:539
4.065:632
4.084:632
4.084:699
4.084:732
4.084:735
4.084:709
4.084:673
4.084:650
4.088:625
4.088:598
4.088:587
4.088:575
4.089:555
4.089:547
4.089:558
4.089:573
4.089:589
4.090:612
4.092:631
4.092:647
4.092:649
4.092:628
4.093:637
4.093:636
4.093:627
4.093:618
4.093:616
4.096:629
4.096:639
4.096:639
4.096:637
4.113:631
4.113:626
4.113:620
4.113:619
4.116:615
4.116:606
4.117:601
4.117:607
4.117:627
4.117:652
4.117:671
4.118:673
4.118:656
4.118:632
4.120:623
4.121:621
4.121:633
4.121:627
4.121:613
4.121:607
4.121:592
4.122:600
4.122:598
4.125:588
4.126:583
4.126:588
4.126:596
4.126:607
4.127:611
4.127:597
4.141:597
4.141:609
4.141:620
4.146:612
4.146:607
4.146:603
4.147:598
4.147:585
4.147:573
4.147:576
4.147:578
4.148:572
4.148:556
4.150:579
4.150:597
4.150:586
4.151:566
4.151:571
4.151:577
4.151:582
4.151:582
4.151:588
4.154:598
4.154:603
4.154:592
4.154:577
4.154:563
4.154:553
4.155:544
4.155:529
4.174:535
4.174:537
4.174:525
4.174:525
4.174:529
4.174:528
4.176:531
4.176:536
4.176:555
4.176:558
4.178:546
4.178:549
4.179:556
4.179:545
4.179:541
4.179:538
4.179:541
4.180:545
4.180:538
4.182:536
4.183:527
4.183:517
4.183:501
4.183:505
4.183:513
4.184:511
4.184:526
4.184:544
4.184:539
4.185:523
4.203:523
4.203:504
4.203:500
4.203:511
4.203:518
4.204:520
4.204:529
4.204:532
4.204:518
4.207:500
4.207:489
4.207:485
4.207:477
4.208:469
4.208:471
4.208:469
4.208:464
4.208:467
4.211:455
4.211:477
4.211:502
4.211:513
4.212:525
4.212:523
4.212:516
4.212:490
4.212:483
4.213:488
4.215:484
4.216:482
4.232:482
4.232:477
4.232:463
4.232:464
4.232:453
4.235:439
4.236:436
4.236:433
4.236:431
4.237:439
4.237:463
4.237:451
4.237:442
4.237:459
4.238:491
4.240:507
4.240:487
4.240:451
4.240:434
4.241:422
4.241:417
4.241:421
4.241:417
4.241:423
4.244:423
4.244:417
4.244:394
4.244:400
4.244:415
4.244:429
4.260:429
4.260:428
4.260:420
4.260:415
4.260:412
4.264:418
4.265:423
4.265:430
4.266:425
4.266:417
4.266:408
4.266:409
4.266:412
4.266:398
4.269:385
4.269:373
4.269:371
4.269:376
4.270:384
4.270:385
4.270:391
4.270:416
4.270:428
4.271:431
4.272:422
4.273:424
4.273:439
4.273:446
4.273:451
4.273:464
4.288:461
4.293:447
4.293:422
4.293:398
4.293:385
4.294:391
4.294:413
4.294:422
4.294:424
4.294:427
4.294:435
4.296:442
4.298:448
4.298:460
4.298:463
4.299:460
4.299:452
4.299:465
4.299:477
4.299:473
4.301:483
4.301:495
4.301:504
4.301:514
4.302:521
4.302:506
4.302:499
4.302:515
4.302:532
4.302:532
4.322:532
4.322:538
4.322:548
4.322:566
4.323:578
4.323:571
4.323:565
4.323:564
4.323:570
4.324:562
4.326:555
4.326:562
4.326:564
4.326:562
4.327:550
4.327:544
4.327:550
4.327:580
4.327:607
4.327:620
4.330:605
4.330:590
4.330:587
4.330:586
4.331:594
4.331:607
4.332:615
4.332:600
4.332:591
4.334:587
4.350:594
4.350:602
4.350:611
4.350:609
4.351:596
4.351:592
4.351:595
4.355:597
4.355:591
4.355:586
4.355:596
4.355:606
4.355:605
4.355:596
4.356:597
4.356:590
4.359:617
4.359:629
4.359:615
4.359:600
4.359:598
4.360:595
4.360:593
4.360:579
4.360:565
4.360:603
4.362:628
4.362:621
4.362:600
4.364:570
4.379:570
4.379:567
4.379:582
4.379:584
4.379:581
4.380:579
4.383:572
4.383:580
4.383:596
4.383:599
4.384:598
4.384:587
4.384:578
4.384:581
4.384:580
4.386:558
4.387:546
4.387:542
4.387:533
4.387:533
4.387:548
4.388:555
4.388:563
4.388:589
4.388:619
4.391:621
4.391:594
4.391:572
4.391:575
4.392:593
4.408:595
4.408:590
4.408:580
4.412:577
4.412:557
4.412:536
4.412:527
4.412:520
4.413:523
4.413:534
4.413:544
4.413:553
4.415:558
4.416:558
4.416:557
4.416:562
4.416:560
4.416:558
4.417:553
4.417:554
4.417:553
4.417:548
4.420:542
4.420:542
4.420:535
4.420:526
4.421:521
4.421:513
4.421:509
4.421:517
4.435:517
4.435:526
4.441:533
4.441:547
4.441:549
4.441:549
4.442:545
4.442:529
4.442:512
4.442:516
4.442:511
4.445:502
4.445:527
4.445:599
4.445:625
4.445:593
4.445:538
4.445:516
4.446:527
4.446:540
4.446:542
4.449:526
4.449:513
4.449:511
4.449:516
4.449:510
4.450:501
4.450:505
4.450:535
4.450:510
4.469:509
4.469:524
4.469:541
4.470:532
4.470:522
4.470:512
4.470:510
4.470:526
4.473:529
4.473:525
4.473:530
4.473:548
4.474:543
4.474:533
4.474:517
4.474:510
4.474:513
4.475:517
4.477:517
4.477:513
4.477:517
4.477:527
4.477:526
4.478:517
4.478:497
4.478:482
4.478:481
4.481:484
4.482:483
4.482:489
4.498:489
4.498:498
4.498:500
4.498:495
4.498:486
4.498:499
4.499:536
4.501:548
4.501:534
4.502:514
4.502:515
4.502:514
4.502:507
4.502:498
4.502:492
4.503:490
4.503:477
4.506:483
4.506:495
4.506:490
4.507:474
4.507:462
4.507:468
4.507:483
4.508:501
4.508:528
4.510:562
4.510:566
4.510:546
4.510:529
4.526:520
4.526:510
4.526:513
4.526:515
4.531:501
4.532:481
4.532:473
4.532:476
4.532:470
4.532:482
4.533:496
4.533:506
4.533:511
4.533:506
4.534:496
4.534:493
4.534:507
4.534:516
4.535:525
4.535:520
4.535:507
4.535:494
4.535:500
4.539:515
4.539:504
4.539:495
4.539:484
4.540:473
4.540:481
4.540:495
4.555:495
4.555:492
4.555:490
4.558:491
4.559:497
4.559:516
4.559:516
4.559:542
4.559:535
4.560:527
4.560:524
4.560:524
4.560:516
4.562:524
4.562:524
4.562:506
4.562:490
4.562:473
4.562:472
4.564:479
4.564:486
4.565:487
4.567:466
4.567:469
4.568:489
4.568:504
4.568:531
4.568:553
4.568:549
4.568:528
4.588:515
4.588:525
4.588:524
4.588:512
4.589:504
4.589:500
4.589:491
4.589:475
4.589:466
4.592:471
4.592:477
4.592:478
4.592:481
4.592:477
4.593:481
4.593:495
4.593:507
4.593:525
4.594:522
4.596:520
4.596:521
4.596:524
4.596:529
4.597:518
4.597:496
4.597:490
4.597:501
4.597:507
4.598:503
4.599:494
4.616:494
4.616:490
4.616:484
4.617:485
4.617:493
4.617:486
4.617:476
4.618:482
4.618:504
4.620:534
4.620:543
4.620:552
4.620:554
4.620:532
4.621:518
4.621:508
4.621:509
4.621:508
4.625:491
4.625:480
4.625:479
4.625:483
4.625:487
4.626:494
4.626:495
4.626:494
4.626:491
4.626:491
4.628:501
4.629:521
4.644:552
4.644:553
4.644:525
4.646:503
4.646:488
4.649:500
4.649:507
4.649:498
4.649:493
4.650:479
4.650:477
4.650:491
4.650:469
4.650:470
4.651:500
4.653:501
4.653:491
4.653:490
4.653:507
4.654:529
4.654:527
4.654:516
4.654:516
4.654:512
4.657:492
4.657:474
4.657:501
4.657:518
4.657:519
4.658:511
4.674:511
4.674:486
4.674:490
4.674:504
4.678:496
4.678:485
4.678:471
4.678:471
4.679:493
4.679:509
4.679:502
4.679:493
4.679:488
4.679:490
4.682:502
4.683:517
4.683:521
4.683:504
4.683:488
4.683:468
4.683:461
4.684:464
4.684:468
4.684:465
4.686:460
4.686:449
4.686:446
4.686:449
4.686:462
4.687:496
4.702:524
4.707:516
4.707:492
4.707:474
4.707:469
4.707:470
4.708:460
4.708:451
4.708:445
4.708:430
4.708:421
4.711:424
4.711:439
4.711:447
4.711:445
4.712:448
4.712:462
4.712:462
4.712:456
4.712:459
4.714:454
4.715:448
4.715:447
4.715:452
4.715:473
4.715:502
4.716:502
4.716:475
4.716:455
4.716:435
4.735:435
4.735:440
4.735:454
4.735:457
4.736:458
4.736:459
4.736:468
4.736:480
4.736:481
4.737:485
4.739:488
4.739:493
4.739:506
4.739:508
4.740:516
4.740:523
4.740:514
4.740:509
4.740:502
4.744:491
4.744:478
4.744:470
4.744:449
4.745:474
4.745:535
4.745:550
4.745:551
4.745:550
4.746:535
4.747:528
4.765:529
4.765:528
4.765:528
4.765:531
4.766:538
4.766:541
4.766:522
4.768:497
4.768:478
4.768:482
4.769:479
4.769:531
4.769:568
4.769:551
4.769:522
4.769:506
4.772:489
4.772:491
4.772:506
4.772:520
4.773:524
4.773:527
4.773:529
4.773:532
4.773:536
4.774:530
4.776:518
4.776:514
4.776:521
4.777:524
4.792:524
4.793:517
4.793:506
4.793:506
4.793:510
4.793:510
4.796:512
4.796:512
4.798:513
4.798:515
4.798:518
4.798:514
4.798:511
4.798:507
4.799:511
4.801:527
4.801:535
4.801:539
4.801:539
4.802:521
4.802:498
4.802:501
4.802:515
4.802:518
4.803:520
4.805:513
4.805:491
4.805:503
4.805:517
4.805:520
4.821:525
4.821:540
4.821:534
4.825:529
4.826:529
4.826:526
4.826:513
4.826:505
4.826:528
4.826:560
4.826:541
4.826:517
4.829:492
4.829:482
4.829:493
4.831:490
4.831:493
4.831:505
4.831:521
4.832:536
4.832:538
4.832:521
4.834:499
4.834:491
4.834:509
4.834:520
4.835:528
4.835:514
4.835:516
4.835:526
4.849:526
4.850:511
4.854:503
4.854:504
4.854:508
4.854:511
4.854:506
4.855:511
4.855:523
4.855:545
4.855:557
4.858:578
4.858:585
4.858:575
4.858:554
4.858:523
4.858:512
4.859:514
4.859:492
4.859:459
4.859:425
4.862:393
4.862:380
4.862:359
4.862:328
4.862:294
4.864:251
4.864:202
4.864:159
4.864:104
4.883:41
4.883:17
4.883:17
4.883:17
4.883:18
4.883:18
4.884:18
4.884:18
4.884:19
4.884:19
4.886:20
4.886:20
4.886:20
4.886:20
4.887:20
4.887:20
4.887:20
4.887:19
4.887:19
4.887:18
4.888:17
4.888:17
4.891:125
4.891:235
4.891:339
4.891:473
4.892:575
4.892:649
4.892:685
4.892:704
4.911:704
4.911:695
4.912:664
4.912:654
4.912:634
4.912:617
4.912:604
4.915:598
4.915:595
4.915:598
4.915:597
4.916:589
4.916:584
4.916:600
4.916:626
4.916:648
4.917:657
4.920:655
4.920:651
4.920:639
4.921:622
4.921:606
4.921:591
4.921:588
4.921:592
4.921:599
4.923:604
4.923:608
4.923:605
4.923:605
4.940:607
4.940:618
4.940:639
4.940:645
4.944:641
4.944:640
4.944:653
4.944:670
4.945:683
4.945:675
4.945:666
4.945:647
4.945:610
4.946:592
4.948:593
4.948:598
4.949:601
4.949:602
4.949:599
4.949:604
4.949:607
4.950:593
4.950:582
4.952:585
4.952:611
4.952:638
4.952:646
4.953:639
4.953:617
4.953:594
4.968:594
4.968:580
4.968:565
4.973:553
4.973:565
4.973:574
4.973:573
4.974:565
4.974:570
4.974:589
4.974:606
4.974:600
4.974:589
4.976:592
4.976:591
4.976:588
4.976:580
4.976:573
4.977:568
4.977:569
4.977:580
4.977:584
4.980:567
4.981:547
4.981:536
4.981:531
4.981:540
4.982:545
4.982:548
4.982:555
5.001:553
5.001:548
5.001:542
5.001:542
5.002:542
5.002:542
5.002:540
5.002:548
5.002:562
5.005:565
5.005:548
5.005:536
5.006:528
5.006:519
5.006:512
5.006:506
5.006:506
5.006:506
5.006:504
5.010:501
5.010:519
5.010:531
5.010:529
5.011:526
5.011:531
5.011:527
5.011:525
5.011:520
5.012:523
5.013:540
5.030:540
5.030:550
5.030:542
5.031:515
5.031:481
5.031:465
5.032:462
5.032:470
5.032:480
5.033:481
5.034:485
5.034:486
5.034:481
5.034:489
5.034:507
5.035:523
5.035:526
5.036:510
5.038:494
5.038:497
5.038:497
5.038:477
5.039:451
5.039:441
5.039:446
5.039:468
5.039:481
5.040:501
5.042:516
5.042:512
5.058:491
5.058:455
5.058:448
5.058:465
5.059:463
5.063:455
5.064:449
5.064:457
5.064:461
5.064:466
5.065:462
5.065:450
5.065:444
5.066:437
5.066:434
5.066:435
5.066:439
5.067:437
5.067:436
5.067:432
5.067:431
5.067:427
5.068:417
5.068:427
5.071:442
5.071:444
5.071:440
5.071:431
5.072:427
5.072:429
5.087:429
5.087:432
5.088:428
5.088:422
5.092:419
5.092:411
5.092:403
5.092:394
5.092:390
5.093:386
5.093:377
5.093:377
5.093:392
5.094:409
5.096:414
5.096:422
5.096:433
5.096:431
5.097:425
5.098:420
5.098:419
5.098:400
5.099:395
5.099:398
5.099:396
5.099:394
5.100:388
5.100:391
5.100:397
5.100:408
5.115:428
5.120:438
5.120:448
5.120:449
5.120:446
5.121:444
5.121:455
5.121:464
5.121:463
5.121:454
5.122:445
5.124:448
5.125:451
5.125:450
5.125:440
5.126:430
5.126:424
5.126:453
5.126:474
5.126:485
5.128:485
5.128:489
5.128:503
5.128:518
5.129:543
5.129:556
5.129:563
5.130:563
5.130:564
5.130:554
5.149:554
5.149:552
5.149:540
5.149:536
5.149:545
5.149:548
5.149:559
5.150:558
5.150:552
5.150:548
5.153:554
5.153:545
5.153:560
5.153:585
5.154:570
5.154:587
5.154:605
5.154:607
5.154:589
5.156:594
5.156:594
5.157:594
5.157:599
5.157:605
5.157:603
5.157:591
5.158:583
5.158:590
5.158:598
5.161:600
5.177:585
5.178:579
5.178:584
5.178:600
5.178:622
5.178:634
5.179:631
5.181:630
5.181:624
5.181:618
5.181:610
5.181:607
5.183:605
5.183:604
5.183:603
5.183:594
5.185:585
5.186:579
5.186:580
5.186:579
5.186:586
5.187:587
5.187:594
5.187:610
5.187:606
5.187:611
5.190:605
5.190:591
5.190:587
5.190:589
5.206:589
5.206:602
5.206:611
5.206:607
5.207:595
5.207:581
5.210:560
5.210:550
5.210:551
5.210:556
5.211:560
5.211:562
5.211:567
5.211:571
5.211:574
5.214:577
5.214:585
5.214:581
5.215:569
5.215:564
5.215:568
5.216:564
5.216:554
5.216:540
5.216:541
5.218:567
5.218:600
5.219:607
5.219:607
5.219:556
5.234:548
5.234:563
5.234:557
5.238:551
5.238:548
5.239:552
5.239:574
5.239:583
5.239:579
5.239:574
5.239:576
5.240:575
5.243:567
5.243:552
5.243:538
5.243:532
5.244:532
5.244:533
5.244:512
5.244:523
5.244:545
5.244:558
5.247:549
5.248:567
5.248:578
5.249:570
5.249:558
5.249:548
5.249:546
5.250:534
5.263:534
5.263:522
5.267:542
5.267:553
5.267:546
5.267:543
5.267:537
5.268:524
5.268:514
5.268:518
5.268:521
5.272:508
5.272:523
5.272:528
5.272:523
5.273:535
5.273:540
5.273:543
5.273:541
5.273:537
5.274:531
5.275:527
5.275:526
5.275:530
5.276:530
5.276:527
5.276:515
5.276:495
5.276:486
5.277:485
5.296:495
5.296:512
5.296:518
5.296:513
5.296:519
5.297:518
5.297:521
5.297:513
5.300:508
5.300:492
5.300:476
5.300:483
5.301:511
5.301:550
5.301:547
5.301:541
5.301:540
5.302:537
5.304:532
5.304:495
5.304:479
5.304:483
5.304:481
5.304:488
5.305:509
5.305:520
5.306:521
5.308:527
5.308:525
5.308:526
5.324:526
5.324:527
5.324:524
5.324:520
5.325:509
5.325:505
5.326:501
5.329:497
5.329:484
5.329:475
5.329:482
5.331:486
5.331:493
5.331:504
5.331:523
5.331:523
5.331:519
5.332:514
5.333:520
5.333:527
5.333:523
5.333:517
5.333:512
5.334:511
5.334:509
5.334:505
5.337:500
5.337:493
5.337:481
5.337:472
5.353:471
5.354:482
5.354:488
5.354:486
5.358:486
5.358:495
5.358:501
5.358:500
5.359:496
5.359:510
5.359:525
5.359:520
5.359:523
5.362:542
5.362:527
5.362:513
5.362:499
5.362:486
5.363:483
5.363:487
5.363:491
5.363:486
5.363:488
5.366:503
5.366:503
5.366:496
5.366:485
5.366:501
5.367:510
5.367:511
5.382:511
5.382:511
5.382:513
5.386:513
5.386:511
5.386:495
5.386:482
5.387:478
5.387:460
5.387:456
5.387:462
5.387:484
5.387:527
5.390:541
5.390:533
5.390:535
5.390:527
5.390:533
5.391:531
5.391:524
5.391:517
5.391:513
5.394:517
5.394:521
5.394:522
5.395:513
5.395:504
5.395:489
5.395:467
5.395:468
5.414:483
5.415:488
5.415:481
5.415:483
5.415:487
5.416:487
5.416:489
5.416:512
5.416:530
5.419:532
5.419:523
5.419:512
5.419:513
5.420:526
5.420:504
5.420:496
5.420:526
5.420:526
5.420:506
5.423:496
5.423:500
5.423:497
5.423:492
5.423:493
5.423:489
5.424:487
5.424:489
5.424:495
5.426:507
5.426:516
5.443:516
5.443:514
5.444:506
5.444:501
5.444:508
5.444:526
5.444:524
5.444:493
5.444:489
5.446:490
5.446:475
5.446:473
5.448:490
5.448:497
5.448:501
5.448:507
5.448:512
5.449:519
5.452:519
5.452:521
5.452:519
5.452:521
5.453:513
5.453:515
5.453:514
5.453:503
5.453:492
5.454:483
5.455:495
5.455:498
5.472:501
5.472:488
5.472:478
5.472:479
5.473:487
5.476:494
5.476:498
5.476:496
5.476:486
5.476:498
5.476:529
5.477:559
5.477:548
5.477:525
5.477:487
5.480:501
5.480:500
5.481:485
5.481:491
5.481:497
5.481:492
5.481:478
5.481:476
5.481:478
5.484:487
5.484:507
5.484:541
5.485:550
5.485:534
5.485:514
5.501:514
5.501:502
5.501:502
5.501:502
5.505:495
5.505:511
5.505:526
5.505:525
5.506:513
5.506:513
5.506:512
5.506:491
5.506:480
5.507:477
5.509:474
5.509:470
5.509:484
5.509:501
5.510:507
5.510:501
5.510:506
5.510:508
5.510:498
5.513:480
5.513:492
5.513:507
5.514:525
5.514:526
5.514:512
5.514:498
5.529:485
5.534:479
5.534:472
5.534:471
5.534:465
5.534:465
5.534:470
5.535:483
5.535:500
5.535:509
5.535:510
5.537:506
5.537:491
5.538:483
5.538:492
5.538:493
5.538:490
5.538:484
5.539:482
5.539:484
5.542:469
5.542:454
5.542:447
5.542:449
5.542:451
5.542:465
5.543:478
5.543:484
5.543:483
5.543:481
5.562:481
5.563:484
5.563:480
5.563:478
5.565:473
5.565:468
5.565:462
5.565:455
5.565:449
5.566:442
5.566:433
5.566:436
5.566:441
5.567:431
5.567:423
5.567:429
5.567:437
5.567:443
5.567:447
5.571:446
5.571:450
5.571:467
5.571:476
5.572:470
5.572:452
5.572:433
5.572:426
5.572:464
5.572:471
5.574:453
5.591:452
5.591:463
5.591:472
5.591:475
5.592:481
5.592:472
5.592:462
5.594:463
5.595:474
5.595:481
5.595:499
5.595:514
5.595:509
5.595:504
5.596:512
5.596:524
5.599:533
5.599:527
5.599:510
5.599:500
5.600:490
5.600:487
5.600:494
5.600:509
5.601:508
5.601:519
5.602:520
5.602:509
5.603:503
5.603:499
5.619:499
5.619:515
5.619:548
5.619:553
5.620:539
5.620:529
5.624:510
5.624:509
5.624:503
5.624:510
5.624:522
5.625:516
5.625:482
5.625:474
5.625:490
5.628:512
5.628:516
5.628:511
5.628:515
5.629:522
5.629:515
5.629:510
5.629:517
5.629:520
5.630:521
5.632:532
5.632:540
5.632:533
5.632:523
5.632:528
5.647:531
5.647:519
5.647:495
5.652:481
5.652:480
5.652:489
5.652:510
5.652:526
5.653:521
5.653:507
5.653:515
5.653:532
5.656:541
5.656:532
5.656:527
5.656:532
5.656:526
5.657:522
5.657:529
5.657:541
5.657:546
5.657:523
5.660:508
5.660:507
5.660:503
5.660:499
5.661:505
5.661:532
5.661:542
5.661:528
5.676:528
5.677:512
5.681:516
5.681:532
5.681:537
5.682:529
5.682:508
5.682:492
5.682:508
5.682:526
5.683:526
5.685:512
5.685:507
5.685:499
5.685:475
5.686:470
5.686:492
5.686:515
5.686:524
5.686:506
5.688:485
5.689:490
5.689:522
5.689:533
5.689:522
5.690:521
5.690:541
5.690:533
5.690:521
5.690:507
5.710:502
5.710:504
5.710:508
5.710:510
5.710:510
5.711:511
5.711:518
5.711:530
5.714:541
5.714:559
5.714:570
5.714:564
5.714:558
5.714:539
5.715:523
5.715:499
5.715:494
5.718:477
5.718:432
5.718:390
5.718:365
5.719:341
5.719:303
5.719:275
5.719:245
5.719:206
5.720:153
5.722:95
5.722:40
5.722:17
5.738:17
5.738:17
5.738:17
5.738:17
5.739:17
5.739:18
5.739:18
5.739:19
5.739:19
5.742:19
5.742:20
5.742:20
5.742:20
5.742:20
5.742:20
5.742:19
5.743:19
5.743:18
5.743:17
5.743:17
5.743:17
5.746:97
5.746:221
5.746:390
5.746:543
5.746:636
5.746:694
5.747:731
5.747:739
5.747:727
5.766:703
5.766:675
5.767:651
5.767:627
5.770:617
5.770:614
5.770:620
5.770:613
5.770:601
5.772:586
5.772:581
5.772:589
5.772:599
5.775:618
5.775:639
5.775:640
5.775:625
5.775:617
5.776:601
5.776:604
5.776:618
5.776:619
5.776:614
5.778:601
5.778:595
5.778:597
5.780:599
5.780:589
5.780:593
5.780:603
5.795:603
5.796:617
5.796:624
5.799:625
5.799:619
5.799:627
5.800:638
5.800:632
5.800:626
5.800:626
5.800:630
5.801:642
5.801:638
5.803:620
5.803:593
5.804:574
5.804:577
5.804:573
5.804:558
5.804:582
5.804:610
5.805:617
5.808:621
5.808:614
5.808:613
5.808:611
5.809:615
5.809:613
5.809:605
5.809:594
5.828:583
5.828:569
5.828:557
5.828:572
5.828:577
5.829:570
5.829:555
5.829:548
5.829:543
5.832:541
5.832:533
5.832:553
5.833:590
5.833:601
5.833:604
5.833:613
5.833:615
5.834:596
5.834:591
5.836:583
5.837:558
5.837:550
5.837:561
5.837:558
5.837:543
5.837:524
5.837:513
5.838:514
5.840:515
5.840:527
5.857:527
5.857:529
5.857:535
5.858:536
5.858:539
5.858:551
5.859:558
5.859:558
5.861:549
5.861:550
5.861:548
5.862:530
5.862:524
5.862:525
5.862:510
5.862:489
5.862:494
5.863:495
5.865:489
5.865:491
5.865:492
5.866:497
5.866:508
5.866:516
5.866:518
5.866:524
5.866:517
5.866:506
5.869:500
5.869:496
5.885:496
5.885:492
5.886:489
5.886:487
5.886:476
5.889:461
5.890:462
5.890:473
5.890:484
5.891:456
5.891:454
5.891:505
5.891:534
5.892:522
5.892:506
5.893:501
5.894:499
5.894:495
5.894:488
5.895:483
5.895:479
5.896:468
5.896:457
5.896:456
5.897:450
5.897:458
5.898:468
5.898:453
5.898:447
5.898:444
5.914:444
5.914:437
5.914:436
5.914:435
5.919:429
5.919:432
5.919:438
5.920:444
5.920:448
5.920:451
5.921:453
5.921:450
5.921:441
5.921:445
5.923:441
5.923:428
5.924:428
5.924:447
5.924:451
5.925:440
5.925:420
5.925:404
5.925:396
5.926:403
5.926:420
5.927:435
5.927:438
5.927:434
5.927:422
5.927:414
5.943:414
5.947:404
5.947:374
5.947:402
5.948:418
5.948:391
5.948:372
5.948:369
5.948:389
5.948:412
5.948:409
5.951:401
5.951:401
5.951:397
5.951:390
5.951:392
5.951:400
5.951:405
5.952:413
5.952:413
5.955:406
5.955:401
5.955:415
5.956:426
5.956:417
5.957:400
5.957:395
5.957:392
5.958:393
5.958:386
5.975:386
5.975:386
5.977:395
5.977:406
5.977:408
5.977:399
5.978:416
5.978:446
5.978:454
5.978:475
5.980:499
5.980:502
5.980:488
5.981:464
5.981:444
5.981:446
5.982:465
5.982:481
5.982:488
5.984:490
5.985:478
5.985:482
5.985:488
5.986:488
5.986:489
5.986:494
5.986:514
5.987:534
5.987:557
5.988:584
6.004:591
6.004:583
6.004:570
6.005:555
6.005:551
6.005:540
6.007:531
6.008:539
6.009:550
6.009:571
6.009:588
6.009:597
6.009:579
6.009:565
6.010:552
6.010:570
6.013:614
6.013:614
6.013:610
6.013:622
6.013:621
6.013:616
6.013:615
6.013:626
6.014:629
6.014:608
6.017:594
6.017:598
6.017:607
6.017:600
6.032:600
6.033:591
6.033:588
6.033:592
6.033:599
6.033:602
6.037:597
6.037:603
6.037:617
6.038:615
6.038:614
6.038:621
6.038:622
6.038:627
6.039:630
6.041:624
6.041:618
6.042:601
6.042:584
6.042:575
6.043:579
6.043:577
6.043:572
6.044:576
6.044:584
6.046:574
6.046:564
6.046:577
6.047:611
6.047:643
6.062:643
6.062:625
6.066:607
6.066:598
6.066:580
6.066:580
6.066:599
6.066:585
6.067:572
6.067:571
6.067:570
6.067:566
6.070:565
6.070:552
6.070:544
6.070:575
6.071:591
6.071:600
6.071:606
6.071:605
6.071:597
6.072:585
6.073:570
6.074:565
6.074:562
6.074:560
6.074:555
6.074:533
6.075:518
6.075:538
6.090:538
6.090:554
6.094:558
6.094:555
6.094:544
6.095:543
6.095:560
6.095:585
6.096:616
6.096:624
6.096:613
6.099:589
6.099:568
6.099:556
6.099:557
6.100:561
6.100:562
6.100:554
6.100:539
6.100:527
6.101:523
6.103:530
6.103:534
6.103:532
6.103:525
6.104:519
6.104:527
6.104:543
6.104:564
6.104:574
6.122:578
6.123:577
6.123:563
6.123:557
6.123:555
6.123:557
6.124:537
6.124:521
6.127:511
6.127:514
6.127:514
6.128:519
6.128:517
6.128:515
6.128:513
6.128:521
6.128:521
6.131:532
6.131:545
6.131:542
6.131:538
6.132:535
6.132:532
6.132:531
6.132:530
6.132:527
6.133:512
6.135:500
6.135:493
6.136:504
6.151:504
6.151:526
6.151:524
6.152:506
6.152:495
6.152:495
6.152:505
6.156:512
6.156:518
6.156:528
6.156:526
6.157:528
6.157:518
6.157:509
6.157:509
6.157:495
6.158:489
6.160:506
6.160:509
6.160:503
6.160:498
6.160:497
6.161:505
6.161:516
6.161:513
6.161:505
6.164:496
6.164:491
6.164:493
6.164:505
6.180:520
6.180:535
6.181:531
6.181:499
6.185:500
6.185:521
6.185:509
6.185:499
6.185:498
6.186:493
6.186:489
6.186:477
6.186:473
6.189:457
6.189:444
6.189:442
6.189:457
6.190:509
6.190:547
6.190:549
6.190:549
6.190:550
6.190:571
6.193:568
6.193:541
6.193:515
6.193:503
6.194:500
6.194:496
6.194:498
6.208:498
6.208:497
6.208:486
6.213:477
6.213:466
6.213:469
6.213:484
6.213:503
6.213:510
6.214:515
6.214:513
6.214:509
6.218:510
6.218:507
6.218:501
6.218:496
6.219:486
6.219:479
6.219:505
6.219:542
6.220:531
6.220:505
6.222:483
6.222:474
6.222:487
6.223:498
6.223:507
6.223:514
6.224:516
6.224:507
6.242:508
6.243:519
6.243:515
6.244:510
6.244:508
6.244:497
6.244:489
6.244:475
6.244:487
6.245:515
6.246:520
6.246:507
6.246:490
6.246:483
6.246:482
6.246:488
6.246:493
6.246:495
6.246:493
6.250:499
6.250:497
6.250:501
6.250:516
6.251:523
6.251:513
6.251:499
6.251:499
6.251:506
6.254:514
6.254:508
6.271:508
6.271:505
6.271:484
6.271:462
6.271:450
6.272:463
6.272:478
6.272:498
6.275:508
6.275:514
6.275:504
6.275:497
6.275:515
6.276:545
6.276:552
6.276:551
6.276:526
6.276:506
6.279:514
6.280:512
6.280:502
6.280:505
6.281:490
6.281:492
6.281:515
6.281:518
6.281:505
6.283:495
6.283:492
6.283:487
6.299:520
6.299:534
6.299:526
6.300:516
6.300:509
6.303:507
6.303:498
6.303:486
6.303:491
6.304:500
6.304:495
6.304:483
6.304:478
6.304:483
6.305:494
6.308:505
6.308:499
6.308:499
6.308:501
6.309:498
6.309:493
6.309:496
6.309:514
6.309:519
6.312:522
6.312:519
6.313:514
6.313:515
6.313:514
6.313:505
6.327:505
6.328:490
6.328:487
6.328:495
6.332:501
6.332:509
6.332:508
6.332:498
6.333:494
6.333:495
6.333:506
6.333:512
6.333:506
6.334:501
6.336:499
6.336:500
6.336:500
6.337:496
6.337:486
6.337:487
6.337:494
6.337:496
6.338:496
6.340:490
6.340:489
6.340:476
6.341:461
6.341:452
6.341:441
6.341:457
6.356:488
6.361:506
6.361:495
6.361:493
6.361:495
6.362:498
6.362:533
6.363:541
6.363:512
6.363:494
6.364:480
6.364:485
6.364:491
6.365:481
6.365:478
6.366:490
6.366:498
6.366:492
6.366:479
6.367:474
6.369:479
6.369:481
6.369:479
6.369:479
6.370:477
6.370:475
6.370:472
6.370:470
6.370:463
6.371:452
6.390:452
6.390:440
6.390:424
6.390:416
6.391:419
6.391:452
6.391:472
6.391:453
6.391:433
6.392:441
6.394:451
6.394:460
6.394:457
6.394:463
6.394:473
6.394:475
6.395:475
6.395:474
6.395:470
6.398:458
6.398:451
6.398:448
6.398:441
6.399:435
6.399:433
6.399:442
6.399:456
6.399:483
6.400:498
6.401:483
6.418:480
6.418:485
6.418:487
6.418:485
6.418:485
6.419:483
6.419:489
6.422:483
6.422:496
6.422:517
6.422:520
6.423:511
6.423:501
6.423:495
6.423:494
6.423:504
6.427:501
6.427:500
6.427:518
6.427:527
6.428:527
6.428:526
6.428:528
6.428:525
6.428:525
6.429:526
6.430:523
6.430:519
6.431:509
6.431:507
6.447:507
6.447:518
6.447:529
6.447:521
6.447:508
6.447:494
6.450:494
6.451:497
6.451:496
6.451:493
6.451:492
6.451:497
6.451:515
6.452:525
6.452:529
6.455:535
6.455:540
6.455:537
6.455:523
6.456:522
6.456:516
6.456:510
6.456:503
6.456:498
6.456:501
6.458:509
6.459:523
6.459:522
6.459:509
6.459:497
6.474:506
6.476:519
6.479:523
6.479:527
6.479:526
6.479:530
6.480:526
6.480:515
6.480:514
6.480:508
6.480:496
6.481:516
6.484:543
6.484:548
6.484:544
6.484:539
6.484:541
6.484:535
6.485:527
6.485:516
6.485:510
6.485:506
6.487:530
6.487:537
6.487:529
6.488:528
6.488:530
6.488:530
6.488:518
6.488:511
6.503:511
6.503:517
6.507:521
6.507:514
6.508:508
6.508:508
6.508:501
6.508:500
6.508:497
6.510:490
6.510:495
6.512:497
6.513:501
6.513:508
6.513:523
6.513:535
6.513:532
6.514:520
6.514:517
6.514:516
6.514:512
6.516:524
6.516:534
6.516:521
6.517:508
6.517:508
6.517:507
6.517:515
6.517:525
6.517:533
6.537:540
6.537:536
6.537:523
6.537:528
6.537:515
6.538:495
6.538:486
6.538:457
6.541:432
6.541:419
6.541:392
6.542:358
6.542:324
6.542:281
6.542:234
6.542:190
6.543:144
6.546:102
6.546:58
6.547:20
6.547:17
6.547:17
6.547:17
6.547:17
6.547:18
6.547:18
6.548:18
6.548:18
6.548:19
6.549:19
6.565:19
6.565:19
6.565:19
6.565:19
6.565:18
6.565:19
6.565:18
6.567:17
6.567:17
6.570:17
6.570:100
6.570:221
6.570:313
6.571:409
6.571:536
6.571:627
6.571:673
6.571:715
6.572:742
6.574:766
6.574:760
6.574:722
6.574:680
6.574:643
6.574:616
6.574:606
6.574:604
6.575:601
6.577:599
6.577:604
6.594:604
6.594:598
6.594:593
6.595:579
6.598:590
6.598:621
6.598:633
6.598:620
6.599:616
6.599:606
6.599:601
6.599:602
6.599:613
6.602:601
6.602:577
6.602:576
6.602:602
6.603:616
6.603:593
6.603:572
6.603:594
6.604:622
6.604:624
6.606:615
6.606:611
6.606:607
6.606:600
6.606:580
6.607:590
6.607:610
6.622:610
6.622:618
6.623:603
6.627:587
6.627:577
6.627:568
6.627:567
6.628:567
6.628:569
6.628:568
6.628:570
6.628:574
6.631:577
6.631:580
6.631:579
6.631:576
6.631:571
6.631:575
6.632:571
6.632:568
6.632:565
6.632:560
6.635:549
6.635:547
6.635:549
6.635:542
6.636:537
6.636:535
6.636:534
6.636:532
6.656:530
6.656:531
6.656:538
6.656:545
6.656:539
6.656:543
6.656:522
6.656:549
6.656:555
6.660:555
6.660:551
6.660:547
6.660:539
6.661:531
6.661:529
6.661:516
6.661:508
6.661:501
6.662:505
6.664:516
6.664:519
6.664:517
6.664:514
6.664:511
6.665:513
6.665:518
6.665:523
6.665:524
6.668:529
6.668:524
6.684:524
6.684:514
6.684:517
6.684:512
6.684:513
6.685:520
6.685:515
6.685:518
6.688:517
6.688:498
6.688:472
6.688:468
6.690:480
6.690:486
6.690:489
6.690:492
6.690:503
6.690:501
6.693:496
6.693:501
6.693:507
6.693:504
6.694:508
6.694:511
6.694:498
6.694:476
6.694:451
6.696:449
6.697:451
6.697:450
6.712:457
6.712:478
6.713:471
6.713:450
6.713:441
6.716:462
6.716:479
6.717:480
6.717:478
6.717:461
6.717:476
6.717:493
6.718:484
6.718:462
6.718:446
6.720:435
6.720:421
6.721:414
6.721:421
6.721:431
6.721:417
6.721:412
6.722:420
6.722:436
6.725:449
6.726:440
6.726:437
6.726:443
6.726:455
6.726:448
6.741:448
6.741:451
6.741:454
6.741:445
6.745:429
6.745:417
6.746:402
6.746:388
6.746:382
6.746:384
6.746:385
6.747:383
6.747:379
6.747:386
6.749:392
6.749:417
6.750:421
6.750:414
6.750:410
6.751:422
6.751:428
6.751:428
6.752:424
6.753:403
6.754:379
6.754:379
6.754:386
6.754:379
6.754:381
6.754:381
6.770:388
6.774:384
6.774:384
6.774:378
6.775:379
6.775:383
6.776:388
6.776:393
6.776:395
6.776:406
6.776:407
6.778:398
6.778:388
6.778:384
6.778:380
6.778:378
6.778:383
6.779:380
6.779:376
6.779:377
6.782:381
6.783:389
6.783:404
6.783:410
6.783:419
6.784:423
6.784:442
6.784:459
6.784:461
6.784:456
6.802:456
6.802:453
6.804:454
6.804:460
6.804:466
6.804:472
6.804:471
6.805:461
6.805:458
6.805:464
6.807:467
6.807:470
6.807:476
6.807:472
6.807:480
6.807:521
6.807:533
6.807:549
6.808:569
6.811:571
6.812:565
6.812:570
6.812:569
6.812:559
6.812:555
6.812:546
6.813:549
6.813:555
6.813:555
6.815:553
6.831:560
6.831:568
6.831:570
6.832:583
6.832:602
6.832:603
6.835:604
6.835:615
6.835:621
6.835:616
6.835:614
6.837:614
6.837:612
6.837:610
6.837:602
6.837:616
6.840:622
6.840:614
6.840:603
6.840:598
6.841:605
6.841:606
6.841:594
6.841:581
6.842:569
6.842:575
6.844:612
6.844:663
6.844:703
6.845:691
6.860:691
6.860:648
6.860:605
6.860:597
6.862:608
6.862:606
6.864:600
6.864:590
6.865:581
6.865:586
6.865:593
6.865:583
6.866:570
6.866:573
6.866:578
6.868:572
6.868:577
6.868:609
6.868:638
6.869:643
6.869:622
6.869:611
6.869:611
6.869:608
6.870:602
6.872:591
6.872:593
6.872:593
6.873:571
6.873:555
6.888:544
6.888:547
6.892:560
6.893:579
6.893:586
6.893:575
6.894:563
6.894:549
6.894:549
6.895:571
6.895:591
6.895:589
6.897:605
6.898:615
6.898:604
6.898:589
6.899:584
6.899:578
6.899:564
6.899:550
6.900:552
6.901:564
6.902:571
6.902:582
6.902:574
6.903:576
6.903:575
6.903:570
6.903:564
6.904:563
6.916:563
6.918:571
6.922:572
6.922:574
6.922:570
6.922:565
6.922:563
6.923:556
6.923:545
6.923:531
6.923:518
6.925:516
6.925:533
6.926:537
6.926:532
6.926:539
6.926:559
6.926:560
6.926:558
6.928:555
6.928:549
6.929:549
6.930:554
6.930:566
6.930:565
6.930:551
6.931:538
6.931:533
6.931:530
6.932:523
6.951:532
6.951:539
6.951:540
6.952:522
6.952:510
6.952:528
6.953:535
6.953:536
6.954:544
6.954:545
6.954:544
6.955:553
6.955:558
6.955:546
6.955:528
6.957:534
6.957:531
6.958:524
6.958:520
6.959:511
6.959:510
6.959:504
6.960:491
6.960:488
6.960:486
6.961:485
6.961:506
6.961:542
6.961:567
6.962:565
6.977:565
6.979:546
6.979:537
6.979:526
6.979:519
6.979:521
6.979:517
6.982:504
6.983:489
6.983:481
6.983:477
6.983:482
6.983:482
6.984:488
6.984:494
6.984:503
6.987:504
6.987:534
6.988:559
6.988:550
6.988:531
6.989:517
6.989:516
6.989:513
6.990:516
6.990:510
6.991:502
6.991:509
6.992:508
6.992:499
7.008:485
7.008:480
7.008:475
7.008:480
7.012:481
7.012:487
7.012:492
7.012:496
7.012:497
7.013:495
7.013:496
7.013:508
7.013:525
7.016:536
7.016:530
7.016:533
7.016:513
7.016:501
7.016:493
7.017:490
7.017:479
7.017:474
7.017:485
7.020:506
7.020:513
7.020:505
7.020:490
7.021:486
7.021:494
7.021:502
7.036:502
7.036:509
7.036:512
7.040:512
7.041:510
7.041:506
7.041:504
7.041:503
7.041:502
7.042:498
7.042:488
7.042:475
7.044:474
7.044:473
7.044:481
7.045:493
7.045:496
7.045:493
7.045:497
7.045:499
7.045:507
7.045:515
7.048:518
7.048:518
7.048:518
7.049:524
7.049:529
7.049:510
7.049:495
7.049:500
7.069:509
7.069:509
7.070:502
7.070:488
7.070:487
7.071:491
7.071:508
7.071:534
7.071:544
7.073:535
7.073:517
7.074:525
7.074:522
7.074:504
7.074:500
7.074:502
7.074:528
7.074:536
7.074:522
7.077:521
7.077:514
7.077:509
7.077:498
7.078:487
7.078:483
7.078:478
7.079:480
7.079:490
7.081:497
7.081:503
7.097:503
7.098:507
7.098:520
7.098:540
7.098:539
7.098:517
7.099:500
7.099:499
7.102:491
7.102:482
7.102:494
7.102:491
7.102:500
7.102:509
7.103:508
7.103:513
7.103:519
7.103:515
7.106:512
7.106:511
7.106:501
7.107:499
7.107:508
7.107:524
7.108:539
7.108:535
7.108:521
7.109:506
7.110:503
7.110:506
7.126:493
7.126:483
7.126:485
7.126:495
7.126:496
7.130:496
7.130:503
7.130:513
7.131:520
7.131:512
7.131:498
7.131:501
7.131:524
7.132:534
7.132:522
7.134:516
7.134:512
7.134:514
7.134:507
7.134:503
7.135:500
7.135:494
7.135:489
7.135:481
7.138:475
7.138:464
7.138:466
7.138:481
7.139:503
7.139:527
7.155:527
7.155:536
7.156:538
7.156:536
7.159:539
7.159:538
7.159:524
7.159:515
7.160:509
7.160:500
7.160:499
7.160:512
7.160:503
7.160:495
7.163:492
7.163:490
7.164:485
7.164:487
7.164:489
7.164:476
7.164:483
7.164:487
7.164:484
7.167:499
7.167:528
7.167:541
7.167:549
7.168:534
7.168:509
7.168:500
7.183:531
7.188:527
7.188:493
7.188:471
7.188:451
7.188:451
7.188:435
7.188:449
7.188:473
7.189:491
7.191:488
7.191:480
7.191:506
7.192:524
7.192:537
7.192:553
7.192:566
7.193:549
7.193:523
7.193:487
7.195:471
7.195:473
7.195:472
7.195:473
7.197:474
7.197:477
7.197:481
7.197:485
7.197:475
7.197:467
7.216:467
7.217:465
7.217:460
7.217:468
7.218:477
7.218:490
7.218:493
7.219:486
7.219:487
7.219:490
7.220:476
7.221:462
7.221:488
7.221:477
7.221:459
7.221:439
7.222:431
7.222:430
7.222:433
7.224:437
7.224:442
7.225:451
7.225:457
7.225:468
7.226:474
7.226:475
7.226:474
7.226:476
7.226:473
7.229:468
7.244:461
7.245:456
7.245:453
7.246:446
7.246:442
7.246:439
7.249:442
7.250:450
7.250:457
7.250:459
7.250:463
7.251:469
7.251:464
7.251:471
7.252:480
7.252:478
7.253:483
7.254:492
7.254:490
7.254:487
7.254:482
7.254:478
7.255:480
7.255:478
7.255:483
7.256:493
7.256:504
7.258:507
7.258:508
7.258:513
7.273:513
7.273:521
7.274:521
7.274:521
7.274:529
7.274:532
7.278:531
7.278:541
7.278:546
7.279:536
7.279:523
7.279:500
7.279:512
7.279:519
7.279:501
7.282:486
7.282:490
7.282:499
7.282:504
7.283:506
7.283:501
7.283:509
7.283:524
7.283:526
7.283:536
7.286:539
7.286:542
7.286:541
7.286:533
7.287:517
7.302:513
7.302:502
7.307:486
7.307:481
7.307:490
7.307:502
7.307:508
7.307:524
7.307:536
7.307:533
7.307:522
7.308:512
7.311:505
7.311:528
7.312:555
7.312:559
7.312:562
7.312:561
7.312:545
7.313:540
7.313:544
7.315:532
7.315:526
7.315:519
7.315:509
7.315:509
7.315:517
7.316:511
7.316:506
7.316:509
7.331:509
7.335:512
7.335:520
7.335:528
7.335:543
7.336:552
7.336:540
7.336:518
7.336:502
7.336:493
7.337:487
7.340:487
7.340:499
7.340:528
7.340:533
7.341:522
7.341:515
7.341:508
7.341:508
7.341:515
7.342:514
7.344:519
7.344:544
7.344:543
7.344:533
7.344:533
7.344:532
7.345:526
7.345:516
7.345:513
7.364:520
7.364:518
7.364:508
7.364:507
7.364:509
7.364:507
7.364:508
7.365:510
7.368:515
7.368:524
7.368:533
7.369:555
7.369:577
7.369:582
7.369:576
7.369:563
7.369:546
7.372:525
7.372:508
7.372:486
7.372:456
7.373:423
7.373:386
7.373:359
7.373:327
7.373:285
7.374:223
7.376:163
7.376:138
7.376:76
7.392:76
7.393:32
7.393:20
7.393:17
7.393:16
7.393:17
7.393:18
7.394:17
7.394:18
7.396:19
7.396:19
7.396:19
7.397:19
7.397:19
7.397:19
7.397:19
7.397:19
7.397:19
7.398:19
7.398:18
7.398:18
7.401:17
7.401:17
7.401:111
7.401:246
7.402:376
7.402:498
7.402:590
7.402:672
7.402:716
7.421:738
7.421:733
7.421:708
7.421:671
7.424:644
7.426:625
7.426:613
7.426:608
7.426:605
7.426:604
7.426:612
7.427:599
7.427:607
7.430:616
7.430:614
7.430:620
7.431:627
7.431:621
7.431:611
7.431:616
7.431:630
7.432:625
7.432:617
7.433:607
7.434:611
7.434:617
7.434:605
7.434:588
7.434:592
7.435:617
7.450:617
7.450:630
7.450:626
7.454:631
7.454:633
7.454:624
7.455:628
7.455:634
7.455:647
7.455:659
7.455:648
7.455:617
7.458:621
7.458:615
7.458:610
7.458:610
7.459:609
7.459:612
7.459:611
7.459:604
7.459:592
7.459:587
7.462:582
7.462:580
7.462:586
7.462:595
7.462:606
7.463:608
7.463:608
7.463:603
7.482:600
7.482:594
7.483:589
7.483:587
7.483:583
7.483:566
7.483:572
7.484:582
7.484:575
7.486:562
7.486:560
7.486:564
7.486:556
7.487:563
7.487:564
7.487:568
7.487:572
7.487:583
7.488:586
7.490:569
7.490:554
7.491:557
7.491:567
7.491:576
7.491:553
7.491:528
7.492:531
7.492:551
7.494:562
7.496:555
7.511:555
7.511:550
7.511:555
7.511:562
7.511:572
7.511:577
7.512:566
7.512:573
7.516:566
7.516:550
7.516:540
7.516:519
7.516:507
7.517:518
7.517:523
7.517:530
7.517:555
7.517:562
7.520:547
7.520:519
7.520:497
7.520:488
7.521:490
7.521:491
7.521:518
7.521:549
7.521:549
7.524:532
7.524:515
7.524:531
7.539:536
7.540:524
7.540:513
7.540:518
7.540:510
7.544:495
7.544:492
7.544:486
7.544:485
7.544:484
7.544:485
7.544:479
7.546:483
7.546:472
7.546:466
7.548:469
7.548:477
7.548:488
7.548:494
7.549:491
7.549:486
7.549:486
7.549:491
7.549:496
7.552:491
7.552:483
7.552:472
7.552:461
7.553:457
7.553:455
7.569:455
7.569:457
7.569:456
7.569:455
7.573:455
7.573:456
7.573:450
7.573:441
7.574:453
7.574:467
7.574:469
7.574:463
7.574:461
7.574:457
7.576:452
7.576:444
7.576:431
7.576:412
7.576:388
7.578:415
7.578:432
7.578:432
7.578:436
7.581:439
7.581:426
7.581:411
7.581:394
7.581:401
7.582:403
7.582:422
7.597:451
7.602:453
7.602:436
7.602:423
7.602:425
7.602:415
7.603:421
7.603:427
7.603:409
7.603:407
7.606:407
7.606:423
7.606:452
7.606:440
7.607:413
7.607:380
7.607:364
7.607:365
7.607:383
7.607:388
7.609:387
7.609:390
7.609:406
7.609:409
7.610:399
7.610:399
7.610:414
7.611:444
7.611:437
7.611:420
7.630:420
7.630:400
7.630:396
7.630:390
7.631:397
7.631:430
7.631:453
7.631:452
7.631:451
7.632:449
7.634:438
7.634:442
7.634:443
7.634:446
7.634:449
7.634:456
7.635:465
7.635:481
7.636:477
7.638:462
7.638:471
7.638:472
7.638:476
7.639:482
7.639:491
7.639:499
7.639:511
7.639:512
7.640:513
7.641:523
7.658:533
7.658:537
7.658:543
7.658:550
7.659:562
7.659:552
7.663:535
7.663:541
7.663:554
7.663:556
7.663:557
7.664:556
7.664:550
7.664:556
7.664:569
7.664:580
7.666:588
7.666:591
7.666:589
7.668:595
7.668:602
7.668:610
7.668:618
7.668:617
7.668:616
7.671:619
7.671:608
7.671:593
7.671:586
7.672:583
7.687:583
7.687:571
7.688:579
7.688:589
7.688:587
7.692:599
7.692:604
7.692:605
7.692:605
7.693:610
7.693:617
7.693:624
7.693:624
7.693:631
7.694:635
7.696:625
7.696:622
7.696:610
7.696:597
7.696:589
7.697:581
7.697:577
7.697:581
7.697:584
7.697:582
7.699:580
7.699:580
7.699:592
7.699:592
7.700:586
7.716:607
7.716:631
7.720:640
7.720:633
7.720:619
7.720:597
7.721:573
7.721:551
7.721:555
7.721:581
7.721:593
7.722:586
7.724:573
7.724:564
7.725:567
7.725:572
7.725:579
7.725:579
7.726:556
7.726:546
7.726:568
7.728:600
7.729:607
7.729:615
7.729:605
7.729:586
7.730:571
7.730:573
7.730:572
7.730:559
7.744:559
7.749:547
7.749:535
7.749:539
7.749:540
7.749:556
7.749:566
7.750:558
7.750:558
7.750:572
7.750:590
7.753:587
7.753:583
7.753:568
7.754:576
7.754:572
7.754:570
7.754:564
7.754:574
7.754:576
7.757:549
7.757:537
7.757:533
7.758:530
7.758:531
7.758:531
7.758:531
7.758:534
7.758:540
7.759:540
7.778:550
7.779:552
7.779:545
7.779:556
7.779:585
7.779:608
7.779:609
7.780:582
7.781:555
7.781:528
7.781:523
7.781:517
7.781:509
7.782:514
7.782:515
7.782:521
7.782:538
7.786:531
7.786:530
7.786:536
7.787:544
7.787:556
7.787:553
7.787:540
7.787:543
7.787:546
7.788:554
7.790:563
7.790:534
7.790:518
7.806:518
7.806:507
7.806:504
7.806:507
7.807:516
7.807:530
7.807:530
7.810:530
7.811:526
7.811:520
7.811:526
7.811:526
7.812:522
7.812:524
7.812:521
7.812:526
7.815:528
7.815:540
7.815:533
7.815:517
7.815:505
7.815:503
7.815:511
7.816:499
7.816:489
7.816:487
7.818:498
7.818:506
7.818:504
7.819:515
7.834:526
7.834:527
7.834:514
7.835:525
7.839:537
7.839:531
7.839:514
7.839:517
7.839:517
7.840:523
7.840:532
7.840:513
7.840:492
7.843:482
7.843:476
7.843:477
7.843:491
7.844:508
7.844:523
7.846:528
7.846:527
7.846:533
7.846:526
7.847:523
7.847:524
7.847:530
7.847:528
7.847:523
7.848:514
7.848:517
7.863:517
7.863:516
7.863:509
7.867:504
7.867:497
7.867:491
7.868:470
7.868:475
7.868:488
7.868:498
7.868:496
7.869:502
7.872:542
7.872:545
7.872:530
7.872:524
7.873:534
7.873:530
7.873:515
7.873:506
7.873:502
7.874:499
7.876:485
7.876:476
7.877:483
7.877:495
7.877:502
7.877:504
7.877:494
7.878:494
7.896:479
7.896:471
7.896:486
7.897:521
7.897:539
7.897:531
7.897:518
7.898:518
7.898:523
7.900:522
7.900:514
7.900:502
7.900:492
7.901:496
7.901:498
7.901:498
7.901:487
7.901:481
7.902:483
7.904:494
7.904:495
7.904:482
7.904:475
7.904:480
7.905:495
7.905:532
7.905:552
7.906:553
7.908:538
7.908:521
7.924:521
7.924:511
7.925:497
7.925:483
7.925:487
7.926:492
7.926:495
7.926:497
7.928:509
7.929:519
7.929:530
7.929:530
7.929:536
7.929:543
7.930:536
7.930:532
7.930:521
7.930:498
7.932:507
7.933:510
7.933:512
7.933:512
7.933:507
7.933:499
7.934:491
7.934:487
7.934:485
7.936:483
7.936:485
7.936:486
7.953:492
7.953:492
7.953:500
7.953:500
7.954:505
7.958:521
7.958:526
7.958:519
7.958:513
7.958:505
7.959:504
7.959:510
7.959:499
7.959:482
7.961:498
7.961:501
7.962:502
7.962:501
7.962:500
7.962:495
7.963:501
7.963:506
7.963:516
7.963:522
7.966:519
7.966:512
7.966:514
7.966:506
7.967:502
7.967:506
7.982:506
7.982:509
7.982:503
7.982:499
7.986:496
7.986:500
7.986:498
7.986:481
7.986:472
7.986:491
7.987:521
7.987:518
7.987:492
7.987:476
7.990:502
7.990:525
7.990:532
7.990:514
7.990:527
7.992:531
7.992:533
7.992:503
7.992:482
7.994:486
7.994:496
7.995:496
7.995:486
7.995:491
7.995:515
7.995:519
8.011:504
8.015:504
8.015:505
8.015:511
8.015:519
8.016:518
8.016:514
8.016:522
8.016:528
8.016:525
8.019:516
8.019:499
8.019:501
8.019:505
8.020:502
8.020:508
8.020:510
8.020:507
8.020:508
8.021:497
8.023:496
8.023:507
8.023:514
8.023:523
8.024:515
8.024:516
8.024:515
8.024:510
8.024:508
8.026:505
8.044:505
8.045:495
8.045:488
8.045:489
8.045:477
8.046:465
8.046:463
8.046:463
8.046:460
8.048:456
8.048:456
8.048:463
8.048:488
8.049:506
8.049:500
8.049:519
8.049:523
8.049:509
8.049:490
8.052:478
8.052:474
8.052:474
8.052:465
8.053:451
8.053:462
8.053:464
8.053:457
8.053:451
8.054:448
8.055:449
8.072:450
8.072:454
8.072:462
8.072:469
8.072:470
8.072:476
8.076:471
8.076:457
8.077:458
8.077:462
8.079:465
8.079:456
8.079:449
8.079:453
8.080:451
8.080:446
8.080:440
8.080:436
8.081:441
8.081:459
8.081:470
8.081:464
8.082:447
8.082:425
8.082:430
8.085:454
8.085:483
8.085:507
8.085:541
8.085:545
8.101:545
8.101:511
8.101:485
8.101:473
8.101:480
8.105:490
8.105:485
8.106:475
8.106:484
8.106:496
8.106:504
8.107:498
8.107:508
8.107:508
8.107:507
8.109:517
8.109:536
8.110:561
8.110:572
8.110:568
8.110:529
8.111:506
8.111:519
8.111:517
8.113:514
8.113:515
8.113:511
8.113:500
8.114:498
8.114:498
8.129:504
8.129:514
8.134:520
8.134:520
8.134:516
8.134:526
8.134:528
8.134:528
8.135:529
8.135:529
8.135:530
8.135:532
8.138:534
8.138:529
8.138:512
8.138:498
8.138:490
8.139:484
8.139:492
8.139:500
8.139:508
8.142:508
8.142:517
8.142:527
8.142:534
8.143:543
8.143:546
8.143:544
8.144:541
8.144:536
8.158:536
8.162:522
8.162:515
8.162:511
8.162:509
8.163:507
8.163:501
8.163:497
8.163:504
8.163:511
8.164:503
8.166:504
8.166:499
8.166:501
8.167:507
8.167:507
8.167:512
8.167:544
8.168:561
8.168:551
8.171:545
8.171:550
8.171:546
8.171:536
8.172:517
8.172:504
8.172:506
8.172:506
8.172:499
8.173:495
8.191:493
8.191:495
8.191:498
8.191:507
8.191:501
8.192:508
8.192:533
8.192:529
8.194:519
8.194:520
8.194:560
8.196:597
8.196:601
8.196:577
8.197:547
8.197:524
8.197:505
8.199:484
8.200:482
8.200:482
8.200:503
8.201:525
8.201:543
8.201:565
8.201:579
8.202:583
8.202:575
8.203:558
8.203:526
8.203:522
8.220:522
8.220:518
8.220:478
8.220:457
8.221:440
8.221:411
8.221:368
8.224:327
8.224:302
8.224:280
8.224:242
8.224:185
8.225:127
8.225:72
8.225:22
8.225:17
8.225:17
8.228:17
8.228:18
8.228:18
8.228:18
8.228:19
8.229:19
8.229:19
8.229:19
8.229:19
8.229:19
8.229:20
8.230:20
8.232:20
8.248:19
8.248:19
8.248:18
8.248:17
8.248:17
8.252:28
8.252:157
8.252:285
8.252:415
8.252:526
8.253:607
8.253:678
8.253:729
8.253:742
8.256:724
8.256:694
8.256:663
8.256:636
8.257:618
8.257:600
8.257:594
8.257:598
8.257:620
8.258:634
8.261:629
8.262:617
8.262:614
8.262:614
8.262:619
8.262:616
8.276:616
8.276:618
8.277:630
8.281:637
8.281:635
8.281:624
8.281:615
8.281:625
8.282:623
8.282:612
8.282:600
8.282:590
8.284:605
8.286:646
8.286:647
8.286:627
8.286:606
8.286:626
8.287:636
8.287:639
8.287:637
8.287:634
8.289:634
8.289:653
8.290:662
8.290:653
8.290:640
8.290:623
8.290:605
8.290:597
8.309:600
8.309:605
8.309:612
8.310:626
8.310:640
8.310:633
8.311:624
8.311:613
8.311:603
8.314:601
8.314:599
8.314:599
8.314:599
8.314:593
8.314:583
8.314:574
8.314:576
8.314:577
8.316:571
8.317:558
8.318:556
8.318:563
8.318:568
8.318:565
8.318:572
8.318:582
8.319:587
8.319:591
8.322:583
8.322:578
8.338:578
8.338:572
8.338:590
8.338:592
8.339:578
8.339:561
8.339:558
8.339:554
8.343:543
8.343:530
8.343:520
8.343:517
8.343:523
8.343:532
8.343:530
8.345:527
8.345:537
8.345:539
8.346:541
8.346:575
8.346:603
8.346:570
8.347:550
8.347:542
8.347:542
8.347:529
8.347:518
8.351:512
8.351:507
8.351:508
8.366:507
8.366:509
8.367:482
8.367:456
8.367:448
8.371:467
8.371:494
8.371:515
8.371:543
8.372:566
8.372:583
8.372:587
8.372:580
8.372:556
8.375:535
8.375:525
8.375:523
8.375:519
8.376:499
8.376:485
8.376:481
8.378:487
8.378:485
8.378:483
8.379:483
8.379:488
8.379:487
8.379:485
8.379:491
8.379:491
8.395:491
8.395:492
8.395:488
8.395:489
8.400:492
8.400:485
8.400:471
8.400:464
8.401:462
8.401:453
8.401:447
8.401:443
8.401:444
8.402:447
8.404:456
8.404:464
8.404:466
8.404:456
8.404:451
8.404:462
8.404:485
8.404:506
8.406:488
8.408:469
8.408:456
8.408:445
8.409:425
8.409:415
8.409:414
8.409:403
8.424:405
8.429:410
8.429:409
8.429:399
8.429:398
8.430:409
8.430:428
8.430:433
8.430:432
8.430:443
8.433:441
8.433:435
8.433:421
8.433:407
8.434:401
8.434:397
8.434:392
8.434:385
8.434:383
8.434:383
8.436:391
8.436:388
8.436:386
8.436:377
8.437:365
8.437:359
8.437:348
8.437:362
8.437:390
8.440:410
8.457:410
8.457:418
8.457:425
8.457:424
8.458:412
8.458:389
8.458:382
8.458:370
8.458:354
8.460:344
8.461:353
8.461:407
8.461:461
8.461:478
8.462:456
8.462:441
8.462:424
8.462:409
8.462:408
8.465:416
8.465:430
8.466:435
8.466:435
8.466:442
8.466:452
8.466:449
8.466:446
8.467:442
8.467:438
8.469:445
8.486:447
8.486:452
8.486:456
8.486:463
8.486:466
8.486:475
8.490:482
8.490:492
8.490:502
8.490:516
8.491:528
8.491:535
8.491:539
8.491:527
8.491:529
8.491:540
8.494:550
8.495:558
8.495:566
8.495:561
8.496:551
8.496:543
8.496:537
8.496:542
8.496:562
8.498:567
8.498:571
8.498:583
8.498:575
8.499:561
8.514:561
8.515:561
8.515:580
8.515:625
8.515:648
8.519:637
8.519:627
8.519:615
8.519:607
8.520:605
8.520:600
8.520:592
8.520:593
8.520:594
8.520:595
8.523:602
8.523:596
8.523:589
8.523:598
8.524:605
8.524:611
8.524:628
8.524:636
8.524:632
8.526:622
8.526:622
8.528:620
8.528:609
8.528:598
8.528:615
8.543:602
8.543:586
8.546:589
8.547:586
8.547:592
8.547:588
8.548:583
8.548:583
8.548:597
8.548:610
8.548:609
8.548:607
8.551:597
8.551:588
8.551:582
8.551:581
8.551:595
8.552:608
8.552:604
8.552:593
8.552:587
8.555:579
8.555:590
8.555:596
8.556:588
8.556:570
8.556:568
8.556:576
8.556:568
8.557:549
8.571:549
8.576:574
8.576:590
8.577:588
8.578:587
8.578:583
8.578:599
8.578:593
8.578:591
8.579:579
8.579:567
8.580:554
8.581:535
8.581:529
8.581:531
8.581:554
8.581:574
8.582:573
8.582:566
8.582:571
8.584:572
8.584:577
8.584:580
8.584:567
8.585:566
8.585:571
8.585:562
8.585:561
8.585:557
8.586:555
8.604:550
8.604:538
8.604:539
8.604:551
8.605:557
8.605:559
8.606:544
8.606:532
8.609:542
8.609:556
8.609:564
8.609:566
8.609:559
8.610:553
8.610:551
8.610:545
8.610:539
8.612:537
8.613:542
8.613:540
8.613:541
8.614:538
8.614:529
8.614:520
8.614:515
8.614:511
8.616:508
8.617:504
8.617:502
8.617:497
8.633:497
8.633:509
8.634:566
8.634:588
8.634:567
8.634:537
8.634:537
8.637:532
8.637:534
8.637:539
8.637:535
8.638:517
8.638:525
8.638:539
8.638:527
8.638:519
8.641:520
8.641:503
8.641:496
8.642:498
8.642:505
8.642:523
8.642:542
8.643:553
8.643:551
8.643:540
8.645:529
8.645:524
8.645:517
8.645:509
8.661:501
8.662:495
8.662:485
8.666:485
8.666:486
8.666:495
8.666:511
8.667:520
8.667:514
8.667:511
8.667:514
8.667:516
8.667:524
8.670:517
8.670:510
8.670:506
8.670:514
8.671:520
8.671:519
8.671:518
8.671:511
8.671:497
8.672:478
8.674:475
8.674:484
8.674:488
8.674:479
8.674:496
8.675:503
8.675:502
8.690:502
8.691:500
8.691:496
8.695:503
8.695:505
8.695:515
8.695:514
8.695:514
8.695:513
8.695:518
8.695:536
8.695:545
8.699:522
8.699:482
8.699:466
8.699:471
8.700:478
8.700:483
8.700:484
8.700:485
8.700:498
8.701:507
8.703:507
8.703:509
8.703:507
8.704:508
8.704:513
8.704:512
8.704:502
8.704:494
8.723:489
8.724:489
8.724:492
8.724:484
8.724:476
8.724:456
8.724:454
8.725:476
8.725:505
8.728:506
8.728:499
8.728:497
8.729:501
8.729:516
8.729:528
8.729:526
8.729:512
8.730:506
8.732:488
8.732:469
8.732:458
8.732:464
8.733:496
8.733:507
8.733:516
8.733:509
8.733:495
8.734:487
8.735:495
8.735:508
8.752:508
8.752:507
8.752:504
8.753:498
8.753:513
8.753:525
8.753:520
8.753:508
8.756:508
8.756:503
8.756:493
8.757:486
8.757:482
8.757:462
8.757:465
8.757:486
8.758:489
8.758:491
8.760:494
8.760:501
8.762:492
8.762:491
8.762:500
8.762:508
8.762:517
8.762:510
8.763:506
8.764:504
8.764:512
8.764:511
8.780:500
8.780:500
8.781:510
8.781:508
8.781:498
8.785:478
8.785:469
8.785:482
8.785:502
8.785:503
8.786:494
8.786:490
8.786:487
8.786:482
8.789:486
8.789:513
8.789:558
8.789:554
8.790:519
8.790:489
8.790:484
8.790:493
8.790:496
8.790:509
8.793:510
8.793:502
8.794:487
8.794:489
8.794:489
8.794:480
8.809:480
8.809:468
8.809:470
8.809:492
8.813:505
8.813:509
8.813:507
8.814:506
8.814:502
8.814:494
8.814:483
8.814:476
8.814:479
8.814:511
8.817:548
8.817:557
8.818:532
8.818:501
8.818:481
8.818:473
8.818:469
8.818:474
8.819:488
8.822:492
8.822:492
8.822:498
8.822:511
8.823:518
8.823:502
8.823:508
8.837:518
8.842:508
8.842:490
8.842:489
8.842:498
8.843:489
8.844:481
8.844:481
8.844:460
8.844:465
8.846:485
8.846:484
8.846:489
8.847:492
8.847:498
8.847:501
8.847:501
8.847:502
8.847:499
8.847:485
8.850:498
8.850:518
8.850:500
8.850:481
8.851:494
8.851:503
8.851:503
8.851:500
8.851:488
8.854:479
8.871:479
8.871:482
8.871:489
8.871:497
8.872:498
8.872:494
8.872:501
8.872:502
8.872:493
8.875:496
8.875:499
8.875:493
8.875:484
8.875:480
8.876:480
8.877:476
8.877:466
8.877:453
8.877:441
8.879:441
8.879:456
8.879:462
8.879:465
8.880:489
8.880:506
8.880:500
8.880:496
8.880:494
8.883:488
8.883:467
8.899:454
8.900:468
8.900:492
8.900:497
8.900:497
8.900:484
8.904:472
8.904:464
8.904:452
8.904:445
8.904:450
8.904:463
8.904:468
8.905:469
8.905:462
8.905:448
8.907:442
8.907:446
8.907:450
8.908:448
8.908:448
8.908:458
8.908:457
8.908:453
8.908:464
8.911:470
8.911:449
8.911:428
8.911:421
8.911:421
8.928:421
8.928:427
8.928:430
8.928:432
8.929:442
8.932:456
8.932:461
8.932:464
8.932:461
8.933:457
8.933:457
8.933:453
8.933:445
8.933:433
8.934:418
8.936:438
8.936:455
8.936:474
8.936:479
8.937:452
8.937:429
8.937:455
8.937:478
8.937:486
8.940:520
8.940:522
8.940:512
8.940:511
8.940:517
8.942:518
8.956:527
8.957:535
8.961:533
8.961:521
8.961:508
8.961:498
8.962:492
8.962:489
8.962:484
8.962:478
8.963:481
8.963:487
8.964:492
8.964:497
8.964:502
8.964:507
8.966:519
8.966:521
8.966:520
8.966:506
8.967:507
8.969:514
8.969:504
8.969:511
8.969:509
8.970:498
8.970:490
8.970:482
8.970:470
8.970:468
8.984:468
8.990:473
8.990:484
8.990:485
8.990:507
8.991:547
8.991:558
8.991:547
8.991:542
8.991:545
8.992:546
8.993:535
8.993:513
8.995:510
8.995:512
8.995:514
8.995:512
8.995:492
8.995:485
8.996:495
8.998:509
8.998:507
8.998:511
8.998:513
8.999:513
8.999:511
8.999:515
8.999:520
8.999:515
9.000:513
9.018:514
9.018:517
9.018:521
9.018:522
9.018:508
9.019:496
9.019:489
9.019:482
9.022:480
9.022:473
9.022:473
9.022:471
9.023:471
9.023:486
9.023:499
9.023:503
9.023:509
9.027:508
9.028:503
9.028:501
9.028:488
9.029:512
9.029:536
9.029:539
9.029:526
9.029:512
9.029:504
9.030:493
9.030:490
9.030:496
9.046:496
9.046:513
9.047:513
9.047:503
9.047:506
9.047:528
9.047:536
9.050:538
9.051:550
9.051:561
9.051:562
9.051:557
9.051:549
9.051:531
9.052:506
9.052:479
9.055:454
9.055:434
9.055:406
9.055:386
9.056:363
9.056:332
9.056:295
9.056:262
9.056:220
9.057:174
9.059:128
9.059:80
9.059:39
9.060:17
9.075:17
9.075:18
9.075:18
9.075:18
9.075:19
9.079:19
9.080:19
9.080:19
9.080:19
9.080:19
9.080:20
9.080:19
9.081:20
9.081:20
9.081:19
9.081:18
9.081:19
9.083:18
9.083:17
9.083:26
9.083:149
9.083:265
9.084:374
9.084:495
9.084:596
9.084:670
9.084:710
9.087:721
9.087:697
9.087:679
9.104:679
9.104:656
9.104:644
9.108:627
9.108:607
9.109:604
9.109:616
9.109:625
9.109:629
9.109:633
9.110:619
9.110:580
9.112:589
9.112:609
9.112:614
9.112:610
9.113:605
9.113:615
9.113:623
9.113:592
9.113:581
9.114:569
9.116:574
9.116:594
9.117:597
9.117:585
9.117:568
9.117:560
9.117:562
9.118:582
9.136:583
9.136:602
9.136:619
9.137:621
9.137:622
9.137:607
9.137:605
9.137:623
9.138:616
9.141:600
9.141:592
9.141:583
9.141:582
9.142:576
9.142:577
9.142:588
9.142:592
9.143:586
9.144:588
9.146:592
9.146:595
9.146:591
9.146:588
9.147:585
9.147:579
9.147:568
9.147:555
9.147:550
9.149:541
9.149:535
9.166:535
9.166:540
9.166:538
9.166:538
9.166:545
9.167:562
9.167:558
9.167:553
9.170:545
9.170:566
9.170:590
9.171:595
9.171:579
9.171:554
9.171:547
9.171:552
9.171:547
9.172:537
9.174:530
9.174:518
9.174:515
9.174:516
9.174:523
9.174:525
9.174:519
9.174:508
9.175:523
9.177:532
9.177:530
9.178:527
9.194:530
9.194:524
9.194:521
9.194:527
9.194:528
9.198:531
9.198:538
9.198:527
9.199:515
9.199:510
9.199:506
9.199:496
9.199:493
9.199:495
9.203:506
9.203:493
9.203:485
9.203:492
9.203:490
9.203:490
9.203:487
9.204:500
9.204:524
9.204:527
9.206:514
9.206:503
9.206:490
9.207:477
9.207:465
9.207:452
9.223:452
9.223:445
9.223:442
9.223:448
9.228:453
9.228:462
9.228:471
9.228:485
9.229:489
9.229:486
9.229:487
9.229:480
9.229:469
9.231:477
9.231:481
9.231:475
9.231:458
9.232:460
9.232:462
9.232:435
9.232:413
9.232:409
9.233:413
9.235:431
9.235:440
9.236:436
9.236:433
9.236:436
9.236:440
9.237:447
9.250:452
9.256:453
9.256:452
9.256:448
9.257:446
9.257:439
9.257:432
9.257:426
9.257:419
9.258:410
9.260:398
9.261:394
9.261:388
9.261:383
9.261:371
9.261:365
9.262:362
9.262:380
9.262:391
9.262:390
9.264:400
9.264:419
9.264:441
9.264:428
9.264:415
9.264:402
9.266:397
9.266:390
9.266:373
9.268:363
9.284:363
9.284:346
9.285:339
9.285:346
9.285:352
9.285:357
9.285:368
9.286:357
9.286:384
9.289:397
9.289:392
9.289:400
9.289:406
9.290:400
9.290:382
9.290:364
9.290:355
9.290:362
9.290:354
9.293:358
9.294:374
9.294:374
9.294:371
9.294:369
9.294:376
9.294:379
9.294:383
9.294:385
9.296:389
9.297:391
9.313:394
9.313:404
9.313:399
9.314:401
9.314:413
9.314:412
9.317:418
9.317:443
9.317:449
9.317:421
9.318:402
9.318:402
9.318:400
9.318:423
9.318:446
9.319:440
9.321:437
9.321:441
9.321:444
9.321:466
9.322:478
9.322:486
9.322:492
9.322:497
9.322:502
9.325:508
9.325:514
9.325:516
9.326:515
9.326:511
9.341:511
9.341:508
9.341:502
9.342:505
9.342:508
9.346:517
9.346:525
9.346:531
9.346:533
9.346:537
9.346:542
9.346:540
9.346:560
9.347:574
9.347:573
9.350:583
9.350:604
9.350:603
9.350:604
9.351:602
9.351:585
9.351:583
9.351:582
9.351:584
9.354:581
9.354:574
9.354:566
9.354:563
9.354:570
9.354:586
9.370:603
9.370:609
9.375:598
9.375:588
9.375:603
9.375:602
9.375:572
9.375:578
9.375:603
9.376:620
9.376:629
9.376:625
9.378:604
9.379:596
9.379:583
9.379:581
9.379:568
9.379:570
9.379:572
9.380:584
9.380:595
9.383:596
9.383:606
9.383:607
9.383:598
9.384:584
9.384:565
9.384:556
9.384:575
9.384:608
9.398:608
9.403:621
9.403:603
9.403:569
9.403:564
9.404:556
9.404:537
9.404:542
9.404:546
9.404:554
9.405:566
9.407:566
9.407:573
9.408:580
9.408:577
9.408:570
9.408:565
9.409:570
9.409:571
9.409:564
9.411:554
9.411:546
9.411:539
9.411:539
9.412:538
9.412:534
9.412:533
9.412:529
9.412:527
9.412:525
9.431:526
9.431:521
9.431:535
9.432:557
9.432:562
9.432:568
9.432:575
9.436:578
9.436:570
9.436:556
9.437:539
9.437:529
9.437:526
9.437:519
9.437:514
9.438:506
9.438:504
9.440:500
9.440:501
9.440:498
9.440:525
9.441:547
9.441:551
9.441:557
9.441:567
9.441:573
9.442:566
9.444:553
9.444:539
9.444:526
9.460:526
9.460:516
9.460:512
9.460:506
9.460:508
9.460:522
9.460:531
9.464:520
9.464:508
9.464:508
9.464:514
9.464:520
9.465:520
9.465:523
9.465:529
9.466:528
9.469:525
9.469:523
9.469:522
9.469:517
9.469:495
9.470:477
9.470:467
9.470:470
9.470:481
9.471:488
9.472:497
9.472:509
9.472:502
9.473:481
9.489:471
9.489:491
9.489:522
9.493:533
9.494:550
9.494:546
9.494:529
9.495:528
9.495:524
9.495:519
9.495:520
9.495:518
9.495:512
9.496:493
9.497:486
9.497:485
9.497:486
9.497:485
9.497:484
9.498:489
9.498:497
9.498:500
9.501:495
9.501:501
9.501:500
9.501:497
9.502:512
9.502:524
9.502:517
9.502:499
9.517:499
9.517:486
9.522:485
9.522:480
9.522:468
9.522:464
9.523:458
9.523:466
9.523:475
9.523:478
9.523:477
9.524:468
9.526:477
9.527:486
9.527:488
9.528:492
9.528:500
9.528:515
9.528:518
9.528:495
9.529:458
9.529:444
9.530:449
9.530:464
9.530:464
9.530:473
9.531:504
9.531:524
9.531:509
9.531:491
9.550:479
9.550:478
