0.000:364
0.000:329
0.001:314
0.001:308
0.001:318
0.001:337
0.002:364
0.002:391
0.002:402
0.002:419
0.002:420
0.002:441
0.002:455
0.002:454
0.002:468
0.002:485
0.002:490
0.004:474
0.004:476
0.004:460
0.005:441
0.005:394
0.005:390
0.005:381
0.005:380
0.005:393
0.006:414
0.006:438
0.006:455
0.006:485
0.007:496
0.007:527
0.007:544
0.007:561
0.007:571
0.007:576
0.007:552
0.008:540
0.008:548
0.008:519
0.008:519
0.008:504
0.008:474
0.009:464
0.009:473
0.009:493
0.009:526
0.009:540
0.010:559
0.010:570
0.010:574
0.010:573
0.010:594
0.011:600
0.011:615
0.011:632
0.011:642
0.011:644
0.011:650
0.012:643
0.012:597
0.012:567
0.012:543
0.012:535
0.012:517
0.012:493
0.012:489
0.014:535
0.014:571
0.014:577
0.014:587
0.014:600
0.014:627
0.014:638
0.014:644
0.015:645
0.015:655
0.015:640
0.015:619
0.015:612
0.016:583
0.016:553
0.016:533
0.016:516
0.016:497
0.016:498
0.017:527
0.017:545
0.017:564
0.017:569
0.017:583
0.018:621
0.018:646
0.018:650
0.018:663
0.018:669
0.018:684
0.019:660
0.019:631
0.019:596
0.019:596
0.019:577
0.020:557
0.020:525
0.020:503
0.020:495
0.020:491
0.021:506
0.021:518
0.021:523
0.021:527
0.021:544
0.021:566
0.021:604
0.021:624
0.022:640
0.022:644
0.022:646
0.022:624
0.022:597
0.022:601
0.022:587
0.022:557
0.022:521
0.022:500
0.024:477
0.024:466
0.024:477
0.024:496
0.024:509
0.024:514
0.024:525
0.024:537
0.024:557
0.024:587
0.024:598
0.026:603
0.026:626
0.026:623
0.026:615
0.026:608
0.026:578
0.027:538
0.027:511
0.027:475
0.027:454
0.027:442
0.028:476
0.028:512
0.028:511
0.028:518
0.028:534
0.028:565
0.029:580
0.029:579
0.029:595
0.029:609
0.029:618
0.030:594
0.030:575
0.030:575
0.030:562
0.030:532
0.030:488
0.030:458
0.030:448
0.030:455
0.031:460
0.031:477
0.031:485
0.031:494
0.032:495
0.032:510
0.032:532
0.033:544
0.033:551
0.033:562
0.034:561
0.034:566
0.034:539
0.034:547
0.034:563
0.034:570
0.036:540
0.036:495
0.036:451
0.037:439
0.037:443
0.037:453
0.037:473
0.038:485
0.038:493
0.038:510
0.038:511
0.038:515
0.038:532
0.038:540
0.038:548
0.038:571
0.038:566
0.039:557
0.039:550
0.039:543
0.039:498
0.039:462
0.039:421
0.039:396
0.039:396
0.039:418
0.039:439
0.039:457
0.040:462
0.040:475
0.040:500
0.040:507
0.041:526
0.041:541
0.041:560
0.041:580
0.041:563
0.042:563
0.042:550
0.042:543
0.042:529
0.042:494
0.042:460
0.042:440
0.042:423
0.042:399
0.044:411
0.044:433
0.044:444
0.044:455
0.044:471
0.044:497
0.044:512
0.044:519
0.044:515
0.044:507
0.044:511
0.044:516
0.045:541
0.045:556
0.045:564
0.045:529
0.045:507
0.045:465
0.045:411
0.045:384
0.045:393
0.045:415
0.046:439
0.046:453
0.046:479
0.046:527
0.046:535
0.046:536
0.046:538
0.046:542
0.047:557
0.047:558
0.047:550
0.047:532
0.047:510
0.048:456
0.048:427
0.048:417
0.048:406
0.048:395
0.049:403
0.049:424
0.049:443
0.049:458
0.050:467
0.050:496
0.050:502
0.050:505
0.051:511
0.051:522
0.051:555
0.051:555
0.052:559
0.052:548
0.052:530
0.052:498
0.052:442
0.052:440
0.052:440
0.054:434
0.054:418
0.054:404
0.054:422
0.055:450
0.055:455
0.055:454
0.055:490
0.055:513
0.055:538
0.055:557
0.055:565
0.056:576
0.056:568
0.056:543
0.056:529
0.056:513
0.056:469
0.057:446
0.057:410
0.057:399
0.057:400
0.058:410
0.058:433
0.058:449
0.058:459
0.058:479
0.059:509
0.059:502
0.060:513
0.060:544
0.060:554
0.060:568
0.061:568
0.061:548
0.061:531
0.061:513
0.061:466
0.061:440
0.062:415
0.062:404
0.062:393
0.062:397
0.062:417
0.063:429
0.063:419
0.063:439
0.064:481
0.064:507
0.064:535
0.064:554
0.064:567
0.064:567
0.065:571
0.065:566
0.065:556
0.065:555
0.065:550
0.065:495
0.066:451
0.066:396
0.066:362
0.066:367
0.066:402
0.067:441
0.067:458
0.067:447
0.067:436
0.067:453
0.067:476
0.068:521
0.068:536
0.068:538
0.068:547
0.068:554
0.069:517
0.069:493
0.069:509
0.069:465
0.069:419
0.070:398
0.070:423
0.070:422
0.070:417
0.071:435
0.071:453
0.071:455
0.071:445
0.071:458
0.072:472
0.072:501
0.072:509
0.072:510
0.072:511
0.072:513
0.072:494
0.072:478
0.072:469
0.072:421
0.072:386
0.074:361
0.074:359
0.074:356
0.074:365
0.074:381
0.075:397
0.075:402
0.075:401
0.075:438
0.075:470
0.075:506
0.075:524
0.076:524
0.076:526
0.076:519
0.076:524
0.076:513
0.076:510
0.077:495
0.077:447
0.077:418
0.077:389
0.077:365
0.078:369
0.078:385
0.078:407
0.078:413
0.078:424
0.078:441
0.079:470
0.079:485
0.079:512
0.079:526
0.079:534
0.080:549
0.080:566
0.080:549
0.080:529
0.080:526
0.080:507
0.081:466
0.081:399
0.081:401
0.081:411
0.081:425
0.081:438
0.082:449
0.082:472
0.082:490
0.082:496
0.082:496
0.082:520
0.082:558
0.082:592
0.084:608
0.084:620
0.084:600
0.084:573
0.084:532
0.084:484
0.085:456
0.085:438
0.085:426
0.085:408
0.085:394
0.085:412
0.086:445
0.086:462
0.086:465
0.086:493
0.086:511
0.087:529
0.088:529
0.088:548
0.088:569
0.088:566
0.088:584
0.089:574
0.089:533
0.089:533
0.089:548
0.089:511
0.089:462
0.090:428
0.090:403
0.090:390
0.090:416
0.090:444
0.090:465
0.091:473
0.091:482
0.091:497
0.091:527
0.091:551
0.091:570
0.092:571
0.092:573
0.092:543
0.092:519
0.092:519
0.093:516
0.093:501
0.093:483
0.093:464
0.093:429
0.094:404
0.094:432
0.094:454
0.094:470
0.094:474
0.094:478
0.094:498
0.094:519
0.094:539
0.094:566
0.096:584
0.096:603
0.096:580
0.096:561
0.096:545
0.096:523
0.097:487
0.097:449
0.097:417
0.097:396
0.097:390
0.097:416
0.098:436
0.098:443
0.098:448
0.098:456
0.098:482
0.099:482
0.099:516
0.099:539
0.099:546
0.099:542
0.099:564
0.100:558
0.100:567
0.100:561
0.100:540
0.100:503
0.101:486
0.101:456
0.101:418
0.101:406
0.101:412
0.102:407
0.102:386
0.102:367
0.102:368
0.102:375
0.102:379
0.103:381
0.103:365
0.103:326
0.103:290
0.104:231
0.104:179
0.104:111
0.104:45
0.104:17
0.104:18
0.104:18
0.104:18
0.104:18
0.104:18
0.104:18
0.104:18
0.106:18
0.106:19
0.106:19
0.106:19
0.106:19
0.106:18
0.106:18
0.106:17
0.106:17
0.106:17
0.107:36
0.107:102
0.107:151
0.107:217
0.108:287
0.108:401
0.108:502
0.108:583
0.108:644
0.109:680
0.109:677
0.109:672
0.109:672
0.109:684
0.109:686
0.110:687
0.110:692
0.110:690
0.110:700
0.110:679
0.111:657
0.111:641
0.111:617
0.111:566
0.111:540
0.111:510
0.112:486
0.112:485
0.112:516
0.112:542
0.112:549
0.112:548
0.113:556
0.113:572
0.113:568
0.113:586
0.113:601
0.114:607
0.114:654
0.114:684
0.114:674
0.114:642
0.114:612
0.114:555
0.115:533
0.115:503
0.115:483
0.115:466
0.115:476
0.116:510
0.116:529
0.116:527
0.116:520
0.116:555
0.116:579
0.117:614
0.117:629
0.117:639
0.117:654
0.117:637
0.118:615
0.118:596
0.118:573
0.118:529
0.118:502
0.118:469
0.119:459
0.119:463
0.119:469
0.119:481
0.119:511
0.121:523
0.121:523
0.121:516
0.121:525
0.121:515
0.121:541
0.122:593
0.122:608
0.122:622
0.122:619
0.122:603
0.122:602
0.122:595
0.122:536
0.122:496
0.124:459
0.124:437
0.124:434
0.124:442
0.125:456
0.125:467
0.125:470
0.125:468
0.125:497
0.125:526
0.126:558
0.126:570
0.126:566
0.126:570
0.126:581
0.127:575
0.127:557
0.127:544
0.127:506
0.127:472
0.127:432
0.128:413
0.128:414
0.128:410
0.128:432
0.128:462
0.129:461
0.129:453
0.129:479
0.129:499
0.129:532
0.129:550
0.130:552
0.130:550
0.130:537
0.130:515
0.130:501
0.131:503
0.131:467
0.131:448
0.131:421
0.131:408
0.131:414
0.132:418
0.132:429
0.132:448
0.132:448
0.132:445
0.133:431
0.133:457
0.133:481
0.133:519
0.133:545
0.133:551
0.134:545
0.134:544
0.134:524
0.134:506
0.134:490
0.134:451
0.134:426
0.134:389
0.134:361
0.134:346
0.134:346
0.136:363
0.136:388
0.136:398
0.136:402
0.136:414
0.136:416
0.137:429
0.138:454
0.138:494
0.138:530
0.138:543
0.138:530
0.138:494
0.139:461
0.139:423
0.139:400
0.139:374
0.139:351
0.140:325
0.140:313
0.140:334
0.141:357
0.141:367
0.141:381
0.141:412
0.141:429
0.141:451
0.142:460
0.142:454
0.142:450
0.142:454
0.142:432
0.142:421
0.142:438
0.142:417
0.144:393
0.144:338
0.144:303
0.144:272
0.144:264
0.145:304
0.145:304
0.145:329
0.145:338
0.145:344
0.145:373
0.146:394
0.146:411
0.146:403
0.146:403
0.146:422
0.147:445
0.147:433
0.147:412
0.147:416
0.147:377
0.148:328
0.148:303
0.148:289
0.148:285
0.148:295
0.148:316
0.149:322
0.149:336
0.149:350
0.149:370
0.149:387
0.150:425
0.150:447
0.150:466
0.150:474
0.150:479
0.151:458
0.151:446
0.151:449
0.151:413
0.151:386
0.152:380
0.152:376
0.152:369
0.152:379
0.152:388
0.153:396
0.153:409
0.153:432
0.153:462
0.154:485
0.154:510
0.154:522
0.155:545
0.155:559
0.155:567
0.155:538
0.155:515
0.156:513
0.156:498
0.156:464
0.156:456
0.157:474
0.157:464
0.157:453
0.157:453
0.157:455
0.158:459
0.158:470
0.158:484
0.158:527
0.159:570
0.159:607
0.159:628
0.159:648
0.159:656
0.160:656
0.160:616
0.160:606
0.160:617
0.160:597
0.160:562
0.161:546
0.161:540
0.161:521
0.161:500
0.161:510
0.162:517
0.162:532
0.162:566
0.162:579
0.162:585
0.162:611
0.162:635
0.162:658
0.162:652
0.164:650
0.164:652
0.164:639
0.164:623
0.164:588
0.165:539
0.165:513
0.165:499
0.165:480
0.165:464
0.166:493
0.166:519
0.166:543
0.166:558
0.166:572
0.166:594
0.167:628
0.167:658
0.167:669
0.167:653
0.167:656
0.168:639
0.168:615
0.168:576
0.168:557
0.168:545
0.168:540
0.169:528
0.169:504
0.169:504
0.169:483
0.169:494
0.170:507
0.170:509
0.170:506
0.171:516
0.171:550
0.171:566
0.171:581
0.171:602
0.172:611
0.172:639
0.172:622
0.172:608
0.172:604
0.172:574
0.172:520
0.172:495
0.174:483
0.174:472
0.174:469
0.174:474
0.175:482
0.175:494
0.175:530
0.175:563
0.175:579
0.175:576
0.175:587
0.175:601
0.176:604
0.176:619
0.176:608
0.176:588
0.176:586
0.177:579
0.177:526
0.177:476
0.177:432
0.177:414
0.178:403
0.178:426
0.178:461
0.178:506
0.178:542
0.178:565
0.179:594
0.179:603
0.179:609
0.179:611
0.179:611
0.179:620
0.180:610
0.180:586
0.180:562
0.180:547
0.180:497
0.181:467
0.181:434
0.181:434
0.181:406
0.181:396
0.181:417
0.182:455
0.182:471
0.182:493
0.182:499
0.182:516
0.182:525
0.182:560
0.182:581
0.184:588
0.184:603
0.184:597
0.184:587
0.184:569
0.185:545
0.185:504
0.185:475
0.185:450
0.185:433
0.185:419
0.186:426
0.186:437
0.186:456
0.186:468
0.186:488
0.187:510
0.188:514
0.188:540
0.188:557
0.188:555
0.188:555
0.189:550
0.189:554
0.189:530
0.189:529
0.189:498
0.190:464
0.191:427
0.191:401
0.191:394
0.191:397
0.191:405
0.192:410
0.192:433
0.192:454
0.192:493
0.192:527
0.192:551
0.193:550
0.193:554
0.193:575
0.193:575
0.193:563
0.194:563
0.194:546
0.194:460
0.194:434
0.194:434
0.194:404
0.194:384
0.195:382
0.195:405
0.195:424
0.195:441
0.195:451
0.195:462
0.196:479
0.196:491
0.196:504
0.196:515
0.196:548
0.197:566
0.197:559
0.197:537
0.197:522
0.197:512
0.197:476
0.198:457
0.198:429
0.198:413
0.198:407
0.198:423
0.199:440
0.199:439
0.199:433
0.199:440
0.200:477
0.200:500
0.200:519
0.200:521
0.200:541
0.200:547
0.201:523
0.201:504
0.201:489
0.201:481
0.201:470
0.201:462
0.202:450
0.202:460
0.202:461
0.202:473
0.202:491
0.202:489
0.202:464
0.205:466
0.205:486
0.205:474
0.205:474
0.205:480
0.205:485
0.205:479
0.205:475
0.206:491
0.206:508
0.206:517
0.206:511
0.207:511
0.207:504
0.207:501
0.207:498
0.207:482
0.208:472
0.208:467
0.208:459
0.208:452
0.208:456
0.209:460
0.209:468
0.209:469
0.209:478
0.209:477
0.210:472
0.210:476
0.210:481
0.210:490
0.210:494
0.211:493
0.211:488
0.211:484
0.211:473
0.211:466
0.212:462
0.212:454
0.212:464
0.212:480
0.212:485
0.212:485
0.212:493
0.212:483
0.214:471
0.214:467
0.214:464
0.214:451
0.214:452
0.215:483
0.215:496
0.215:497
0.215:486
0.215:474
0.215:464
0.215:459
0.216:464
0.216:473
0.216:486
0.216:492
0.216:475
0.217:442
0.217:423
0.217:436
0.217:460
0.217:489
0.218:518
0.218:535
0.218:543
0.218:534
0.218:520
0.218:520
0.219:511
0.219:498
0.219:487
0.219:485
0.219:494
0.220:490
0.220:475
0.220:471
0.222:466
0.222:457
0.222:445
0.222:439
0.223:437
0.223:466
0.223:481
0.223:469
0.223:465
0.223:471
0.223:482
0.223:489
0.224:492
0.224:493
0.224:494
0.224:490
0.224:490
0.224:488
0.224:473
0.224:452
0.225:450
0.225:460
0.225:450
0.225:449
0.225:464
0.226:467
0.226:452
0.226:452
0.226:464
0.226:479
0.226:503
0.227:522
0.227:516
0.227:502
0.227:480
0.227:446
0.228:428
0.228:448
0.228:451
0.228:439
0.228:437
0.228:435
0.229:437
0.229:436
0.229:428
0.229:436
0.229:448
0.230:443
0.230:437
0.230:446
0.230:462
0.230:462
0.231:461
0.231:457
0.231:445
0.231:436
0.231:442
0.231:445
0.232:444
0.232:432
0.232:419
0.232:400
0.232:395
0.232:406
0.232:420
0.232:437
0.234:446
0.234:444
0.234:435
0.234:426
0.234:442
0.235:453
0.235:452
0.235:445
0.235:429
0.235:451
0.235:474
0.235:469
0.235:467
0.235:465
0.235:468
0.235:458
0.235:449
0.235:444
0.235:455
0.235:469
0.235:487
0.235:501
0.235:493
0.236:487
0.236:485
0.236:487
0.236:510
0.236:515
0.237:514
0.237:516
0.238:495
0.238:507
0.238:522
0.238:511
0.238:487
0.238:474
0.238:469
0.238:458
0.239:459
0.239:469
0.239:472
0.239:460
0.240:436
0.240:440
0.240:475
0.240:475
0.240:504
0.240:540
0.241:531
0.241:524
0.241:538
0.241:545
0.241:533
0.242:526
0.242:501
0.242:493
0.242:497
0.242:497
0.242:493
0.242:484
0.242:487
0.242:486
0.244:493
0.244:493
0.244:495
0.244:503
0.244:500
0.245:504
0.245:510
0.245:528
0.245:537
0.245:529
0.245:512
0.245:494
0.246:472
0.246:472
0.246:477
0.246:475
0.246:475
0.246:478
0.246:486
0.246:496
0.246:510
0.246:507
0.246:496
0.246:490
0.247:503
0.247:506
0.247:507
0.247:498
0.247:514
0.248:510
0.248:497
0.248:501
0.248:505
0.248:490
0.249:474
0.249:458
0.249:465
0.249:461
0.249:470
0.250:478
0.250:482
0.250:470
0.250:463
0.250:463
0.251:479
0.251:489
0.251:496
0.251:515
0.251:542
0.252:549
0.252:533
0.252:508
0.252:495
0.252:485
0.253:479
0.253:478
0.253:467
0.253:457
0.254:456
0.254:466
0.255:484
0.255:504
0.255:524
0.255:559
0.255:576
0.255:551
0.255:535
0.255:542
0.255:532
0.255:516
0.256:512
0.256:484
0.256:460
0.256:433
0.258:398
0.258:358
0.258:337
0.258:331
0.258:307
0.259:280
0.259:239
0.259:193
0.259:140
0.259:109
0.259:70
0.260:22
0.260:17
0.260:17
0.260:17
0.260:17
0.260:17
0.260:18
0.261:18
0.261:18
0.261:19
0.261:19
0.261:19
0.261:19
0.262:19
0.262:18
0.262:18
0.262:18
0.262:18
0.262:18
0.262:17
0.263:36
0.263:128
0.263:201
0.263:276
0.263:369
0.264:487
0.264:579
0.264:646
0.264:679
0.264:689
0.264:675
0.264:651
0.264:631
0.264:620
0.264:609
0.264:598
0.264:595
0.266:587
0.266:592
0.266:602
0.266:601
0.266:598
0.266:599
0.267:596
0.267:575
0.267:571
0.267:582
0.267:579
0.268:573
0.268:573
0.268:565
0.268:558
0.268:549
0.268:547
0.269:534
0.269:549
0.269:563
0.269:570
0.269:586
0.270:596
0.270:603
0.270:601
0.271:600
0.272:605
0.272:607
0.272:605
0.273:596
0.273:580
0.273:566
0.273:556
0.273:561
0.273:554
0.274:547
0.274:546
0.274:566
0.274:593
0.275:602
0.275:594
0.275:594
0.275:576
0.275:550
0.275:535
0.276:545
0.276:565
0.276:561
0.276:555
0.277:560
0.277:579
0.277:583
0.277:568
0.277:548
0.278:537
0.278:531
0.278:524
0.278:514
0.278:509
0.278:512
0.279:521
0.279:545
0.279:565
0.279:574
0.279:584
0.280:585
0.280:569
0.280:548
0.280:544
0.280:553
0.281:551
0.281:540
0.281:532
0.281:527
0.281:516
0.282:493
0.282:481
0.282:503
0.282:504
0.282:505
0.282:532
0.282:542
0.282:528
0.282:519
0.284:517
0.284:518
0.284:521
0.284:505
0.284:497
0.285:511
0.285:527
0.285:518
0.285:506
0.285:497
0.285:495
0.285:496
0.286:493
0.286:496
0.286:499
0.286:500
0.286:492
0.287:492
0.287:492
0.287:496
0.287:496
0.287:499
0.288:498
0.288:497
0.288:490
0.288:485
0.288:485
0.288:503
0.289:497
0.289:484
0.289:485
0.289:481
0.290:479
0.290:478
0.290:479
0.290:462
0.291:444
0.291:443
0.291:443
0.291:462
0.291:487
0.291:518
0.291:524
0.292:502
0.292:483
0.292:479
0.292:471
0.292:460
0.293:463
0.293:473
0.293:479
0.293:468
0.293:439
0.294:442
0.294:448
0.294:442
0.294:435
0.294:436
0.294:434
0.294:425
0.294:429
0.294:444
0.296:444
0.296:450
0.296:457
0.296:457
0.296:447
0.296:450
0.297:466
0.297:467
0.297:453
0.297:428
0.297:415
0.298:418
0.298:418
0.298:413
0.298:404
0.298:404
0.298:406
0.299:426
0.299:448
0.299:444
0.299:427
0.299:407
0.300:404
0.300:398
0.300:403
0.300:423
0.300:422
0.300:407
0.301:396
0.301:394
0.301:399
0.301:397
0.301:384
0.302:387
0.302:392
0.302:388
0.302:384
0.302:402
0.302:410
0.303:399
0.303:411
0.303:423
0.303:422
0.303:426
0.304:423
0.304:408
0.305:391
0.305:371
0.305:361
0.305:369
0.306:371
0.306:404
0.306:432
0.306:431
0.306:405
0.307:393
0.307:407
0.307:410
0.307:413
0.308:411
0.308:423
0.308:432
0.308:436
0.308:432
0.309:426
0.309:429
0.309:437
0.309:432
0.309:455
0.310:489
0.310:489
0.310:473
0.310:455
0.310:446
0.311:447
0.311:447
0.311:466
0.311:479
0.311:485
0.311:473
0.312:478
0.312:491
0.312:506
0.312:536
0.312:560
0.313:568
0.313:556
0.313:541
0.313:522
0.313:512
0.313:525
0.314:537
0.314:544
0.314:542
0.314:516
0.314:517
0.314:517
0.314:515
0.314:519
0.314:531
0.314:531
0.314:535
0.316:552
0.316:569
0.316:579
0.316:587
0.316:594
0.316:595
0.317:587
0.317:575
0.317:565
0.317:570
0.317:578
0.317:573
0.318:559
0.318:547
0.318:545
0.318:556
0.318:564
0.319:575
0.319:581
0.319:584
0.319:587
0.319:586
0.319:582
0.320:579
0.320:573
0.321:559
0.321:549
0.321:530
0.321:532
0.321:545
0.321:547
0.322:547
0.322:545
0.322:545
0.322:538
0.322:535
0.322:536
0.322:533
0.322:531
0.322:537
0.322:543
0.322:560
0.322:587
0.324:603
0.324:600
0.324:572
0.324:562
0.324:560
0.324:561
0.324:566
0.325:565
0.325:552
0.325:534
0.325:520
0.325:513
0.325:510
0.326:520
0.326:529
0.326:547
0.326:567
0.326:582
0.327:586
0.327:580
0.327:567
0.327:564
0.327:567
0.327:562
0.328:544
0.328:517
0.328:504
0.328:512
0.328:521
0.329:511
0.329:498
0.329:511
0.329:546
0.329:577
0.330:589
0.330:568
0.330:551
0.330:544
0.330:558
0.330:573
0.331:570
0.331:561
0.331:552
0.331:561
0.331:560
0.331:548
0.332:531
0.332:507
0.332:512
0.332:515
0.332:515
0.333:511
0.333:509
0.333:495
0.333:493
0.333:490
0.333:487
0.334:512
0.334:522
0.334:551
0.334:562
0.334:552
0.334:541
0.334:541
0.334:538
0.334:536
0.334:534
0.334:531
0.336:515
0.336:503
0.336:486
0.336:471
0.336:470
0.337:477
0.337:489
0.337:514
0.337:532
0.338:526
0.338:511
0.338:505
0.339:502
0.339:504
0.339:512
0.340:512
0.340:496
0.340:491
0.340:491
0.340:485
0.340:491
0.341:501
0.341:498
0.341:494
0.341:509
0.341:521
0.342:516
0.342:500
0.342:499
0.342:511
0.342:517
0.342:532
0.342:524
0.342:523
0.342:524
0.344:523
0.344:515
0.344:504
0.344:495
0.344:485
0.344:483
0.345:470
0.345:470
0.345:458
0.345:459
0.345:467
0.346:478
0.346:489
0.346:483
0.346:472
0.346:459
0.346:465
0.347:499
0.347:520
0.347:525
0.347:530
0.347:530
0.348:506
0.348:492
0.348:476
0.348:474
0.348:475
0.348:476
0.349:482
0.349:487
0.349:492
0.349:476
0.349:465
0.350:456
0.350:483
0.350:496
0.350:500
0.350:518
0.350:527
0.351:523
0.351:515
0.351:508
0.351:499
0.351:495
0.352:493
0.352:491
0.352:483
0.352:473
0.352:468
0.352:460
0.352:451
0.352:456
0.352:463
0.354:479
0.354:482
0.355:472
0.355:468
0.355:477
0.355:494
0.355:502
0.355:509
0.355:530
0.356:514
0.356:491
0.356:477
0.356:482
0.357:479
0.357:479
0.357:450
0.357:451
0.357:459
0.357:458
0.358:456
0.358:452
0.358:451
0.358:459
0.358:464
0.359:457
0.359:484
0.359:514
0.359:508
0.359:516
0.359:517
0.360:506
0.360:511
0.360:499
0.360:501
0.360:498
0.361:483
0.361:467
0.361:457
0.361:455
0.361:464
0.362:489
0.362:500
0.362:495
0.362:485
0.362:479
0.362:486
0.362:502
0.362:514
0.362:518
0.364:514
0.364:506
0.364:500
0.364:498
0.364:495
0.364:496
0.365:487
0.365:478
0.365:473
0.365:474
0.365:474
0.365:475
0.366:474
0.366:481
0.366:482
0.366:479
0.366:484
0.367:489
0.367:488
0.367:483
0.367:481
0.367:473
0.367:462
0.368:487
0.368:516
0.368:516
0.368:517
0.368:503
0.368:466
0.369:436
0.369:451
0.369:494
0.369:524
0.369:521
0.370:509
0.371:498
0.371:478
0.371:468
0.372:476
0.372:484
0.373:493
0.373:512
0.373:529
0.374:531
0.374:508
0.374:488
0.374:505
0.374:507
0.374:499
0.374:492
0.375:495
0.375:505
0.375:517
0.375:508
0.375:500
0.376:504
0.376:499
0.376:485
0.376:480
0.376:470
0.376:479
0.377:487
0.377:494
0.377:505
0.377:501
0.377:519
0.378:512
0.378:491
0.378:474
0.378:474
0.378:461
0.378:453
0.379:444
0.379:438
0.379:450
0.379:474
0.379:493
0.379:506
0.380:505
0.380:492
0.380:480
0.380:476
0.380:468
0.381:471
0.381:471
0.381:471
0.381:462
0.381:473
0.381:487
0.382:480
0.382:458
0.382:436
0.382:429
0.382:432
0.382:455
0.382:472
0.382:467
0.384:453
0.384:455
0.384:469
0.384:463
0.384:446
0.385:441
0.385:453
0.385:463
0.385:463
0.385:460
0.385:460
0.385:453
0.385:456
0.385:461
0.385:463
0.386:463
0.386:464
0.386:459
0.386:449
0.387:443
0.388:437
0.388:447
0.388:452
0.388:449
0.388:443
0.389:460
0.389:476
0.389:510
0.389:529
0.390:508
0.390:495
0.390:496
0.390:483
0.390:485
0.390:489
0.391:490
0.391:493
0.391:510
0.391:527
0.391:522
0.392:507
0.392:509
0.392:524
0.392:531
0.392:534
0.392:532
0.392:528
0.392:511
0.392:511
0.394:506
0.394:507
0.394:516
0.394:520
0.394:511
0.394:491
0.394:477
0.395:477
0.395:476
0.395:479
0.395:481
0.395:493
0.395:510
0.395:519
0.395:526
0.395:532
0.395:529
0.395:521
0.395:535
0.395:532
0.395:521
0.395:504
0.395:491
0.395:511
0.395:500
0.396:474
0.396:450
0.396:441
0.396:469
0.396:515
0.397:530
0.397:541
0.397:544
0.397:546
0.397:547
0.397:541
0.398:540
0.398:540
0.398:546
0.398:551
0.398:551
0.399:537
0.399:515
0.399:498
0.399:486
0.399:474
0.399:474
0.400:487
0.400:496
0.400:489
0.400:485
0.400:474
0.401:504
0.401:503
0.401:503
0.401:530
0.402:538
0.402:536
0.402:527
0.402:527
0.402:525
0.403:527
0.403:532
0.403:540
0.404:528
0.404:514
0.404:503
0.404:484
0.404:481
0.406:481
0.406:491
0.406:504
0.407:512
0.407:510
0.407:504
0.407:519
0.407:534
0.408:530
0.408:517
0.408:514
0.408:502
0.408:497
0.409:505
0.409:511
0.409:509
0.409:504
0.409:516
0.409:533
0.410:543
0.410:539
0.410:546
0.410:529
0.410:506
0.411:484
0.411:480
0.411:477
0.411:467
0.411:454
0.412:468
0.412:472
0.412:451
0.412:401
0.412:389
0.413:362
0.413:296
0.413:213
0.413:180
0.413:160
0.414:105
0.414:57
0.414:37
0.414:17
0.414:17
0.414:17
0.414:18
0.414:18
0.414:18
0.414:18
0.414:19
0.414:19
0.414:19
0.415:19
0.415:19
0.415:19
0.415:20
0.415:19
0.415:19
0.415:18
0.416:18
0.416:17
0.416:17
0.416:19
0.416:126
0.416:222
0.416:323
0.416:449
0.417:548
0.417:618
0.417:656
0.417:693
0.417:705
0.418:687
0.418:662
0.418:632
0.418:609
0.418:594
0.419:562
0.419:542
0.419:536
0.421:530
0.421:537
0.421:562
0.421:579
0.421:592
0.422:597
0.422:600
0.422:607
0.422:617
0.424:621
0.424:622
0.424:624
0.424:634
0.424:646
0.424:665
0.425:658
0.425:637
0.425:612
0.425:592
0.425:582
0.426:584
0.426:588
0.426:599
0.426:605
0.426:615
0.427:619
0.427:596
0.427:603
0.427:637
0.427:656
0.427:656
0.428:653
0.428:636
0.428:612
0.428:597
0.428:598
0.428:600
0.429:616
0.429:618
0.429:608
0.429:593
0.429:573
0.430:561
0.430:557
0.430:585
0.430:611
0.430:608
0.431:594
0.431:578
0.431:586
0.431:599
0.431:589
0.432:601
0.432:606
0.432:603
0.432:600
0.432:594
0.432:591
0.432:580
0.432:568
0.432:565
0.432:558
0.433:538
0.433:522
0.434:499
0.434:545
0.434:580
0.434:577
0.434:578
0.434:597
0.434:598
0.435:573
0.435:579
0.435:599
0.435:604
0.435:586
0.435:563
0.435:535
0.435:512
0.435:499
0.435:510
0.435:522
0.435:513
0.435:507
0.435:512
0.435:515
0.435:511
0.436:505
0.436:526
0.436:535
0.436:535
0.437:555
0.437:577
0.437:581
0.437:571
0.438:562
0.438:541
0.438:513
0.438:506
0.438:505
0.438:518
0.438:529
0.438:518
0.439:500
0.439:495
0.439:505
0.439:511
0.440:501
0.440:507
0.440:524
0.440:534
0.440:536
0.441:540
0.441:542
0.441:530
0.441:512
0.441:507
0.442:496
0.442:488
0.442:477
0.442:465
0.442:448
0.442:450
0.442:469
0.442:486
0.444:485
0.444:484
0.444:500
0.444:513
0.444:507
0.444:514
0.445:523
0.445:530
0.445:528
0.445:518
0.445:496
0.445:464
0.446:458
0.446:463
0.446:448
0.446:457
0.446:462
0.446:451
0.447:457
0.447:465
0.447:467
0.447:450
0.448:462
0.448:479
0.448:470
0.448:470
0.448:458
0.449:453
0.449:461
0.449:470
0.449:476
0.449:486
0.449:486
0.450:473
0.450:451
0.450:422
0.450:426
0.450:429
0.451:424
0.451:411
0.451:401
0.451:403
0.451:408
0.451:412
0.452:413
0.452:439
0.452:466
0.452:465
0.452:461
0.452:458
0.452:458
0.452:449
0.454:433
0.454:417
0.455:409
0.455:407
0.455:395
0.455:386
0.456:384
0.456:384
0.456:395
0.456:406
0.456:405
0.456:397
0.456:397
0.456:398
0.456:426
0.456:468
0.456:474
0.457:458
0.457:460
0.457:457
0.457:451
0.457:428
0.457:415
0.458:395
0.458:387
0.458:393
0.458:409
0.458:410
0.458:409
0.459:432
0.459:464
0.459:473
0.459:467
0.459:467
0.460:463
0.460:475
0.460:488
0.460:495
0.460:509
0.461:511
0.461:491
0.461:461
0.461:450
0.461:485
0.461:497
0.462:503
0.462:519
0.462:522
0.462:511
0.462:505
0.462:511
0.462:518
0.462:529
0.462:540
0.464:540
0.464:540
0.464:544
0.464:551
0.464:563
0.464:566
0.464:561
0.464:560
0.464:559
0.465:566
0.465:583
0.465:587
0.465:584
0.465:578
0.465:567
0.466:553
0.466:550
0.466:553
0.466:568
0.466:586
0.467:584
0.467:569
0.467:561
0.467:559
0.467:590
0.467:614
0.468:627
0.468:635
0.468:622
0.468:618
0.468:602
0.469:591
0.469:583
0.469:594
0.469:601
0.469:583
0.470:586
0.471:586
0.471:576
0.471:576
0.471:568
0.471:569
0.471:587
0.471:604
0.471:598
0.471:568
0.472:589
0.472:599
0.472:606
0.472:598
0.472:587
0.472:568
0.472:554
0.472:560
0.474:572
0.474:578
0.474:560
0.474:548
0.474:548
0.475:547
0.475:544
0.475:563
0.475:563
0.475:573
0.475:590
0.475:600
0.475:596
0.475:579
0.476:573
0.476:582
0.476:9534
0.476:535
0.476:556
0.477:567
0.477:583
0.477:590
0.477:585
0.477:581
0.477:571
0.478:551
0.478:536
0.478:523
0.478:514
0.478:527
0.479:561
0.479:586
0.479:587
0.479:586
0.479:567
0.480:559
0.480:564
0.480:572
0.480:564
0.480:555
0.481:579
0.481:574
0.481:568
0.481:566
0.481:562
0.482:558
0.482:551
0.482:549
0.482:545
0.482:556
0.482:553
0.483:528
0.483:539
0.483:553
0.483:556
0.483:562
0.484:569
0.484:566
0.484:562
0.484:545
0.484:536
0.484:531
0.484:540
0.484:542
0.484:532
0.484:533
0.485:536
0.485:527
0.485:522
0.485:522
0.485:519
0.486:518
0.486:524
0.486:516
0.487:516
0.487:522
0.487:533
0.487:534
0.487:530
0.487:541
0.488:540
0.488:533
0.488:529
0.488:525
0.488:524
0.488:523
0.489:529
0.489:532
0.489:524
0.489:515
0.490:519
0.490:508
0.490:509
0.490:530
0.490:534
0.491:533
0.491:527
0.491:520
0.491:501
0.491:509
0.491:520
0.492:508
0.492:498
0.492:494
0.492:494
0.492:498
0.492:495
0.492:487
0.492:489
0.494:490
0.494:486
0.494:481
0.494:485
0.494:480
0.495:470
0.495:473
0.495:478
0.495:486
0.495:487
0.495:504
0.495:531
0.495:533
0.496:528
0.496:529
0.496:534
0.496:532
0.496:515
0.496:505
0.497:492
0.497:492
0.497:484
0.497:482
0.497:485
0.498:487
0.498:485
0.498:491
0.498:486
0.498:470
0.498:468
0.499:479
0.499:498
0.499:501
0.499:520
0.499:531
0.500:535
0.500:527
0.500:517
0.500:504
0.500:493
0.500:485
0.501:480
0.501:490
0.501:493
0.501:494
0.501:492
0.502:485
0.502:486
0.502:502
0.502:508
0.502:514
0.502:515
0.502:503
0.504:506
0.505:519
0.505:521
0.505:502
0.505:506
0.505:505
0.506:505
0.506:500
0.506:485
0.506:485
0.507:489
0.507:483
0.507:471
0.507:485
0.507:505
0.507:525
0.508:517
0.508:497
0.508:484
0.508:502
0.508:518
0.509:519
0.509:518
0.509:506
0.509:496
0.509:488
0.509:479
0.510:479
0.510:477
0.510:477
0.510:477
0.511:474
0.511:475
0.511:478
0.511:481
0.511:486
0.511:488
0.512:487
0.512:485
0.512:496
0.512:493
0.512:500
0.513:503
0.513:512
0.513:510
0.513:496
0.513:473
0.513:454
0.514:453
0.514:454
0.514:459
0.514:463
0.514:465
0.514:456
0.514:442
0.514:436
0.514:438
0.514:446
0.514:446
0.514:447
0.514:450
0.514:458
0.514:464
0.514:463
0.514:469
0.514:477
0.516:473
0.516:469
0.516:459
0.516:449
0.516:459
0.517:460
0.517:455
0.517:448
0.517:451
0.517:460
0.518:470
0.518:476
0.518:470
0.518:459
0.518:448
0.518:457
0.519:465
0.519:467
0.519:480
0.519:518
0.519:531
0.520:531
0.520:511
0.521:507
0.521:488
0.521:468
0.522:467
0.522:480
0.522:494
0.522:506
0.522:513
0.522:519
0.522:518
0.522:517
0.522:526
0.522:543
0.522:555
0.522:559
0.523:549
0.523:524
0.523:510
0.523:526
0.523:535
0.524:527
0.524:503
0.524:498
0.524:516
0.524:539
0.524:565
0.524:574
0.524:554
0.524:523
0.524:516
0.525:510
0.525:507
0.525:510
0.525:513
0.526:513
0.526:512
0.526:514
0.526:535
0.526:538
0.526:523
0.526:509
0.527:495
0.527:492
0.527:503
0.527:512
0.527:508
0.528:509
0.528:513
0.528:521
0.528:526
0.528:523
0.528:532
0.529:534
0.529:535
0.529:532
0.529:531
0.529:530
0.530:546
0.530:546
0.530:544
0.530:527
0.530:513
0.530:507
0.531:508
0.531:516
0.531:515
0.531:524
0.531:530
0.532:529
0.532:527
0.532:519
0.532:514
0.532:516
0.532:530
0.532:539
0.532:525
0.532:524
0.534:517
0.534:507
0.534:500
0.534:497
0.534:489
0.535:508
0.535:545
0.535:545
0.535:525
0.535:523
0.535:524
0.535:527
0.535:527
0.535:520
0.535:513
0.535:515
0.535:522
0.535:528
0.535:524
0.535:519
0.535:510
0.536:508
0.536:528
0.536:535
0.536:540
0.536:553
0.536:553
0.538:549
0.538:535
0.538:526
0.538:521
0.538:521
0.539:507
0.539:477
0.539:477
0.539:477
0.540:469
0.540:448
0.540:424
0.540:392
0.540:372
0.541:372
0.541:341
0.541:300
0.541:272
0.541:245
0.541:199
0.541:142
0.542:87
0.542:36
0.542:17
0.542:17
0.542:17
0.542:17
0.542:18
0.542:18
0.542:18
0.542:18
0.543:18
0.543:18
0.543:18
0.543:18
0.543:18
0.543:18
0.544:17
0.544:17
0.544:17
0.544:49
0.544:109
0.544:181
0.544:300
0.544:416
0.544:531
0.544:642
0.544:718
0.545:745
0.545:744
0.545:731
0.545:728
0.545:731
0.546:700
0.546:688
0.546:675
0.546:665
0.546:652
0.547:635
0.547:628
0.547:620
0.547:617
0.547:609
0.547:600
0.548:590
0.548:579
0.548:574
0.548:574
0.548:580
0.549:573
0.549:571
0.549:572
0.549:575
0.549:578
0.563:578
0.563:582
0.564:587
0.564:594
0.564:593
0.567:589
0.567:580
0.567:571
0.567:569
0.567:567
0.568:565
0.568:562
0.568:555
0.568:554
0.568:558
0.571:557
0.571:560
0.571:576
0.571:582
0.571:587
0.571:586
0.573:576
0.573:568
0.573:560
0.573:524
0.575:515
0.575:552
0.575:611
0.575:631
0.575:614
0.591:595
0.591:562
0.596:540
0.596:536
0.596:541
0.596:542
0.597:555
0.597:567
0.597:568
0.597:565
0.597:552
0.598:545
0.600:550
0.600:551
0.600:544
0.600:545
0.601:543
0.601:542
0.601:536
0.601:531
0.601:535
0.604:538
0.604:518
0.605:545
0.605:567
0.605:555
0.605:538
0.605:518
0.605:512
0.606:523
0.620:523
0.625:523
0.625:511
0.625:493
0.625:518
0.626:541
0.626:532
0.626:537
0.626:533
0.626:529
0.627:521
0.629:512
0.629:506
0.629:505
0.629:508
0.630:515
0.630:528
0.630:526
0.630:515
0.630:511
0.633:509
0.633:506
0.633:505
0.633:495
0.634:484
0.634:477
0.634:481
0.634:478
0.635:470
0.635:472
0.654:479
0.654:486
0.654:486
0.654:477
0.654:471
0.654:477
0.654:478
0.654:475
0.657:477
0.657:465
0.657:479
0.657:494
0.658:500
0.658:500
0.658:487
0.658:468
0.658:460
0.662:471
0.662:472
0.662:465
0.662:459
0.663:455
0.663:437
0.663:443
0.663:458
0.663:477
0.664:477
0.665:480
0.665:486
0.665:477
0.682:477
0.682:451
0.682:427
0.682:421
0.682:411
0.684:441
0.684:483
0.686:470
0.687:448
0.687:432
0.687:442
0.687:424
0.687:409
0.688:411
0.688:402
0.688:407
0.690:442
0.690:461
0.690:453
0.690:454
0.691:457
0.691:450
0.691:444
0.691:435
0.691:421
0.691:409
0.694:393
0.694:377
0.694:362
0.695:370
0.710:393
0.710:394
0.710:388
0.710:388
0.714:420
0.715:426
0.715:423
0.715:416
0.715:413
0.715:409
0.715:407
0.715:411
0.716:410
0.719:404
0.719:400
0.720:399
0.720:397
0.720:396
0.720:396
0.720:393
0.721:405
0.721:397
0.721:392
0.722:398
0.722:405
0.722:411
0.722:412
0.722:407
0.722:411
0.724:420
0.739:420
0.739:437
0.739:448
0.744:455
0.744:467
0.744:466
0.745:461
0.745:444
0.745:434
0.745:436
0.746:435
0.746:440
0.748:443
0.748:454
0.748:470
0.748:493
0.749:513
0.749:525
0.749:527
0.750:523
0.750:532
0.750:526
0.752:522
0.752:522
0.752:523
0.753:525
0.753:527
0.754:524
0.754:523
0.754:529
0.771:536
0.772:542
0.772:547
0.772:552
0.772:551
0.772:551
0.772:556
0.772:563
0.772:579
0.776:583
0.776:587
0.776:591
0.776:595
0.777:591
0.777:593
0.777:605
0.777:604
0.777:597
0.778:597
0.780:604
0.780:596
0.780:586
0.780:588
0.780:591
0.781:601
0.781:606
0.781:612
0.781:615
0.784:606
0.784:589
0.801:589
0.801:576
0.801:599
0.801:630
0.801:640
0.802:643
0.802:649
0.802:640
0.804:620
0.804:612
0.804:601
0.806:589
0.806:584
0.806:582
0.806:579
0.807:571
0.807:579
0.807:592
0.809:609
0.809:610
0.809:605
0.810:619
0.810:622
0.810:614
0.810:606
0.810:596
0.810:586
0.813:579
0.813:588
0.813:596
0.829:584
0.830:572
0.830:579
0.830:579
0.830:592
0.834:584
0.834:577
0.834:571
0.834:578
0.835:585
0.835:592
0.835:600
0.835:607
0.835:615
0.835:605
0.837:580
0.837:564
0.837:552
0.837:550
0.838:563
0.838:557
0.838:550
0.838:566
0.838:568
0.841:567
0.841:562
0.841:565
0.841:562
0.842:564
0.842:575
0.858:575
0.858:581
0.858:591
0.858:589
0.862:581
0.862:568
0.862:549
0.862:538
0.862:561
0.863:584
0.863:575
0.864:549
0.864:534
0.864:529
0.865:516
0.866:509
0.866:534
0.866:552
0.866:566
0.866:572
0.867:568
0.867:557
0.867:554
0.870:556
0.870:561
0.871:564
0.871:572
0.871:572
0.871:557
0.871:539
0.886:543
0.891:545
0.891:530
0.891:526
0.891:513
0.892:512
0.892:510
0.892:508
0.892:508
0.892:526
0.895:534
0.895:542
0.895:551
0.895:547
0.896:531
0.896:545
0.896:543
0.896:523
0.896:503
0.896:481
0.899:475
0.900:498
0.900:510
0.900:514
0.900:511
0.900:499
0.901:502
0.901:508
0.901:514
0.903:522
0.921:522
0.921:525
0.921:523
0.921:529
0.922:526
0.922:524
0.922:514
0.922:493
0.923:474
0.923:481
0.924:507
0.924:528
0.924:531
0.924:496
0.925:477
0.925:489
0.925:496
0.925:493
0.925:497
0.928:521
0.928:532
0.928:539
0.928:533
0.929:529
0.929:522
0.929:520
0.929:513
0.929:515
0.930:517
0.931:512
0.948:519
0.948:519
0.948:509
0.948:499
0.948:499
0.949:502
0.952:508
0.953:511
0.953:502
0.953:499
0.953:497
0.954:495
0.954:498
0.954:505
0.954:509
0.956:511
0.956:513
0.956:513
0.957:501
0.957:491
0.957:489
0.957:496
0.957:501
0.958:487
0.958:495
0.960:499
0.960:488
0.960:475
0.960:471
0.961:476
0.976:476
0.976:493
0.976:503
0.977:497
0.977:504
0.981:507
0.981:508
0.981:506
0.982:502
0.982:505
0.982:505
0.982:495
0.982:487
0.983:493
0.983:489
0.985:487
0.985:482
0.985:482
0.985:493
0.985:501
0.986:497
0.986:497
0.986:518
0.987:543
0.989:563
0.989:556
0.990:542
0.990:522
0.990:515
0.990:508
1.005:504
1.005:502
1.010:501
1.010:494
1.010:491
1.010:488
1.011:476
1.011:471
1.011:482
1.011:499
1.011:503
1.012:504
1.014:503
1.014:507
1.014:514
1.015:507
1.015:515
1.015:527
1.015:526
1.016:515
1.016:506
1.018:501
1.018:492
1.018:499
1.018:505
1.019:519
1.019:530
1.019:523
1.020:512
1.020:495
1.034:495
1.037:484
1.038:490
1.038:492
1.038:494
1.038:504
1.038:494
1.038:484
1.038:452
1.038:459
1.039:474
1.042:485
1.042:489
1.042:487
1.042:472
1.043:451
1.043:439
1.043:435
1.043:431
1.043:413
1.046:437
1.046:443
1.046:446
1.046:464
1.047:473
1.047:474
1.047:468
1.047:462
1.047:462
1.047:460
1.067:467
1.067:481
1.067:468
1.067:449
1.067:450
1.068:459
1.068:466
1.068:461
1.071:457
1.071:454
1.071:463
1.071:478
1.072:489
1.072:506
1.072:509
1.072:508
1.072:500
1.075:494
1.075:493
1.075:490
1.075:476
1.076:475
1.076:486
1.076:491
1.076:489
1.076:489
1.076:495
1.079:511
1.079:520
1.079:528
1.095:528
1.095:528
1.095:520
1.095:517
1.096:521
1.096:526
1.096:538
1.100:539
1.100:532
1.100:527
1.101:532
1.101:538
1.101:533
1.101:510
1.102:507
1.102:529
1.103:540
1.105:535
1.105:520
1.105:516
1.105:525
1.105:532
1.106:537
1.106:524
1.106:512
1.106:509
1.107:515
1.107:519
1.107:528
1.107:533
1.124:537
1.124:535
1.124:537
1.124:532
1.128:530
1.128:544
1.128:548
1.128:534
1.129:516
1.129:510
1.129:526
1.129:538
1.129:533
1.132:523
1.132:509
1.132:503
1.132:506
1.132:512
1.132:522
1.134:534
1.134:548
1.134:545
1.134:546
1.136:534
1.136:509
1.137:507
1.137:513
1.137:507
1.137:500
1.137:504
1.153:504
1.154:515
1.154:506
1.156:505
1.157:517
1.157:518
1.157:511
1.157:514
1.157:527
1.157:543
1.158:549
1.158:558
1.161:569
1.161:554
1.161:519
1.161:501
1.162:505
1.162:527
1.162:532
1.162:522
1.162:513
1.162:519
1.165:522
1.165:517
1.165:515
1.166:520
1.166:532
1.166:545
1.166:558
1.166:556
1.185:563
1.186:567
1.186:563
1.186:557
1.186:553
1.186:553
1.187:542
1.187:514
1.187:475
1.190:449
1.190:429
1.190:407
1.190:379
1.191:343
1.191:316
1.191:294
1.191:269
1.191:225
1.192:179
1.194:143
1.194:93
1.194:33
1.194:17
1.194:17
1.194:17
1.194:18
1.194:18
1.194:19
1.194:19
1.194:19
1.214:19
1.214:19
1.214:19
1.215:20
1.215:20
1.215:20
1.215:20
1.215:19
1.215:19
1.215:18
1.218:17
1.218:17
1.218:17
1.219:93
1.220:204
1.220:334
1.220:472
1.220:576
1.220:652
1.221:690
1.221:710
1.222:700
1.222:673
1.222:639
1.222:627
1.222:626
1.222:625
1.222:612
1.224:611
1.224:610
1.242:606
1.242:604
1.242:591
1.242:582
1.244:590
1.247:606
1.247:620
1.247:630
1.247:629
1.248:613
1.248:597
1.248:596
1.248:581
1.248:616
1.251:631
1.251:633
1.251:642
1.251:653
1.252:643
1.252:650
1.252:643
1.252:639
1.254:658
1.254:657
1.255:643
1.255:641
1.255:640
1.255:625
1.255:612
1.255:611
1.271:611
1.271:628
1.271:641
1.272:658
1.275:654
1.276:629
1.276:627
1.276:625
1.276:625
1.276:613
1.276:605
1.277:605
1.277:613
1.277:616
1.279:613
1.279:604
1.280:593
1.280:576
1.280:584
1.280:600
1.280:605
1.281:612
1.281:606
1.284:601
1.284:586
1.284:566
1.285:572
1.285:583
1.285:593
1.285:595
1.299:599
1.304:598
1.304:592
1.304:584
1.304:579
1.304:576
1.304:578
1.304:577
1.304:572
1.306:569
1.309:560
1.309:556
1.309:556
1.309:557
1.310:550
1.310:547
1.310:551
1.310:558
1.310:555
1.310:546
1.313:538
1.313:546
1.313:560
1.313:559
1.313:552
1.313:549
1.313:541
1.313:538
1.315:530
1.316:524
1.334:524
1.334:525
1.334:532
1.334:537
1.334:530
1.334:520
1.334:521
1.334:521
1.334:532
1.336:544
1.337:552
1.337:561
1.337:556
1.337:550
1.338:549
1.338:538
1.338:534
1.339:530
1.339:526
1.341:522
1.341:521
1.341:507
1.342:497
1.342:491
1.342:496
1.342:500
1.342:498
1.342:500
1.342:504
1.345:500
1.361:471
1.361:458
1.361:468
1.362:494
1.362:505
1.362:486
1.366:477
1.366:484
1.366:490
1.366:493
1.367:487
1.367:471
1.367:467
1.367:477
1.367:490
1.367:479
1.370:470
1.370:457
1.370:451
1.371:456
1.371:462
1.371:456
1.371:443
1.372:436
1.372:437
1.374:449
1.374:459
1.374:462
1.374:464
1.375:465
1.390:465
1.390:457
1.390:448
1.390:455
1.390:447
1.395:452
1.395:435
1.395:433
1.395:442
1.395:441
1.395:434
1.396:432
1.396:448
1.396:450
1.396:448
1.399:434
1.399:429
1.399:426
1.399:421
1.399:413
1.399:410
1.399:413
1.399:401
1.400:412
1.402:408
1.402:403
1.402:401
1.404:410
1.404:416
1.404:423
1.418:417
1.419:415
1.424:433
1.424:442
1.424:436
1.424:436
1.424:455
1.424:464
1.424:453
1.424:440
1.424:426
1.425:431
1.426:439
1.426:432
1.427:436
1.427:445
1.427:434
1.427:403
1.427:443
1.428:476
1.428:473
1.431:470
1.431:480
1.432:491
1.432:491
1.432:488
1.432:512
1.432:523
1.433:518
1.433:510
1.447:510
1.452:492
1.453:497
1.454:509
1.454:514
1.454:531
1.454:554
1.454:549
1.454:541
1.454:531
1.454:532
1.455:537
1.455:562
1.457:594
1.457:582
1.457:560
1.457:545
1.457:539
1.458:539
1.458:538
1.460:536
1.460:542
1.460:551
1.460:566
1.460:586
1.461:604
1.461:605
1.461:589
1.461:586
1.462:603
1.480:600
1.480:585
1.480:578
1.480:599
1.480:614
1.481:618
1.481:605
1.481:598
1.484:592
1.484:582
1.484:576
1.484:571
1.485:571
1.485:571
1.485:586
1.486:598
1.486:606
1.488:603
1.489:612
1.489:612
1.489:605
1.489:605
1.489:602
1.490:610
1.490:620
1.490:621
1.490:614
1.492:610
1.492:598
1.492:591
1.508:591
1.509:587
1.509:581
1.509:579
1.509:575
1.509:565
1.509:558
1.513:565
1.513:559
1.513:568
1.513:589
1.514:600
1.514:589
1.514:592
1.514:613
1.514:611
1.517:605
1.517:596
1.517:582
1.517:567
1.518:565
1.518:554
1.518:550
1.518:552
1.518:547
1.518:545
1.521:553
1.521:563
1.521:567
1.521:575
1.537:576
1.537:581
1.537:569
1.542:562
1.542:564
1.542:565
1.542:563
1.543:566
1.543:568
1.543:562
1.543:557
1.543:547
1.544:546
1.546:549
1.546:560
1.546:550
1.546:539
1.547:553
1.547:552
1.547:547
1.547:538
1.547:538
1.548:546
1.550:554
1.550:544
1.550:561
1.550:580
1.550:577
1.551:578
1.551:549
1.566:549
1.566:545
1.566:561
1.571:564
1.571:554
1.571:532
1.571:504
1.572:509
1.572:530
1.572:531
1.572:534
1.572:536
1.574:527
1.574:519
1.574:514
1.574:535
1.574:532
1.574:528
1.575:533
1.575:525
1.575:524
1.575:528
1.579:520
1.579:506
1.579:516
1.579:526
1.580:530
1.580:532
1.580:541
1.580:545
1.599:540
1.599:509
1.600:505
1.600:509
1.600:532
1.600:566
1.600:586
1.601:567
1.601:538
1.603:531
1.603:522
1.604:532
1.604:535
1.604:522
1.604:503
1.604:478
1.604:478
1.604:477
1.607:476
1.607:480
1.607:495
1.607:497
1.608:501
1.608:507
1.608:503
1.608:504
1.608:519
1.608:515
1.611:499
1.611:493
1.628:493
1.628:495
1.628:500
1.628:499
1.628:505
1.629:512
1.629:500
1.629:489
1.632:482
1.632:488
1.632:487
1.632:497
1.632:497
1.632:496
1.634:504
1.634:506
1.634:515
1.634:527
1.635:518
1.636:507
1.636:496
1.636:495
1.637:495
1.637:490
1.637:472
1.637:468
1.637:465
1.640:470
1.640:472
1.640:478
1.656:481
1.656:474
1.656:460
1.656:461
1.656:470
1.661:488
1.661:510
1.661:518
1.661:513
1.662:493
1.662:474
1.662:458
1.662:451
1.662:478
1.664:505
1.665:501
1.665:485
1.665:481
1.665:482
1.666:485
1.666:488
1.666:487
1.666:490
1.666:491
1.669:487
1.669:463
1.670:454
1.670:474
1.670:496
1.670:521
1.684:521
1.684:528
1.684:535
1.684:524
1.689:507
1.689:497
1.689:496
1.689:488
1.690:485
1.690:478
1.690:452
1.690:447
1.690:444
1.691:458
1.692:458
1.692:451
1.692:448
1.694:451
1.694:461
1.694:477
1.694:493
1.695:506
1.695:493
1.697:494
1.697:487
1.697:490
1.697:492
1.698:466
1.698:443
1.698:446
1.713:442
1.718:465
1.718:474
1.719:475
1.719:477
1.720:472
1.720:445
1.720:430
1.720:448
1.720:467
1.722:490
1.722:486
1.722:483
1.722:478
1.722:461
1.722:442
1.722:436
1.724:431
1.724:437
1.724:444
1.726:449
1.726:446
1.726:416
1.727:405
1.727:416
1.727:420
1.727:425
1.727:438
1.727:441
1.730:436
1.747:436
1.747:423
1.747:416
1.747:426
1.748:430
1.748:422
1.748:406
1.748:398
1.748:397
1.751:420
1.751:422
1.751:413
1.751:428
1.752:432
1.753:433
1.753:436
1.753:428
1.753:425
1.754:448
1.755:462
1.755:471
1.755:480
1.756:477
1.756:489
1.756:505
1.756:509
1.756:488
1.757:462
1.759:464
1.759:496
1.775:522
1.775:513
1.775:497
1.775:478
1.776:469
1.776:469
1.779:483
1.779:484
1.779:496
1.779:499
1.780:500
1.780:507
1.780:519
1.780:516
1.780:517
1.781:511
1.784:486
1.784:487
1.784:486
1.784:484
1.785:484
1.785:481
1.785:479
1.785:475
1.785:478
1.787:483
1.787:481
1.787:476
1.787:488
1.788:492
1.803:492
1.804:490
1.804:489
1.804:487
1.804:480
1.808:481
1.808:472
1.808:466
1.808:468
1.809:466
1.809:475
1.809:506
1.809:526
1.809:506
1.810:494
1.812:489
1.812:492
1.812:495
1.812:495
1.812:502
1.813:494
1.814:489
1.814:499
1.814:506
1.816:512
1.816:526
1.816:529
1.816:515
1.817:505
1.817:521
1.832:524
1.832:505
1.836:503
1.836:501
1.836:500
1.837:500
1.837:479
1.837:462
1.837:474
1.837:498
1.837:501
1.837:524
1.840:543
1.840:530
1.840:527
1.841:528
1.841:519
1.841:515
1.841:517
1.841:500
1.841:473
1.845:467
1.845:472
1.845:483
1.845:466
1.845:445
1.845:429
1.846:434
1.846:451
1.846:473
1.861:473
1.865:496
1.865:504
1.865:506
1.865:536
1.866:549
1.866:534
1.866:521
1.866:514
1.866:499
1.866:493
1.869:487
1.869:472
1.869:456
1.869:440
1.869:410
1.869:375
1.869:351
1.869:330
1.870:290
1.874:260
1.874:232
1.874:182
1.874:128
1.874:87
1.875:29
1.875:17
1.875:17
1.875:17
1.875:17
1.894:18
1.894:18
1.894:19
1.894:19
1.894:19
1.894:20
1.895:20
1.895:20
1.895:20
1.895:20
1.898:20
1.898:20
1.898:20
1.898:19
1.898:19
1.898:18
1.898:18
1.899:17
1.899:48
1.899:155
1.899:272
1.903:417
1.903:532
1.903:610
1.903:645
1.904:678
1.904:677
1.904:660
1.904:633
1.904:595
1.922:595
1.923:585
1.923:598
1.923:600
1.923:611
1.923:602
1.923:581
1.926:565
1.926:557
1.926:546
1.926:550
1.927:552
1.927:564
1.927:563
1.927:563
1.927:577
1.931:579
1.931:575
1.931:577
1.931:576
1.932:580
1.932:574
1.932:592
1.932:600
1.932:612
1.933:624
1.935:629
1.936:624
1.936:609
1.936:589
1.951:581
1.951:586
1.951:569
1.955:561
1.956:560
1.956:557
1.956:541
1.956:542
1.956:557
1.956:571
1.957:588
1.957:590
1.957:574
1.960:544
1.960:529
1.960:518
1.960:523
1.960:548
1.961:559
1.961:551
1.961:540
1.961:522
1.961:512
1.963:525
1.964:540
1.964:542
1.964:536
1.964:526
1.964:521
1.964:517
1.979:517
1.979:530
1.980:531
1.984:530
1.984:534
1.984:539
1.984:531
1.985:519
1.985:518
1.985:518
1.985:525
1.985:528
1.988:521
1.988:505
1.988:497
1.988:486
1.989:478
1.989:473
1.989:458
1.989:451
1.989:475
1.990:517
1.991:553
1.991:546
1.991:525
1.992:506
1.992:497
1.992:498
1.992:497
1.992:507
2.013:511
2.013:496
2.013:479
2.013:457
2.013:441
2.014:432
2.014:438
2.014:433
2.014:453
2.017:467
2.017:473
2.017:464
2.017:464
2.018:466
2.018:453
2.018:450
2.019:449
2.019:467
2.021:479
2.021:483
2.021:475
2.021:467
2.022:477
2.022:486
2.022:481
2.022:468
2.023:452
2.023:440
2.024:439
2.024:437
2.041:437
2.042:441
2.042:435
2.042:434
2.042:431
2.042:415
2.042:410
2.043:394
2.045:409
2.045:418
2.045:416
2.045:411
2.046:409
2.046:408
2.046:410
2.046:417
2.046:411
2.047:407
2.049:400
2.049:399
2.049:385
2.049:368
2.050:375
2.050:370
2.050:386
2.050:395
2.050:384
2.053:372
2.053:356
2.053:364
2.070:376
2.070:377
2.070:383
2.070:397
2.071:377
2.074:370
2.074:365
2.074:368
2.075:367
2.075:366
2.075:356
2.075:358
2.076:365
2.076:356
2.078:351
2.078:347
2.078:344
2.078:360
2.079:371
2.079:368
2.079:360
2.079:356
2.079:349
2.080:336
2.082:325
2.082:338
2.082:337
2.082:353
2.082:361
2.083:366
2.098:366
2.098:364
2.098:362
2.098:358
2.103:354
2.104:357
2.104:367
2.104:377
2.104:375
2.105:367
2.105:369
2.105:367
2.105:363
2.107:359
2.107:373
2.107:364
2.107:352
2.107:347
2.108:355
2.108:360
2.108:381
2.108:379
2.108:374
2.111:381
2.111:400
2.111:415
2.111:414
2.112:425
2.112:436
2.112:432
2.127:410
2.132:408
2.132:401
2.132:404
2.132:426
2.133:445
2.133:440
2.133:425
2.133:426
2.133:441
2.136:452
2.136:440
2.136:442
2.137:451
2.137:471
2.137:478
2.137:483
2.137:494
2.138:493
2.138:479
2.140:469
2.140:479
2.140:490
2.140:488
2.140:494
2.140:496
2.140:509
2.141:514
2.141:512
2.144:510
2.160:510
2.160:533
2.160:553
2.160:533
2.161:516
2.161:507
2.161:508
2.161:509
2.161:518
2.164:516
2.164:526
2.164:517
2.164:514
2.164:525
2.164:537
2.164:519
2.165:496
2.165:508
2.165:547
2.168:552
2.169:529
2.169:524
2.169:521
2.169:530
2.169:550
2.170:569
2.170:582
2.170:582
2.172:582
2.172:569
2.188:568
2.188:564
2.189:555
2.189:529
2.189:532
2.190:542
2.193:541
2.193:553
2.193:545
2.193:531
2.193:510
2.194:521
2.194:532
2.194:540
2.194:538
2.194:526
2.197:520
2.197:525
2.197:527
2.197:516
2.198:498
2.198:501
2.198:520
2.198:524
2.198:522
2.201:516
2.201:509
2.201:497
2.202:486
2.202:485
2.217:485
2.217:493
2.217:516
2.218:544
2.218:551
2.221:570
2.221:592
2.222:604
2.222:600
2.222:554
2.223:502
2.223:478
2.223:491
2.224:493
2.224:488
2.225:487
2.225:479
2.226:466
2.226:459
2.226:417
2.226:406
2.227:393
2.227:394
2.227:425
2.230:450
2.230:461
2.230:469
2.230:502
2.231:500
2.231:494
2.245:483
2.245:479
2.250:481
2.250:487
2.250:482
2.250:474
2.251:452
2.251:479
2.251:506
2.251:500
2.251:484
2.252:470
2.254:456
2.254:441
2.254:434
2.255:434
2.255:435
2.255:439
2.255:438
2.255:436
2.257:433
2.258:434
2.258:440
2.258:449
2.258:444
2.258:437
2.259:439
2.259:433
2.259:447
2.259:451
2.274:451
2.279:446
2.279:434
2.279:428
2.279:428
2.280:426
2.280:429
2.280:441
2.280:451
2.280:454
2.281:448
2.283:423
2.283:411
2.283:410
2.283:391
2.283:391
2.283:391
2.284:386
2.284:400
2.284:413
2.287:414
2.288:399
2.288:401
2.288:409
2.288:402
2.288:401
2.288:417
2.289:425
2.289:438
2.289:448
2.307:445
2.307:424
2.307:406
2.308:399
2.308:410
2.308:407
2.308:406
2.312:410
2.312:403
2.312:391
2.312:394
2.313:405
2.313:419
2.313:420
2.313:401
2.313:396
2.314:399
2.316:405
2.316:414
2.316:417
2.316:425
2.317:424
2.317:428
2.317:431
2.317:439
2.318:440
2.318:426
2.320:425
2.320:429
2.320:419
2.336:419
2.336:404
2.336:366
2.336:365
2.336:395
2.337:421
2.337:432
2.340:428
2.340:409
2.340:399
2.340:395
2.340:384
2.340:386
2.341:406
2.341:419
2.341:409
2.344:385
2.344:379
2.344:395
2.344:391
2.344:377
2.344:371
2.344:371
2.345:353
2.345:375
2.345:397
2.348:399
2.348:425
2.348:434
2.348:432
2.364:431
2.364:415
2.364:397
2.368:407
2.369:398
2.369:395
2.369:415
2.369:419
2.369:413
2.370:397
2.370:388
2.370:381
2.372:384
2.373:393
2.374:401
2.374:407
2.374:415
2.374:412
2.374:412
2.375:420
2.375:434
2.375:427
2.377:412
2.377:406
2.377:403
2.377:410
2.377:418
2.377:438
2.377:432
2.378:415
2.392:415
2.394:406
2.398:386
2.398:385
2.398:390
2.398:377
2.399:372
2.399:374
2.399:373
2.399:374
2.399:380
2.400:382
2.402:373
2.403:364
2.403:379
2.403:372
2.403:377
2.403:365
2.403:345
2.403:334
2.404:339
2.404:327
2.405:336
2.405:334
2.407:329
2.407:321
2.407:333
2.407:339
2.407:351
2.407:358
2.426:364
2.426:361
2.426:354
2.426:355
2.426:365
2.426:368
2.427:377
2.427:375
2.427:375
2.430:371
2.430:353
2.430:343
2.430:340
2.431:344
2.431:351
2.431:360
2.431:375
2.431:385
2.434:380
2.434:394
2.434:403
2.435:415
2.435:418
2.435:413
2.435:408
2.435:415
2.435:423
2.435:430
2.438:434
2.438:438
2.454:438
2.455:445
2.455:453
2.455:464
2.455:466
2.456:460
2.456:454
2.456:450
2.459:458
2.459:464
2.459:458
2.459:452
2.459:447
2.460:433
2.460:437
2.460:463
2.460:477
2.463:486
2.463:491
2.463:474
2.463:471
2.463:467
2.463:457
2.465:443
2.465:431
2.465:407
2.465:421
2.467:424
2.467:401
2.467:419
2.482:430
2.482:430
2.484:422
2.484:406
2.484:409
2.488:396
2.488:374
2.488:381
2.488:404
2.488:460
2.489:470
2.489:462
2.490:436
2.490:437
2.492:450
2.492:436
2.492:429
2.492:417
2.492:416
2.493:438
2.493:448
2.493:443
2.493:451
2.493:458
2.496:458
2.496:429
2.496:420
2.496:459
2.497:500
2.497:483
2.512:483
2.512:467
2.512:473
2.512:486
2.516:503
2.516:501
2.516:492
2.516:503
2.518:525
2.518:550
2.518:513
2.518:465
2.519:458
2.519:462
2.520:455
2.520:442
2.520:436
2.521:431
2.521:432
2.521:425
2.521:409
2.523:407
2.523:416
2.524:396
2.524:371
2.524:374
2.524:397
2.524:426
2.524:444
2.525:464
2.540:479
2.544:488
2.544:474
2.544:473
2.546:484
2.546:489
2.546:509
2.546:517
2.546:508
2.546:481
2.549:463
2.549:444
2.549:438
2.549:437
2.549:417
2.549:353
2.551:305
2.551:281
2.551:257
2.552:234
2.553:204
2.554:153
2.554:101
2.555:63
2.555:17
2.555:17
2.555:17
2.555:17
2.556:18
2.556:18
2.574:18
2.574:18
2.574:19
2.574:20
2.574:20
2.575:20
2.575:21
2.575:20
2.575:21
2.575:21
2.575:21
2.575:20
2.578:20
2.578:20
2.578:19
2.578:18
2.578:17
2.578:17
2.579:152
2.579:276
2.579:395
2.579:513
2.579:626
2.582:705
2.582:721
2.582:699
2.583:645
2.583:600
2.583:574
2.583:560
2.602:551
2.602:546
2.602:555
2.602:535
2.602:551
2.604:565
2.606:560
2.606:540
2.606:534
2.606:518
2.607:515
2.607:511
2.607:500
2.607:506
2.607:505
2.607:515
2.610:533
2.610:534
2.610:518
2.610:528
2.610:535
2.611:546
2.611:564
2.611:567
2.611:588
2.614:604
2.614:608
2.614:603
2.614:584
2.614:575
2.630:575
2.631:561
2.631:546
2.631:535
2.631:530
2.636:520
2.636:522
2.636:526
2.636:530
2.637:528
2.637:528
2.637:535
2.637:539
2.637:534
2.637:530
2.639:543
2.640:551
2.640:558
2.640:544
2.640:541
2.641:532
2.641:510
2.641:477
2.641:480
2.643:477
2.643:488
2.644:525
2.644:544
2.644:534
2.644:520
2.659:515
2.659:531
2.664:529
2.664:511
2.664:488
2.664:490
2.665:500
2.665:503
2.665:514
2.665:529
2.665:541
2.665:531
2.668:508
2.668:510
2.669:508
2.669:511
2.669:519
2.669:522
2.669:544
2.670:550
2.671:505
2.672:472
2.672:468
2.672:463
2.672:462
2.672:462
2.673:448
2.673:440
2.673:448
2.673:451
2.688:451
2.692:464
2.692:461
2.692:448
2.692:448
2.692:454
2.692:436
2.693:430
2.693:418
2.693:415
2.693:411
2.697:408
2.697:408
2.697:439
2.697:448
2.697:440
2.697:447
2.698:443
2.698:436
2.698:431
2.701:439
2.701:448
2.702:412
2.702:386
2.702:410
2.702:429
2.703:399
2.703:384
2.703:408
2.703:427
2.720:428
2.721:439
2.721:426
2.721:407
2.721:415
2.721:432
2.722:439
2.725:437
2.725:431
2.725:424
2.726:429
2.726:431
2.726:432
2.726:431
2.726:430
2.726:411
2.727:384
2.729:372
2.729:368
2.729:359
2.730:356
2.730:374
2.730:396
2.730:410
2.730:404
2.731:396
2.731:403
2.732:417
2.732:426
2.732:391
2.749:391
2.749:360
2.749:370
2.750:380
2.750:364
2.750:351
2.750:346
2.754:342
2.754:342
2.754:360
2.754:367
2.754:348
2.754:347
2.754:352
2.754:346
2.755:339
2.758:348
2.758:366
2.758:369
2.758:369
2.758:368
2.759:363
2.759:371
2.759:373
2.759:368
2.759:354
2.762:344
2.762:345
2.762:354
2.762:340
2.778:329
2.778:310
2.778:303
2.783:322
2.783:335
2.783:354
2.783:359
2.784:356
2.784:353
2.784:357
2.784:358
2.784:357
2.784:367
2.787:367
2.787:364
2.788:378
2.788:371
2.788:340
2.788:359
2.789:367
2.789:363
2.789:351
2.790:361
2.790:373
2.790:399
2.791:420
2.791:405
2.791:420
2.791:444
2.791:458
2.807:458
2.807:438
2.811:421
2.811:424
2.811:434
2.811:440
2.812:462
2.812:457
2.812:456
2.812:449
2.812:437
2.812:427
2.815:430
2.815:456
2.815:458
2.815:486
2.816:529
2.816:536
2.816:535
2.816:536
2.816:548
2.817:557
2.819:549
2.819:543
2.820:555
2.820:540
2.821:540
2.821:539
2.821:537
2.821:534
2.840:528
2.840:518
2.840:518
2.840:531
2.841:531
2.841:533
2.841:532
2.841:549
2.841:580
2.844:603
2.844:597
2.844:577
2.845:556
2.845:552
2.845:544
2.845:524
2.845:515
2.845:519
2.848:530
2.848:538
2.848:546
2.848:560
2.849:560
2.849:566
2.849:572
2.849:568
2.849:565
2.849:566
2.851:561
2.851:562
2.869:562
2.869:563
2.869:561
2.870:554
2.870:557
2.870:557
2.870:544
2.870:547
2.873:547
2.873:547
2.873:547
2.873:547
2.873:551
2.873:545
2.873:542
2.873:546
2.873:550
2.877:556
2.877:548
2.877:549
2.878:565
2.878:565
2.878:564
2.878:564
2.878:581
2.878:592
2.879:557
2.881:512
2.881:500
2.881:502
2.897:494
2.897:485
2.897:489
2.897:499
2.897:492
2.901:488
2.901:497
2.902:512
2.902:512
2.902:518
2.902:528
2.902:534
2.902:540
2.904:537
2.905:543
2.906:547
2.906:529
2.906:524
2.906:523
2.906:523
2.907:501
2.907:508
2.907:510
2.907:500
2.909:505
2.909:505
2.909:503
2.909:507
2.910:510
2.910:511
2.925:511
2.925:507
2.925:507
2.926:518
2.930:512
2.930:499
2.931:507
2.931:517
2.931:516
2.931:508
2.931:513
2.932:513
2.932:504
2.934:501
2.934:507
2.935:503
2.935:498
2.935:494
2.935:487
2.936:476
2.936:480
2.936:493
2.936:497
2.938:507
2.938:502
2.939:501
2.939:494
2.939:483
2.940:495
2.940:483
2.954:469
2.958:466
2.959:470
2.959:467
2.959:469
2.959:473
2.959:474
2.960:469
2.960:470
2.960:471
2.963:473
2.963:477
2.963:484
2.964:486
2.964:482
2.964:467
2.965:467
2.965:442
2.965:452
2.965:476
2.966:478
2.967:475
2.967:471
2.967:469
2.967:470
2.968:476
2.968:482
2.968:473
2.968:468
2.971:477
2.988:477
2.988:480
2.988:478
2.989:455
2.989:436
2.989:440
2.989:473
2.989:511
2.990:519
2.991:509
2.991:489
2.991:485
2.991:462
2.992:459
2.992:464
2.992:454
2.992:442
2.992:439
2.992:453
2.995:471
2.995:461
2.995:466
2.995:479
2.996:468
2.996:454
2.996:465
2.996:469
2.996:456
2.999:442
2.999:438
3.016:442
3.016:435
3.016:437
3.016:456
3.017:461
3.017:461
3.020:456
3.020:449
3.020:457
3.020:463
3.021:465
3.021:471
3.021:473
3.021:465
3.021:461
3.021:462
3.024:458
3.024:447
3.024:465
3.024:468
3.024:457
3.024:464
3.024:474
3.024:469
3.024:468
3.028:488
3.028:486
3.028:462
3.028:447
3.029:448
3.044:448
3.044:455
3.044:464
3.044:479
3.044:480
3.049:481
3.049:470
3.049:464
3.049:465
3.050:468
3.050:451
3.050:422
3.050:464
3.050:468
3.051:466
3.053:467
3.053:473
3.054:466
3.054:468
3.054:471
3.054:479
3.054:484
3.055:482
3.055:485
3.057:493
3.057:487
3.057:472
3.057:468
3.058:461
3.058:452
3.072:455
3.072:466
3.078:470
3.078:476
3.078:474
3.078:465
3.079:464
3.079:464
3.079:462
3.079:456
3.079:442
3.082:446
3.082:454
3.082:471
3.082:455
3.083:465
3.083:462
3.083:463
3.083:462
3.083:470
3.084:466
3.085:455
3.085:451
3.085:455
3.086:458
3.086:454
3.086:450
3.086:439
3.086:433
3.086:435
3.101:435
3.106:429
3.106:430
3.106:423
3.106:434
3.107:446
3.107:459
3.107:464
3.107:452
3.107:431
3.107:423
3.110:420
3.110:407
3.110:405
3.110:410
3.110:406
3.110:393
3.111:418
3.111:416
3.111:403
3.114:402
3.114:404
3.114:409
3.114:411
3.115:414
3.115:421
3.115:429
3.115:413
3.115:402
3.115:403
3.135:417
3.135:409
3.135:398
3.135:404
3.135:414
3.135:415
3.135:414
3.139:422
3.139:422
3.139:421
3.139:429
3.139:432
3.140:459
3.140:473
3.140:467
3.140:452
3.140:455
3.143:461
3.144:470
3.144:464
3.144:471
3.144:473
3.144:476
3.145:468
3.145:464
3.145:477
3.147:488
3.147:504
3.147:508
3.147:508
3.163:508
3.163:513
3.163:497
3.164:488
3.164:492
3.164:494
3.167:504
3.169:517
3.169:533
3.169:531
3.169:508
3.169:496
3.169:490
3.169:483
3.170:465
3.170:468
3.171:476
3.171:468
3.171:467
3.172:470
3.172:473
3.172:495
3.172:491
3.172:476
3.172:471
3.172:476
3.175:511
3.175:507
3.175:486
3.176:473
3.191:489
3.191:506
3.192:519
3.196:499
3.196:490
3.196:483
3.196:490
3.197:496
3.197:488
3.197:465
3.197:453
3.197:473
3.198:493
3.200:518
3.200:525
3.201:515
3.201:506
3.201:492
3.201:481
3.202:473
3.202:489
3.202:505
3.204:502
3.204:505
3.204:523
3.204:504
3.204:466
3.205:481
3.205:512
3.205:510
3.220:510
3.220:482
3.225:466
3.225:462
3.225:481
3.225:505
3.225:510
3.225:513
3.226:512
3.226:503
3.226:505
3.226:505
3.229:484
3.229:481
3.229:483
3.229:487
3.230:474
3.230:485
3.230:481
3.230:484
3.230:497
3.232:513
3.232:524
3.232:523
3.234:517
3.234:517
3.235:532
3.235:542
3.235:558
3.236:568
3.252:571
3.252:565
3.252:566
3.254:552
3.254:524
3.254:494
3.254:445
3.254:426
3.255:395
3.257:363
3.257:352
3.257:327
3.257:292
3.258:255
3.258:206
3.258:157
3.258:101
3.258:29
3.258:17
3.261:17
3.261:17
3.261:18
3.261:18
3.261:18
3.261:18
3.262:19
3.262:20
3.262:20
3.262:20
3.262:20
3.281:20
3.282:20
3.282:21
3.282:20
3.282:20
3.282:20
3.282:20
3.282:19
3.282:19
3.282:18
3.286:17
3.286:28
3.286:166
3.286:320
3.287:459
3.287:565
3.287:650
3.287:709
3.287:731
3.287:713
3.290:704
3.290:679
3.291:654
3.291:637
3.291:615
3.291:610
3.291:618
3.291:622
3.292:621
3.294:614
3.311:611
3.311:614
3.311:604
3.311:616
3.311:619
3.314:607
3.314:599
3.314:587
3.314:581
3.315:586
3.315:592
3.315:626
3.315:637
3.315:631
3.319:625
3.319:631
3.319:633
3.319:623
3.320:605
3.320:607
3.320:603
3.320:617
3.320:608
3.321:610
3.323:617
3.323:605
3.323:598
3.323:588
3.323:596
3.323:601
3.339:601
3.339:599
3.339:602
3.339:599
3.343:594
3.344:597
3.344:595
3.344:591
3.344:589
3.344:574
3.344:575
3.344:591
3.344:607
3.348:612
3.348:609
3.348:599
3.348:572
3.349:585
3.349:590
3.349:579
3.349:567
3.349:569
3.350:558
3.351:558
3.352:585
3.352:573
3.352:564
3.352:557
3.352:556
3.352:551
3.367:543
3.371:545
3.371:560
3.372:574
3.372:566
3.372:550
3.372:550
3.372:546
3.372:527
3.372:522
3.376:518
3.376:515
3.376:510
3.376:491
3.376:494
3.377:532
3.377:551
3.377:538
3.377:527
3.377:531
3.380:534
3.380:531
3.380:526
3.380:514
3.380:502
3.381:505
3.381:515
3.381:517
3.381:516
3.384:506
3.401:506
3.401:495
3.401:490
3.401:494
3.401:499
3.401:490
3.402:488
3.402:491
3.402:485
3.404:498
3.404:507
3.405:500
3.405:517
3.405:545
3.405:543
3.405:511
3.405:507
3.406:486
3.406:455
3.409:439
3.409:408
3.409:384
3.409:420
3.410:473
3.410:505
3.410:508
3.410:497
3.410:502
3.413:498
3.413:494
3.429:493
3.429:488
3.430:484
3.430:489
3.430:474
3.430:475
3.434:463
3.434:453
3.434:444
3.434:437
3.434:420
3.436:421
3.436:435
3.436:414
3.436:423
3.436:428
3.438:445
3.438:466
3.438:445
3.438:433
3.438:434
3.439:417
3.439:414
3.439:420
3.439:415
3.442:411
3.442:413
3.442:395
3.442:383
3.443:386
3.458:386
3.458:391
3.458:403
3.458:423
3.459:444
3.462:489
3.462:476
3.462:428
3.462:412
3.462:395
3.464:385
3.464:386
3.464:385
3.464:380
3.464:371
3.466:371
3.466:363
3.466:384
3.466:404
3.467:409
3.467:411
3.468:404
3.468:394
3.468:385
3.470:402
3.470:399
3.470:399
3.470:386
3.470:397
3.470:399
3.486:392
3.486:393
3.491:391
3.491:400
3.491:408
3.491:407
3.492:414
3.492:416
3.492:417
3.492:423
3.492:410
3.495:393
3.495:396
3.495:405
3.495:425
3.495:438
3.495:431
3.496:415
3.496:411
3.496:423
3.496:461
3.499:476
3.499:486
3.499:481
3.499:483
3.500:463
3.500:450
3.500:453
3.501:449
3.501:445
3.515:445
3.519:448
3.519:456
3.519:465
3.519:481
3.520:485
3.520:484
3.520:493
3.520:523
3.521:530
3.521:527
3.522:529
3.522:544
3.524:556
3.524:558
3.524:547
3.524:551
3.524:556
3.524:565
3.524:565
3.528:554
3.528:549
3.528:543
3.528:537
3.528:548
3.529:568
3.529:585
3.529:593
3.529:571
3.530:568
3.548:582
3.548:580
3.548:588
3.548:591
3.549:588
3.549:582
3.549:582
3.552:586
3.552:581
3.552:571
3.552:572
3.552:555
3.552:548
3.552:560
3.552:572
3.552:596
3.554:593
3.556:573
3.556:559
3.557:571
3.557:602
3.557:611
3.557:615
3.557:605
3.558:590
3.558:579
3.560:582
3.560:576
3.560:571
3.561:567
3.576:567
3.576:551
3.577:538
3.577:527
3.577:541
3.577:549
3.581:574
3.581:568
3.581:565
3.581:564
3.582:573
3.582:578
3.582:580
3.582:583
3.582:564
3.582:556
3.585:538
3.585:530
3.586:524
3.586:521
3.586:545
3.586:574
3.586:562
3.587:538
3.587:555
3.587:549
3.589:524
3.589:540
3.589:558
3.589:547
3.605:545
3.605:542
3.605:552
3.610:558
3.610:572
3.610:555
3.610:554
3.611:576
3.611:572
3.611:555
3.611:555
3.611:545
3.612:539
3.614:530
3.614:530
3.614:527
3.615:540
3.615:546
3.615:538
3.615:544
3.615:559
3.615:578
3.617:583
3.618:568
3.618:570
3.618:561
3.618:529
3.618:537
3.619:531
3.619:507
3.634:507
3.634:507
3.638:517
3.638:520
3.639:503
3.639:499
3.639:502
3.639:525
3.640:531
3.640:518
3.640:501
3.640:493
3.642:513
3.642:529
3.642:545
3.642:539
3.642:552
3.644:554
3.644:544
3.644:516
3.644:502
3.646:506
3.646:501
3.646:492
3.646:487
3.647:471
3.647:457
3.647:462
3.647:469
3.647:486
3.667:506
3.667:508
3.667:491
3.667:481
3.667:487
3.668:492
3.668:497
3.668:503
3.668:491
3.670:470
3.671:457
3.671:455
3.671:460
3.671:440
3.671:446
3.672:492
3.672:492
3.672:497
3.675:506
3.675:512
3.675:504
3.675:496
3.675:501
3.675:509
3.675:507
3.675:526
3.675:527
3.676:508
3.679:503
3.679:508
3.695:508
3.695:490
3.695:480
3.696:480
3.696:480
3.696:488
3.696:476
3.696:457
3.700:458
3.701:484
3.701:496
3.702:509
3.702:499
3.702:501
3.702:504
3.702:498
3.702:492
3.704:486
3.704:493
3.704:504
3.704:509
3.705:505
3.705:505
3.705:503
3.705:506
3.706:505
3.706:488
3.708:466
3.708:455
3.708:448
3.724:456
3.724:468
3.724:462
3.724:452
3.725:456
3.728:479
3.728:485
3.728:479
3.728:498
3.729:518
3.729:506
3.729:501
3.729:490
3.729:488
3.732:494
3.732:491
3.732:486
3.732:483
3.732:477
3.734:461
3.735:456
3.735:460
3.735:460
3.736:457
3.736:462
3.736:472
3.736:482
3.737:486
3.737:484
3.737:484
3.752:484
3.752:466
3.752:459
3.752:463
3.756:479
3.756:500
3.757:511
3.757:515
3.757:498
3.757:496
3.757:507
3.758:514
3.758:513
3.761:508
3.761:502
3.761:504
3.761:517
3.762:523
3.762:517
3.762:511
3.762:497
3.762:486
3.762:480
3.764:481
3.764:487
3.765:492
3.765:480
3.765:478
3.765:484
3.767:512
3.781:527
3.785:512
3.785:496
3.786:487
3.786:500
3.786:509
3.786:522
3.786:503
3.786:460
3.787:459
3.789:473
3.789:479
3.789:498
3.789:508
3.790:507
3.790:500
3.790:477
3.790:459
3.790:452
3.790:461
3.794:485
3.794:510
3.794:506
3.794:483
3.795:485
3.795:481
3.795:490
3.795:498
3.795:486
3.798:485
3.814:485
3.815:498
3.815:506
3.815:493
3.815:487
3.815:464
3.815:452
3.815:447
3.815:442
3.819:454
3.819:469
3.819:468
3.819:459
3.820:458
3.820:469
3.820:474
3.820:492
3.820:515
3.821:515
3.823:510
3.823:492
3.823:480
3.823:459
3.823:440
3.823:439
3.823:439
3.823:432
3.823:434
3.826:438
3.826:434
3.842:430
3.842:432
3.842:434
3.842:430
3.844:433
3.844:438
3.847:424
3.847:417
3.847:428
3.847:441
3.847:459
3.847:464
3.848:462
3.848:453
3.848:435
3.850:427
3.851:438
3.852:438
3.852:429
3.852:435
3.852:464
3.852:468
3.852:456
3.852:446
3.852:447
3.855:451
3.855:435
3.855:427
3.855:442
3.856:454
3.871:454
3.872:464
3.872:478
3.872:498
3.872:503
3.875:495
3.875:483
3.875:476
3.875:473
3.875:476
3.876:481
3.876:499
3.876:511
3.876:514
3.876:508
3.879:491
3.879:488
3.879:500
3.880:487
3.880:498
3.880:521
3.880:528
3.880:531
3.881:515
3.884:527
3.885:518
3.885:491
3.885:486
3.885:480
3.885:512
3.900:529
3.900:524
3.904:504
3.904:499
3.904:518
3.904:527
3.904:521
3.906:511
3.906:499
3.906:520
3.906:533
3.908:524
3.908:538
3.908:534
3.908:510
3.908:502
3.909:524
3.909:536
3.909:530
3.910:516
3.910:514
3.913:509
3.913:515
3.913:527
3.913:522
3.913:513
3.913:512
3.913:518
3.913:526
3.915:526
3.928:526
3.934:518
3.934:515
3.934:507
3.934:502
3.935:486
3.935:501
3.935:510
3.935:509
3.936:515
3.937:520
3.937:525
3.938:514
3.938:509
3.938:518
3.938:518
3.938:514
3.939:522
3.939:522
3.939:526
3.941:539
3.941:553
3.941:568
3.941:550
3.942:524
3.942:499
3.942:464
3.942:475
3.942:509
3.942:520
3.961:516
3.962:510
3.962:497
3.962:494
3.962:505
3.962:506
3.963:503
3.966:501
3.966:494
3.966:513
3.966:515
3.966:538
3.966:570
3.966:578
3.966:567
3.966:569
3.966:580
3.970:590
3.970:586
3.970:561
3.970:539
3.971:533
3.971:523
3.971:511
3.971:487
3.972:450
3.974:418
3.974:410
3.974:411
3.974:398
3.990:398
3.990:356
3.990:294
3.990:227
3.990:212
3.991:168
3.995:101
3.995:43
3.995:17
3.995:17
3.995:18
3.995:18
3.996:18
3.996:19
3.996:19
3.996:19
3.996:20
3.996:20
3.999:20
3.999:20
3.999:20
3.999:21
3.999:21
4.000:21
4.000:21
4.001:20
4.001:19
4.001:18
4.001:17
4.001:17
4.018:162
4.018:320
4.019:476
4.024:588
4.024:677
4.024:735
4.024:750
4.024:735
4.024:720
4.024:693
4.024:663
4.024:664
4.025:660
4.026:656
4.027:657
4.027:661
4.027:658
4.027:640
4.027:628
4.028:631
4.028:621
4.028:621
4.031:620
4.031:625
4.031:633
4.031:625
4.032:612
4.032:609
4.032:614
4.032:618
4.047:618
4.047:633
4.052:652
4.052:660
4.052:662
4.052:650
4.053:626
4.053:623
4.053:638
4.053:641
4.053:637
4.054:633
4.056:625
4.056:624
4.056:623
4.056:633
4.057:640
4.057:637
4.057:626
4.057:627
4.057:625
4.060:624
4.060:621
4.060:623
4.060:630
4.061:618
4.061:598
4.061:594
4.061:602
4.061:623
4.080:631
4.080:657
4.080:646
4.080:647
4.081:653
4.081:637
4.081:615
4.081:602
4.081:596
4.084:591
4.085:586
4.085:585
4.085:588
4.085:584
4.085:585
4.085:589
4.085:598
4.086:596
4.089:572
4.089:550
4.089:568
4.089:590
4.090:587
4.090:579
4.090:572
4.090:560
4.090:551
4.091:559
4.093:570
4.093:570
4.109:570
4.109:566
4.109:543
4.109:539
4.109:547
4.109:561
4.110:563
4.110:567
4.114:562
4.114:550
4.114:536
4.114:534
4.114:531
4.114:516
4.114:519
4.114:527
4.115:528
4.117:518
4.117:523
4.118:541
4.118:534
4.118:527
4.119:531
4.119:531
4.119:531
4.119:541
4.120:540
4.121:537
4.121:529
4.121:516
4.138:510
4.138:509
4.138:497
4.138:496
4.142:502
4.142:501
4.142:493
4.143:473
4.143:459
4.143:458
4.143:467
4.143:474
4.144:483
4.144:503
4.146:513
4.146:506
4.146:496
4.146:490
4.147:485
4.147:478
4.147:481
4.147:492
4.147:503
4.148:489
4.150:464
4.150:444
4.150:465
4.150:465
4.150:454
4.150:457
4.166:457
4.167:467
4.167:470
4.167:459
4.170:443
4.171:443
4.171:451
4.171:449
4.171:439
4.171:440
4.171:438
4.172:434
4.172:434
4.174:442
4.174:442
4.174:434
4.174:427
4.174:420
4.174:405
4.174:406
4.176:413
4.176:416
4.176:421
4.178:419
4.178:423
4.178:424
4.178:425
4.178:418
4.179:412
4.179:408
4.199:413
4.199:416
4.199:407
4.201:400
4.201:393
4.201:391
4.201:383
4.202:387
4.202:410
4.202:406
4.203:400
4.203:405
4.204:404
4.204:401
4.204:399
4.204:394
4.204:417
4.204:423
4.204:418
4.204:406
4.207:411
4.207:408
4.208:409
4.208:402
4.208:384
4.208:385
4.208:402
4.208:427
4.208:437
4.211:421
4.228:421
4.228:436
4.228:450
4.228:451
4.228:462
4.229:475
4.229:479
4.229:480
4.229:481
4.232:483
4.232:481
4.232:474
4.232:459
4.233:464
4.233:473
4.233:463
4.233:474
4.235:488
4.235:493
4.236:502
4.236:500
4.236:503
4.237:518
4.237:521
4.237:524
4.237:540
4.237:535
4.237:553
4.240:553
4.240:539
4.257:538
4.257:547
4.257:556
4.257:567
4.257:565
4.257:557
4.261:555
4.261:544
4.261:549
4.261:567
4.262:581
4.262:579
4.262:574
4.262:585
4.262:595
4.265:603
4.265:600
4.265:594
4.265:596
4.265:599
4.266:606
4.266:598
4.266:593
4.266:606
4.266:588
4.269:578
4.269:601
4.269:610
4.269:609
4.270:603
4.285:603
4.285:586
4.285:587
4.285:599
4.286:600
4.289:600
4.289:605
4.289:604
4.289:602
4.290:596
4.290:596
4.290:597
4.290:594
4.290:598
4.291:610
4.292:607
4.292:594
4.292:571
4.294:567
4.294:576
4.294:576
4.294:582
4.294:574
4.294:569
4.297:572
4.297:576
4.297:599
4.297:617
4.297:619
4.297:604
4.314:589
4.314:582
4.318:582
4.318:587
4.319:582
4.319:578
4.319:577
4.319:574
4.319:576
4.320:580
4.320:581
4.322:577
4.322:560
4.322:551
4.322:559
4.322:565
4.322:571
4.324:577
4.324:586
4.324:584
4.324:579
4.326:576
4.326:573
4.326:566
4.326:558
4.326:554
4.326:545
4.327:536
4.327:537
4.327:536
4.342:536
4.347:530
4.347:523
4.347:529
4.347:547
4.348:578
4.348:576
4.348:547
4.348:534
4.348:561
4.350:588
4.351:595
4.351:591
4.351:587
4.351:571
4.351:559
4.352:550
4.352:554
4.352:559
4.352:547
4.355:539
4.355:530
4.355:527
4.356:520
4.356:516
4.356:521
4.356:519
4.356:525
4.357:536
4.357:541
4.375:548
4.375:560
4.375:560
4.375:554
4.375:551
4.376:551
4.376:512
4.379:505
4.379:523
4.379:514
4.379:501
4.380:491
4.380:485
4.380:480
4.380:481
4.380:501
4.380:522
4.384:539
4.385:541
4.385:542
4.385:537
4.385:527
4.385:518
4.385:517
4.386:518
4.386:514
4.387:501
4.387:494
4.387:506
4.387:509
4.404:509
4.404:519
4.404:514
4.404:500
4.405:491
4.405:493
4.408:500
4.408:505
4.408:501
4.408:492
4.409:478
4.409:489
4.409:499
4.409:504
4.409:500
4.409:493
4.412:488
4.412:503
4.412:513
4.412:521
4.412:535
4.414:547
4.414:541
4.414:506
4.414:476
4.416:456
4.416:461
4.416:463
4.416:480
4.416:497
4.432:498
4.432:498
4.433:510
4.436:524
4.436:517
4.437:484
4.437:469
4.437:473
4.438:474
4.438:480
4.438:490
4.438:501
4.438:515
4.440:528
4.440:541
4.441:524
4.441:497
4.441:501
4.441:508
4.441:505
4.441:502
4.442:510
4.445:522
4.445:515
4.445:512
4.445:501
4.446:492
4.446:478
4.446:477
4.446:467
4.461:467
4.461:472
4.465:506
4.465:533
4.465:535
4.465:515
4.467:499
4.467:492
4.467:498
4.467:502
4.467:509
4.467:506
4.470:507
4.470:502
4.470:493
4.471:479
4.471:475
4.471:479
4.471:485
4.471:500
4.472:530
4.474:537
4.474:524
4.474:518
4.474:535
4.474:510
4.475:446
4.475:437
4.475:467
4.475:501
4.494:513
4.494:504
4.494:503
4.494:504
4.495:504
4.495:498
4.495:491
4.495:492
4.495:502
4.498:500
4.498:484
4.498:475
4.498:484
4.498:510
4.499:528
4.499:521
4.499:511
4.499:504
4.502:494
4.502:478
4.502:491
4.502:525
4.502:534
4.502:525
4.504:499
4.504:497
4.504:514
4.504:499
4.506:481
4.506:494
4.522:494
4.522:501
4.522:505
4.522:497
4.523:494
4.523:500
4.523:506
4.524:513
4.526:518
4.527:522
4.527:530
4.527:532
4.527:512
4.527:474
4.528:452
4.528:475
4.528:501
4.531:501
4.531:508
4.531:506
4.531:499
4.531:490
4.532:480
4.532:473
4.532:476
4.532:489
4.532:499
4.535:495
4.535:499
4.535:499
4.551:498
4.551:499
4.551:507
4.551:510
4.555:491
4.555:487
4.555:497
4.555:490
4.555:486
4.556:497
4.556:498
4.556:484
4.556:470
4.556:471
4.560:491
4.560:499
4.560:500
4.560:507
4.561:500
4.561:499
4.561:501
4.561:502
4.561:499
4.562:489
4.563:471
4.564:462
4.564:459
4.564:459
4.564:460
4.564:462
4.580:462
4.580:467
4.580:459
4.580:453
4.584:450
4.584:456
4.584:449
4.584:442
4.585:433
4.585:437
4.585:447
4.585:458
4.585:463
4.588:477
4.588:490
4.588:472
4.588:443
4.589:420
4.589:416
4.589:450
4.589:481
4.589:481
4.590:451
4.592:427
4.592:384
4.592:387
4.592:405
4.592:403
4.592:436
4.592:476
4.613:479
4.613:475
4.613:480
4.613:486
4.613:482
4.613:479
4.613:490
4.615:480
4.615:470
4.615:472
4.617:464
4.617:453
4.617:440
4.617:447
4.617:473
4.618:501
4.618:499
4.618:492
4.618:499
4.621:535
4.621:553
4.621:537
4.621:507
4.622:495
4.622:509
4.622:523
4.622:527
4.622:524
4.622:522
4.625:529
4.641:529
4.641:523
4.641:511
4.642:493
4.642:479
4.642:496
4.642:525
4.642:532
4.642:528
4.646:522
4.646:517
4.646:515
4.646:522
4.646:541
4.647:546
4.647:544
4.647:538
4.647:537
4.647:519
4.650:501
4.650:502
4.650:511
4.650:529
4.651:527
4.651:523
4.651:525
4.651:499
4.651:480
4.654:470
4.654:493
4.670:515
4.670:524
4.670:527
4.670:525
4.671:520
4.671:523
4.674:519
4.674:520
4.674:515
4.675:524
4.675:537
4.675:544
4.675:537
4.675:509
4.675:496
4.678:494
4.678:503
4.678:521
4.678:533
4.679:531
4.679:522
4.679:511
4.679:507
4.679:517
4.680:525
4.682:522
4.682:519
4.684:512
4.684:505
4.684:501
4.698:501
4.698:505
4.699:516
4.699:528
4.699:526
4.703:518
4.704:501
4.704:497
4.704:498
4.704:499
4.704:504
4.705:499
4.705:508
4.705:518
4.707:521
4.707:515
4.707:527
4.707:534
4.708:538
4.708:535
4.708:533
4.708:529
4.708:526
4.708:540
4.711:556
4.711:578
4.711:571
4.711:561
4.712:530
4.712:488
4.727:468
4.727:465
4.731:455
4.732:440
4.732:421
4.732:388
4.732:354
4.732:313
4.733:263
4.733:231
4.734:192
4.735:147
4.735:87
4.736:43
4.736:17
4.736:17
4.736:17
4.736:17
4.737:18
4.737:18
4.737:18
4.737:19
4.737:20
4.739:19
4.739:19
4.739:19
4.739:19
4.739:20
4.740:19
4.740:19
4.755:19
4.760:19
4.760:18
4.760:18
4.760:17
4.760:17
4.761:82
4.761:168
4.761:287
4.761:448
4.761:586
4.762:675
4.764:732
4.764:764
4.764:794
4.765:805
4.765:771
4.765:718
4.765:674
4.767:653
4.767:635
4.768:630
4.768:621
4.768:612
4.768:593
4.769:583
4.769:584
4.769:597
4.769:618
4.769:624
4.788:621
4.788:613
4.788:610
4.789:615
4.789:615
4.789:616
4.789:616
4.793:599
4.794:586
4.794:602
4.794:617
4.794:621
4.794:618
4.795:614
4.795:624
4.795:645
4.795:660
4.797:639
4.797:598
4.797:554
4.798:551
4.798:588
4.798:622
4.798:631
4.798:630
4.799:618
4.801:605
4.801:607
4.801:608
4.801:612
4.817:612
4.817:617
4.817:623
4.817:631
4.818:626
4.818:612
4.822:580
4.822:568
4.822:579
4.822:577
4.823:573
4.823:574
4.823:570
4.823:574
4.823:580
4.824:576
4.826:574
4.826:577
4.826:582
4.826:590
4.827:595
4.827:579
4.827:571
4.827:554
4.827:542
4.829:537
4.829:538
4.829:543
4.829:552
4.829:550
4.846:547
4.846:548
4.846:549
4.850:549
4.850:549
4.850:548
4.850:550
4.851:545
4.851:538
4.851:512
4.851:517
4.851:540
4.851:560
4.854:584
4.854:597
4.854:547
4.854:512
4.854:509
4.854:536
4.855:575
4.855:579
4.855:575
4.858:559
4.858:529
4.858:521
4.859:529
4.859:543
4.859:541
4.859:531
4.860:518
4.874:518
4.874:515
4.879:520
4.879:511
4.879:498
4.879:509
4.879:511
4.880:513
4.880:515
4.880:513
4.880:504
4.880:498
4.883:498
4.884:522
4.884:528
4.884:526
4.884:521
4.884:499
4.884:490
4.884:486
4.884:489
4.887:527
4.887:515
4.887:498
4.887:518
4.887:498
4.887:482
4.888:465
4.888:424
4.888:422
4.907:441
4.907:447
4.907:462
4.908:463
4.908:458
4.908:471
4.908:475
4.908:476
4.909:473
4.911:485
4.911:477
4.911:481
4.912:488
4.912:470
4.912:439
4.912:440
4.912:469
4.912:468
4.916:458
4.916:448
4.917:416
4.917:401
4.917:427
4.917:447
4.917:454
4.918:469
4.918:438
4.918:409
4.919:440
4.920:467
4.936:467
4.936:480
4.936:465
4.937:428
4.937:396
4.937:394
4.937:400
4.937:408
4.940:393
4.940:377
4.941:363
4.941:349
4.941:387
4.941:411
4.941:438
4.941:454
4.942:460
4.945:446
4.945:425
4.945:430
4.945:452
4.946:467
4.946:484
4.946:515
4.946:464
4.947:393
4.947:396
4.948:430
4.949:416
4.949:376
4.964:387
4.964:409
4.965:438
4.965:448
4.969:448
4.969:450
4.969:458
4.970:462
4.970:462
4.970:454
4.970:431
4.970:444
4.971:457
4.971:473
4.973:485
4.973:505
4.973:523
4.973:535
4.973:515
4.973:473
4.973:414
4.975:396
4.975:456
4.977:497
4.977:499
4.977:499
4.977:509
4.978:502
4.978:508
4.978:527
4.993:527
4.994:539
4.994:548
4.994:551
4.997:547
4.997:549
4.998:551
4.998:552
4.998:565
4.998:558
4.998:554
4.999:548
4.999:553
5.002:564
5.002:568
5.002:570
5.002:575
5.003:581
5.003:576
5.003:573
5.003:575
5.003:573
5.003:579
5.005:587
5.005:583
5.006:583
5.006:575
5.006:587
5.006:614
5.006:616
5.026:601
5.026:612
5.026:600
5.026:622
5.027:623
5.027:616
5.027:588
5.027:578
5.027:567
5.027:593
5.031:625
5.031:636
5.031:627
5.031:615
5.032:589
5.032:552
5.032:549
5.033:580
5.033:606
5.034:608
5.034:611
5.034:611
5.034:606
5.034:599
5.034:599
5.034:607
5.034:605
5.035:581
5.035:573
5.038:585
5.055:585
5.055:585
5.055:595
5.055:600
5.055:592
5.055:597
5.055:593
5.055:591
5.056:593
5.059:585
5.059:568
5.059:561
5.059:570
5.060:565
5.060:551
5.060:546
5.060:556
5.060:550
5.063:555
5.064:580
5.064:603
5.064:633
5.064:638
5.064:610
5.065:553
5.065:523
5.065:531
5.065:564
5.067:554
5.067:554
5.083:568
5.083:572
5.083:577
5.083:568
5.084:569
5.084:562
5.088:555
5.088:552
5.088:550
5.088:561
5.089:579
5.089:584
5.089:560
5.089:548
5.089:538
5.092:547
5.092:569
5.092:576
5.092:576
5.093:580
5.093:576
5.093:543
5.093:535
5.093:521
5.094:533
5.096:543
5.096:539
5.096:535
5.096:531
5.097:549
5.111:549
5.112:574
5.112:594
5.112:588
5.112:560
5.116:557
5.117:558
5.117:573
5.117:561
5.117:545
5.117:539
5.117:533
5.117:534
5.117:533
5.121:524
5.121:517
5.121:515
5.121:520
5.122:533
5.122:536
5.122:540
5.122:538
5.122:550
5.122:550
5.124:550
5.125:541
5.125:519
5.125:500
5.125:506
5.125:504
5.141:507
5.141:527
5.144:529
5.145:523
5.145:520
5.145:514
5.145:515
5.145:519
5.145:528
5.146:528
5.146:531
5.149:528
5.150:535
5.150:531
5.150:529
5.150:529
5.150:530
5.151:520
5.151:512
5.151:510
5.151:514
5.154:517
5.154:507
5.154:502
5.154:495
5.154:495
5.154:494
5.154:500
5.154:492
5.154:494
5.169:494
5.174:503
5.174:512
5.174:532
5.174:545
5.175:547
5.175:532
5.175:518
5.175:511
5.175:513
5.178:524
5.178:529
5.178:527
5.178:523
5.179:529
5.179:539
5.179:544
5.179:533
5.179:506
5.180:480
5.182:492
5.183:510
5.183:519
5.184:526
5.184:526
5.184:527
5.184:524
5.184:526
5.185:526
5.186:515
5.202:497
5.202:482
5.202:487
5.202:482
5.202:499
5.202:530
5.202:550
5.207:546
5.207:547
5.207:533
5.207:528
5.208:530
5.208:524
5.208:526
5.208:518
5.208:515
5.208:514
5.211:514
5.211:519
5.211:516
5.211:514
5.211:533
5.211:542
5.212:530
5.212:516
5.212:501
5.214:500
5.214:501
5.214:518
5.214:525
5.231:525
5.231:514
5.231:528
5.231:540
5.232:543
5.232:538
5.235:540
5.235:525
5.235:517
5.235:516
5.236:519
5.236:524
5.236:524
5.236:512
5.236:498
5.237:500
5.240:502
5.240:492
5.240:508
5.240:524
5.240:517
5.241:513
5.241:506
5.241:512
5.241:532
5.243:531
5.243:527
5.243:524
5.243:519
5.243:516
5.259:515
5.260:510
5.260:508
5.264:511
5.264:511
5.264:511
5.265:507
5.265:501
5.265:497
5.265:492
5.266:499
5.266:530
5.267:559
5.267:559
5.268:544
5.268:531
5.268:517
5.268:506
5.268:510
5.268:518
5.269:527
5.269:520
5.272:510
5.272:497
5.272:470
5.272:470
5.272:483
5.272:493
5.274:483
5.274:474
5.288:474
5.288:465
5.293:476
5.293:492
5.293:498
5.294:498
5.294:491
5.294:503
5.294:515
5.294:510
5.295:502
5.295:492
5.297:476
5.297:466
5.297:455
5.297:453
5.298:453
5.298:448
5.298:453
5.298:455
5.298:464
5.300:464
5.300:469
5.300:474
5.300:479
5.302:490
5.302:494
5.302:493
5.302:486
5.302:479
5.321:477
5.321:480
5.321:478
5.321:484
5.322:491
5.322:486
5.322:476
5.322:463
5.325:470
5.325:480
5.326:497
5.326:505
5.326:507
5.326:498
5.326:489
5.326:491
5.327:473
5.327:502
5.329:553
5.329:574
5.329:571
5.329:550
5.330:523
5.330:512
5.330:531
5.330:532
5.330:531
5.331:545
5.333:549
5.333:541
5.349:541
5.349:532
5.350:523
5.350:538
5.350:549
5.350:555
5.350:565
5.351:555
5.354:545
5.354:540
5.354:537
5.354:536
5.355:533
5.355:529
5.355:527
5.355:528
5.356:521
5.358:517
5.358:515
5.358:518
5.359:524
5.359:527
5.359:526
5.359:527
5.360:531
5.360:535
5.360:542
5.362:550
5.362:546
5.362:544
5.378:540
5.378:539
5.378:542
5.378:539
5.382:532
5.384:529
5.384:534
5.384:524
5.384:517
5.384:524
5.385:533
5.385:560
5.385:566
5.385:563
5.387:554
5.387:539
5.387:529
5.387:522
5.388:524
5.388:528
5.388:528
5.388:533
5.388:540
5.391:541
5.391:540
5.391:544
5.391:541
5.392:534
5.392:525
5.392:524
5.407:524
5.407:526
5.407:524
5.411:523
5.411:524
5.411:529
5.411:528
5.412:528
5.412:534
5.412:536
5.412:537
5.412:524
5.412:511
5.415:503
5.416:512
5.416:521
5.416:523
5.416:524
5.416:529
5.416:547
5.417:558
5.417:567
5.417:565
5.419:563
5.419:556
5.419:560
5.419:576
5.420:574
5.420:567
5.420:557
5.440:538
5.440:522
5.440:512
5.440:498
5.440:471
5.441:445
5.441:437
5.441:417
5.441:380
5.441:350
5.444:325
5.444:298
5.444:264
5.445:225
5.445:184
5.445:149
5.445:95
5.445:46
5.446:17
5.446:17
5.448:18
5.449:18
5.449:18
5.449:18
5.450:18
5.450:19
5.450:19
5.450:19
5.450:19
5.450:19
5.468:19
5.469:19
5.469:19
5.469:18
5.469:18
5.469:18
5.469:17
5.470:17
5.470:100
5.470:203
5.470:326
5.473:515
5.473:682
5.473:754
5.473:764
5.473:764
5.473:770
5.474:762
5.474:725
5.474:698
5.476:691
5.476:686
5.477:689
5.477:684
5.477:660
5.477:651
5.477:656
5.477:643
5.478:624
5.478:611
5.497:607
5.497:608
5.497:610
5.497:614
5.497:607
5.498:604
5.501:600
5.501:599
5.501:587
5.501:580
5.501:603
5.501:605
5.502:596
5.502:581
5.502:578
5.505:597
5.505:628
5.505:634
5.506:635
5.506:623
5.506:611
5.506:605
5.506:602
5.507:602
5.507:601
5.509:602
5.509:604
5.509:596
5.510:583
5.510:567
5.525:567
5.525:570
5.526:563
5.526:569
5.526:578
5.530:583
5.530:591
5.530:592
5.531:588
5.531:596
5.531:602
5.531:600
5.532:599
5.532:593
5.534:587
5.534:578
5.534:576
5.534:580
5.535:581
5.535:566
5.535:546
5.535:548
5.535:556
5.536:565
5.538:563
5.538:561
5.538:559
5.538:558
5.539:554
5.539:554
5.554:560
5.554:555
5.558:563
5.558:560
5.558:561
5.559:558
5.559:552
5.559:544
5.559:541
5.559:535
5.560:517
5.563:516
5.563:518
5.564:528
5.564:525
5.564:521
5.564:529
5.564:536
5.564:531
5.565:514
5.565:512
5.567:521
5.567:526
5.567:519
5.567:518
5.567:527
5.568:535
5.568:539
5.568:538
5.568:523
5.582:523
5.587:500
5.587:501
5.587:510
5.587:507
5.588:508
5.588:511
5.588:513
5.588:516
5.588:503
5.591:498
5.591:512
5.591:516
5.593:512
5.593:502
5.593:513
5.593:523
5.593:522
5.594:509
5.594:500
5.595:495
5.596:480
5.596:476
5.596:480
5.596:487
5.596:485
5.597:476
5.597:480
5.597:496
5.599:494
5.615:483
5.615:484
5.615:482
5.617:479
5.617:469
5.617:471
5.617:473
5.620:469
5.620:457
5.620:451
5.620:452
5.621:443
5.621:449
5.621:457
5.621:455
5.621:448
5.622:446
5.624:445
5.624:443
5.625:450
5.625:455
5.625:461
5.625:456
5.625:441
5.626:436
5.626:441
5.628:446
5.628:446
5.628:433
5.628:415
5.644:415
5.645:413
5.645:421
5.645:426
5.645:403
5.645:411
5.649:441
5.650:441
5.650:438
5.651:421
5.651:386
5.651:398
5.651:415
5.651:411
5.651:416
5.652:426
5.653:439
5.653:434
5.653:421
5.653:404
5.653:395
5.654:406
5.654:395
5.654:391
5.654:389
5.657:404
5.657:414
5.657:413
5.657:412
5.658:413
5.672:407
5.672:410
5.672:428
5.677:427
5.677:436
5.677:431
5.677:435
5.678:446
5.678:462
5.678:475
5.678:467
5.678:472
5.681:453
5.682:439
5.682:429
5.682:437
5.682:437
5.682:465
5.682:487
5.684:492
5.684:493
5.684:498
5.685:510
5.685:516
5.685:513
5.685:511
5.685:516
5.685:513
5.687:515
5.687:523
5.701:523
5.701:533
5.706:532
5.706:529
5.706:532
5.706:537
5.707:540
5.707:537
5.707:544
5.707:545
5.707:549
5.708:566
5.710:573
5.710:584
5.710:591
5.710:582
5.710:567
5.711:577
5.711:595
5.711:607
5.711:606
5.714:601
5.715:595
5.716:593
5.716:599
5.716:599
5.717:600
5.717:599
5.717:599
5.717:600
5.734:601
5.734:608
5.735:616
5.735:628
5.735:630
5.735:618
5.735:612
5.735:613
5.739:617
5.739:615
5.739:607
5.739:598
5.740:606
5.740:604
5.740:598
5.740:593
5.740:592
5.741:586
5.743:590
5.743:601
5.743:612
5.743:616
5.744:616
5.744:623
5.744:625
5.744:628
5.744:624
5.746:617
5.746:616
5.746:614
5.762:614
5.764:611
5.764:606
5.764:596
5.764:583
5.765:574
5.765:567
5.765:570
5.767:578
5.767:589
5.768:594
5.768:600
5.768:596
5.768:590
5.768:594
5.769:598
5.769:604
5.771:600
5.772:601
5.772:603
5.772:619
5.772:615
5.773:600
5.773:590
5.773:565
5.774:533
5.774:534
5.774:562
5.774:602
5.774:621
5.792:620
5.792:606
5.792:591
5.792:584
5.796:589
5.796:592
5.796:592
5.796:590
5.797:584
5.797:571
5.797:558
5.797:560
5.797:569
5.798:563
5.800:548
5.800:548
5.800:550
5.800:554
5.801:563
5.801:569
5.801:570
5.801:568
5.801:570
5.804:572
5.804:570
5.804:565
5.804:565
5.804:565
5.805:571
5.805:566
5.820:566
5.820:554
5.820:548
5.825:545
5.825:540
5.825:538
5.825:539
5.826:539
5.826:537
5.826:532
5.826:540
5.826:541
5.827:547
5.829:549
5.829:537
5.829:531
5.829:531
5.830:540
5.830:544
5.830:539
5.830:535
5.830:531
5.831:534
5.833:541
5.833:535
5.833:520
5.833:510
5.833:509
5.833:512
5.833:518
5.854:521
5.854:518
5.854:523
5.854:519
5.855:519
5.855:533
5.855:541
5.855:534
5.855:525
5.855:520
5.857:521
5.858:530
5.858:527
5.858:530
5.858:527
5.858:522
5.859:517
5.859:513
5.859:503
5.862:487
5.862:484
5.862:491
5.862:503
5.863:522
5.863:527
5.863:527
5.863:535
5.863:540
5.864:534
5.865:530
5.882:530
5.882:522
5.882:524
5.882:525
5.883:520
5.883:514
5.883:512
5.883:508
5.883:506
5.886:498
5.886:497
5.886:494
5.886:506
5.886:524
5.886:529
5.886:521
5.888:516
5.888:515
5.890:521
5.890:528
5.890:539
5.890:537
5.891:532
5.891:522
5.891:516
5.891:512
5.891:508
5.892:500
5.894:499
5.894:497
5.910:495
5.910:512
5.911:540
5.911:558
5.911:557
5.911:535
5.915:519
5.915:522
5.915:529
5.915:529
5.915:524
5.915:520
5.915:527
5.916:523
5.916:522
5.919:517
5.919:486
5.919:465
5.920:452
5.920:452
5.920:465
5.920:475
5.921:507
5.921:530
5.921:554
5.923:568
5.924:564
5.924:552
5.924:536
5.924:539
5.939:539
5.939:547
5.940:546
5.940:539
5.940:527
5.944:513
5.944:498
5.944:491
5.944:495
5.944:501
5.944:502
5.945:504
5.945:511
5.945:512
5.948:509
5.948:513
5.948:512
5.949:511
5.949:522
5.949:519
5.949:512
5.949:509
5.949:508
5.949:513
5.951:512
5.951:500
5.951:486
5.951:492
5.952:498
5.952:505
5.967:509
5.968:513
5.972:513
5.972:521
5.972:507
5.972:485
5.972:480
5.972:498
5.972:515
5.972:525
5.974:528
5.976:524
5.976:519
5.976:507
5.976:501
5.977:503
5.977:509
5.977:511
5.977:500
5.977:495
5.978:497
5.980:500
5.980:500
5.980:493
5.980:486
5.980:497
5.980:506
5.981:505
5.981:508
5.981:499
5.996:499
6.000:492
6.000:491
6.001:479
6.001:473
6.001:478
6.001:475
6.001:468
6.002:463
6.002:455
6.005:459
6.005:471
6.005:470
6.006:480
6.006:482
6.006:475
6.006:462
6.006:444
6.007:447
6.007:456
6.009:462
6.009:477
6.009:485
6.009:483
6.010:473
6.010:468
6.010:471
6.010:463
6.010:473
6.013:469
6.029:473
6.029:479
6.029:500
6.030:502
6.030:492
6.030:487
6.030:511
6.033:529
6.034:538
6.034:527
6.034:499
6.034:504
6.034:518
6.034:530
6.034:525
6.035:523
6.038:538
6.038:540
6.038:537
6.038:529
6.039:524
6.039:519
6.039:522
6.039:533
6.039:545
6.040:562
6.042:565
6.042:552
6.042:513
6.042:478
6.057:478
6.057:478
6.058:511
6.058:541
6.058:546
6.058:546
6.062:523
6.062:527
6.062:531
6.062:541
6.062:536
6.063:528
6.063:528
6.063:522
6.063:505
6.063:503
6.066:515
6.066:521
6.066:532
6.066:532
6.067:527
6.067:519
6.067:520
6.067:528
6.067:542
6.070:542
6.070:546
6.070:537
6.070:522
6.071:524
6.086:528
6.086:532
6.086:565
6.091:583
6.091:578
6.091:570
6.091:541
6.091:487
6.092:488
6.092:514
6.092:533
6.092:544
6.095:543
6.095:529
6.095:524
6.096:521
6.096:513
6.096:507
6.096:500
6.096:499
6.097:496
6.097:505
6.099:527
6.099:545
6.099:545
6.099:541
6.100:539
6.100:535
6.100:538
6.100:541
6.115:541
6.115:546
6.120:547
6.120:541
6.120:529
6.120:519
6.121:516
6.121:510
6.121:518
6.121:529
6.121:519
6.122:502
6.124:498
6.124:504
6.124:507
6.124:517
6.124:545
6.124:556
6.124:567
6.124:562
6.125:561
6.128:577
6.128:585
6.128:584
6.128:590
6.129:588
6.129:574
6.129:560
6.129:520
6.129:489
6.148:489
6.148:485
6.148:469
6.149:439
6.149:421
6.149:395
6.149:370
6.149:351
6.152:328
6.152:300
6.152:276
6.153:261
6.153:234
6.154:184
6.154:108
6.154:33
6.154:17
6.154:17
6.154:17
6.156:17
6.156:18
6.157:18
6.157:18
6.157:18
6.157:18
6.157:19
6.157:19
6.158:19
6.158:19
6.158:18
6.176:18
6.177:18
6.177:17
6.177:17
6.177:16
6.177:56
6.177:127
6.178:217
6.178:319
6.181:452
6.182:577
6.182:662
6.182:715
6.182:751
6.182:753
6.182:729
6.182:697
6.182:678
6.185:670
6.185:656
6.185:643
6.185:639
6.185:636
6.186:626
6.186:633
6.186:626
6.186:625
6.186:613
6.189:607
6.189:604
6.205:581
6.205:567
6.205:558
6.205:586
6.210:608
6.210:609
6.210:604
6.210:591
6.211:573
6.211:576
6.211:588
6.211:588
6.211:596
6.212:608
6.214:607
6.214:608
6.214:619
6.215:607
6.215:600
6.215:597
6.215:591
6.216:597
6.216:589
6.218:584
6.218:588
6.218:595
6.218:562
6.219:548
6.219:572
6.219:591
6.234:591
6.234:596
6.234:613
6.238:627
6.238:621
6.238:619
6.238:610
6.239:597
6.239:576
6.239:563
6.239:565
6.239:564
6.239:568
6.243:564
6.243:568
6.243:569
6.244:569
6.244:552
6.244:554
6.244:559
6.244:571
6.245:577
6.246:565
6.246:551
6.246:536
6.246:530
6.247:525
6.247:533
6.247:542
6.247:559
6.267:567
6.267:568
6.267:562
6.267:544
6.267:529
6.268:516
6.268:506
6.268:500
6.268:514
6.268:533
6.270:543
6.271:541
6.271:544
6.271:552
6.271:548
6.271:536
6.272:531
6.272:534
6.272:540
6.275:535
6.275:523
6.275:514
6.276:509
6.276:511
6.276:517
6.276:527
6.276:528
6.277:525
6.277:524
6.279:528
6.295:528
6.295:533
6.295:526
6.296:509
6.296:495
6.296:494
6.296:496
6.296:502
6.296:495
6.300:480
6.300:460
6.300:452
6.300:446
6.301:429
6.301:449
6.301:474
6.301:505
6.301:516
6.304:507
6.304:498
6.304:493
6.305:479
6.305:483
6.305:484
6.305:479
6.305:467
6.305:474
6.305:491
6.308:497
6.308:501
6.324:503
6.324:504
6.324:491
6.325:471
6.325:452
6.325:453
6.328:465
6.329:467
6.329:470
6.329:471
6.329:471
6.329:475
6.329:472
6.330:468
6.330:463
6.332:463
6.332:454
6.332:446
6.332:449
6.332:442
6.332:433
6.332:431
6.332:434
6.332:437
6.334:447
6.336:446
6.336:434
6.336:423
6.337:417
6.337:417
6.352:417
6.352:415
6.352:425
6.352:428
6.354:424
6.357:436
6.357:449
6.357:445
6.357:433
6.357:430
6.358:430
6.358:426
6.358:413
6.358:409
6.361:417
6.361:419
6.361:415
6.361:409
6.362:408
6.362:414
6.362:420
6.362:425
6.362:435
6.362:444
6.365:439
6.365:431
6.365:436
6.366:437
6.366:432
6.366:444
6.381:474
6.381:482
6.385:475
6.385:462
6.386:449
6.386:438
6.386:428
6.386:423
6.386:432
6.386:440
6.387:448
6.390:472
6.390:486
6.390:484
6.390:493
6.391:501
6.391:498
6.391:495
6.391:492
6.391:490
6.392:491
6.394:498
6.394:515
6.394:531
6.394:541
6.394:531
6.394:515
6.394:515
6.395:514
6.395:524
6.410:524
6.414:524
6.415:524
6.415:522
6.415:530
6.416:535
6.416:547
6.416:560
6.416:553
6.416:556
6.419:557
6.419:559
6.419:575
6.419:592
6.420:599
6.420:598
6.420:591
6.420:588
6.420:595
6.421:595
6.423:591
6.423:584
6.423:584
6.423:583
6.423:584
6.424:591
6.424:603
6.424:607
6.424:607
6.426:614
6.443:621
6.443:634
6.443:649
6.444:649
6.444:639
6.444:628
6.444:637
6.447:625
6.448:619
6.449:617
6.449:617
6.449:610
6.449:600
6.449:600
6.450:601
6.450:610
6.451:619
6.451:631
6.451:635
6.451:642
6.451:637
6.452:631
6.452:625
6.452:621
6.452:611
6.452:608
6.455:610
6.455:608
6.455:606
6.455:597
6.471:597
6.471:598
6.472:598
6.472:602
6.472:614
6.472:622
6.476:622
6.476:614
6.476:606
6.476:600
6.477:600
6.477:605
6.477:609
6.477:613
6.477:612
6.477:593
6.480:583
6.480:575
6.480:565
6.480:570
6.480:576
6.481:573
6.481:575
6.481:584
6.482:581
6.484:579
6.484:581
6.484:583
6.485:580
6.485:580
6.499:583
6.500:581
6.500:582
6.505:582
6.505:572
6.505:558
6.505:564
6.505:568
6.505:553
6.506:545
6.506:542
6.506:545
6.509:552
6.509:553
6.509:564
6.509:568
6.509:551
6.509:554
6.510:571
6.510:571
6.510:568
6.510:564
6.513:564
6.513:567
6.513:564
6.513:564
6.513:562
6.513:564
6.515:561
6.515:555
6.528:555
6.528:550
6.534:546
6.534:545
6.534:549
6.534:543
6.534:540
6.534:545
6.534:555
6.534:572
6.534:573
6.537:567
6.537:559
6.537:548
6.537:536
6.538:531
6.538:533
6.538:533
6.538:530
6.538:524
6.539:525
6.541:529
6.541:547
6.541:557
6.541:553
6.542:542
6.542:532
6.542:529
6.542:531
6.542:538
6.562:538
6.562:537
6.562:524
6.562:519
6.562:523
6.562:519
6.563:511
6.563:499
6.565:493
6.566:490
6.566:489
6.566:504
6.566:512
6.566:515
6.566:519
6.568:533
6.568:543
6.568:543
6.570:534
6.570:538
6.570:536
6.570:527
6.570:519
6.571:516
6.571:515
6.571:517
6.571:520
6.572:513
6.574:519
6.574:519
6.590:519
6.590:516
6.590:501
6.590:499
6.591:502
6.591:511
6.591:513
6.595:518
6.595:542
6.595:551
6.595:551
6.596:539
6.596:529
6.596:522
6.596:520
6.596:515
6.597:508
6.598:504
6.599:506
6.599:510
6.599:503
6.599:505
6.599:501
6.600:500
6.600:503
6.600:504
6.602:508
6.603:504
6.603:506
6.603:513
6.618:521
6.618:523
6.619:521
6.619:508
6.623:508
6.623:506
6.623:505
6.623:508
6.624:504
6.624:500
6.624:499
6.624:505
6.624:508
6.625:513
6.627:517
6.627:523
6.627:526
6.627:521
6.628:512
6.628:511
6.628:512
6.628:494
6.628:487
6.631:489
6.632:499
6.632:503
6.632:509
6.632:510
6.632:497
6.632:494
6.647:494
6.647:489
6.647:490
6.652:494
6.652:494
6.652:486
6.652:488
6.652:497
6.652:500
6.652:505
6.653:513
6.653:528
6.653:519
6.656:511
6.656:517
6.656:524
6.656:527
6.657:516
6.657:506
6.657:506
6.657:500
6.657:486
6.660:485
6.660:480
6.660:485
6.660:493
6.661:494
6.661:494
6.661:491
6.661:483
6.681:490
6.682:512
6.682:521
6.682:523
6.682:524
6.682:521
6.682:523
6.684:527
6.684:533
6.684:539
6.685:524
6.685:503
6.685:511
6.685:501
6.686:501
6.686:524
6.686:537
6.686:533
6.686:532
6.689:525
6.689:508
6.689:511
6.689:518
6.690:532
6.690:530
6.690:523
6.690:506
6.690:515
6.691:527
6.693:520
6.709:520
6.709:502
6.709:484
6.709:484
6.710:483
6.710:479
6.710:472
6.710:478
6.710:480
6.714:478
6.714:471
6.714:472
6.714:482
6.715:491
6.715:501
6.715:505
6.715:494
6.716:481
6.718:468
6.718:450
6.718:449
6.718:448
6.719:438
6.719:426
6.719:416
6.719:416
6.719:418
6.720:440
6.721:456
6.721:461
6.737:475
6.738:481
6.738:484
6.738:486
6.738:484
6.738:482
6.742:491
6.742:499
6.742:495
6.742:488
6.742:493
6.742:494
6.743:488
6.743:479
6.743:475
6.746:477
6.746:474
6.746:475
6.746:493
6.747:505
6.747:523
6.747:530
6.749:520
6.749:517
6.749:525
6.750:532
6.750:537
6.750:535
6.750:533
6.750:527
6.766:527
6.766:521
6.766:517
6.766:516
6.766:523
6.771:517
6.771:511
6.771:507
6.771:504
6.771:503
6.771:509
6.772:511
6.772:513
6.772:519
6.775:526
6.775:539
6.775:537
6.776:529
6.776:525
6.776:528
6.776:529
6.776:538
6.776:547
6.776:551
6.779:551
6.779:547
6.779:531
6.779:514
6.780:512
6.780:518
6.794:520
6.799:523
6.799:524
6.799:539
6.799:546
6.799:543
6.800:545
6.800:547
6.800:536
6.800:522
6.800:521
6.803:528
6.804:528
6.804:515
6.804:505
6.804:500
6.805:501
6.805:501
6.805:508
6.805:516
6.805:524
6.807:524
6.807:522
6.807:527
6.808:527
6.808:525
6.808:533
6.808:540
6.808:540
6.808:535
6.822:535
6.827:535
6.828:533
6.828:526
6.828:515
6.828:507
6.828:510
6.829:513
6.829:520
6.829:522
6.832:515
6.832:517
6.833:524
6.833:525
6.833:523
6.833:516
6.833:522
6.834:521
6.834:540
6.834:556
6.836:549
6.836:534
6.836:531
6.836:526
6.837:522
6.837:513
6.837:514
6.837:520
6.837:520
6.840:521
6.856:517
6.856:524
6.857:535
6.857:546
6.857:556
6.857:561
6.857:556
6.861:548
6.861:534
6.861:522
6.861:506
6.862:482
6.862:452
6.862:426
6.862:398
6.862:375
6.864:349
6.864:316
6.866:298
6.866:269
6.866:225
6.866:177
6.866:137
6.867:88
6.867:44
6.867:17
6.867:17
6.868:17
6.868:17
6.868:18
6.885:18
6.885:18
6.885:18
6.885:18
6.886:19
6.886:19
6.886:19
6.886:19
6.889:19
6.889:19
6.889:18
6.889:18
6.890:17
6.890:17
6.890:41
6.890:136
6.890:231
6.890:321
6.891:431
6.892:552
6.892:632
6.892:687
6.894:727
6.894:738
6.894:726
6.894:700
6.895:676
6.895:659
6.898:646
6.899:636
6.914:637
6.914:630
6.914:624
6.918:623
6.918:620
6.918:619
6.918:626
6.919:624
6.919:610
6.919:598
6.919:588
6.919:581
6.922:580
6.922:585
6.922:590
6.922:584
6.922:575
6.923:578
6.924:578
6.924:575
6.924:573
6.924:581
6.926:590
6.926:605
6.926:605
6.926:591
6.927:592
6.927:598
6.927:600
6.927:594
6.942:594
6.942:592
6.946:600
6.947:601
6.948:591
6.948:585
6.948:580
6.948:578
6.949:580
6.949:588
6.949:595
6.951:598
6.951:600
6.951:606
6.951:599
6.952:592
6.952:593
6.952:595
6.952:590
6.952:587
6.953:588
6.955:594
6.955:593
6.955:585
6.956:571
6.956:560
6.956:550
6.956:545
6.956:541
6.957:538
6.975:550
6.975:551
6.975:554
6.975:548
6.975:546
6.975:555
6.975:559
6.975:562
6.980:554
6.980:552
6.980:556
6.981:557
6.981:560
6.981:558
6.981:560
6.981:555
6.981:549
6.981:537
6.984:530
6.984:525
6.984:527
6.984:528
6.985:522
6.985:516
6.985:523
6.985:533
6.985:545
6.987:554
6.987:555
6.987:553
7.004:553
7.004:543
7.004:536
7.004:540
7.005:547
7.005:534
7.005:498
7.008:500
7.008:499
7.008:494
7.009:499
7.009:507
7.009:506
7.009:503
7.009:498
7.010:493
7.010:502
7.012:516
7.012:517
7.012:513
7.012:504
7.014:493
7.014:501
7.014:504
7.015:493
7.015:489
7.016:477
7.016:467
7.016:461
7.016:469
7.032:481
7.032:488
7.033:499
7.033:500
7.037:494
7.037:490
7.037:485
7.037:482
7.038:489
7.038:483
7.038:478
7.038:471
7.038:474
7.039:474
7.041:476
7.041:474
7.041:471
7.041:464
7.041:452
7.042:455
7.042:456
7.042:468
7.042:470
7.044:463
7.044:456
7.044:455
7.044:457
7.045:460
7.045:467
7.045:459
7.061:459
7.061:444
7.062:435
7.065:436
7.065:442
7.066:447
7.066:451
7.066:446
7.066:440
7.066:428
7.066:424
7.067:418
7.067:418
7.069:412
7.069:409
7.069:410
7.069:409
7.069:412
7.071:419
7.071:423
7.071:416
7.071:421
7.074:419
7.074:420
7.074:424
7.074:427
7.075:418
7.075:405
7.075:407
7.075:400
7.094:398
7.094:400
7.094:413
7.094:426
7.095:423
7.095:421
7.095:420
7.095:426
7.095:435
7.095:449
7.098:446
7.098:438
7.098:429
7.098:423
7.098:424
7.098:421
7.099:421
7.099:426
7.099:428
7.102:420
7.102:424
7.102:422
7.102:419
7.102:428
7.102:448
7.104:456
7.104:461
7.104:473
7.104:482
7.106:495
7.122:495
7.122:492
7.122:493
7.122:491
7.122:491
7.124:483
7.124:494
7.124:493
7.124:498
7.127:520
7.127:534
7.127:550
7.127:552
7.127:548
7.127:547
7.128:548
7.128:545
7.128:545
7.131:549
7.131:558
7.132:575
7.132:574
7.132:565
7.132:567
7.132:578
7.132:582
7.132:578
7.132:586
7.135:599
7.135:603
7.151:596
7.151:597
7.151:591
7.151:596
7.152:594
7.155:589
7.156:592
7.156:602
7.156:607
7.156:591
7.156:592
7.156:609
7.157:615
7.157:596
7.157:582
7.160:591
7.160:610
7.160:615
7.160:618
7.161:611
7.161:595
7.161:597
7.161:600
7.161:607
7.162:619
7.164:612
7.164:604
7.164:601
7.164:599
7.164:602
7.180:602
7.180:608
7.181:606
7.181:608
7.181:606
7.184:614
7.184:610
7.184:603
7.184:598
7.184:593
7.184:581
7.185:567
7.185:566
7.185:575
7.188:585
7.188:589
7.188:591
7.188:589
7.189:587
7.189:581
7.189:579
7.189:584
7.189:586
7.190:593
7.192:594
7.192:592
7.192:579
7.192:573
7.192:564
7.192:557
7.208:557
7.213:544
7.213:541
7.214:545
7.214:552
7.215:556
7.215:564
7.215:572
7.215:580
7.215:589
7.215:587
7.217:587
7.217:584
7.217:577
7.217:572
7.218:567
7.218:556
7.218:546
7.218:541
7.218:541
7.221:549
7.221:552
7.221:554
7.221:556
7.222:557
7.222:551
7.222:550
7.222:547
7.222:551
7.222:551
7.237:551
7.241:554
7.242:561
7.242:571
7.242:584
7.242:585
7.242:570
7.243:558
7.243:556
7.243:551
7.245:548
7.245:552
7.245:549
7.245:543
7.246:537
7.246:534
7.246:534
7.246:536
7.246:528
7.246:526
7.249:523
7.250:525
7.250:536
7.250:549
7.250:554
7.250:555
7.250:557
7.251:566
7.251:560
7.254:553
7.270:539
7.270:517
7.270:512
7.271:521
7.271:521
7.271:534
7.271:540
7.274:543
7.274:540
7.274:537
7.274:529
7.274:519
7.274:522
7.274:524
7.274:515
7.274:510
7.278:508
7.278:512
7.278:523
7.278:525
7.279:526
7.279:520
7.279:504
7.279:502
7.279:503
7.279:503
7.282:508
7.282:509
7.282:506
7.282:504
7.298:504
7.298:508
7.298:516
7.299:520
7.299:522
7.299:520
7.303:521
7.303:526
7.303:526
7.303:521
7.303:509
7.303:499
7.303:499
7.305:487
7.305:483
7.305:483
7.307:483
7.307:489
7.307:496
7.307:504
7.307:511
7.307:512
7.307:515
7.307:522
7.308:525
7.311:519
7.311:509
7.311:511
7.311:517
7.312:515
7.327:514
7.327:512
7.327:508
7.331:513
7.331:517
7.331:512
7.331:505
7.331:498
7.332:494
7.332:503
7.332:508
7.332:506
7.336:509
7.336:517
7.336:516
7.336:513
7.337:510
7.337:507
7.337:505
7.337:505
7.337:501
7.338:505
7.340:501
7.340:495
7.340:481
7.340:475
7.340:478
7.340:495
7.341:515
7.341:521
7.356:521
7.356:519
7.360:521
7.360:527
7.360:526
7.360:525
7.361:521
7.361:518
7.361:514
7.361:507
7.361:503
7.364:504
7.364:499
7.365:499
7.365:498
7.365:492
7.365:496
7.366:489
7.366:477
7.366:469
7.366:478
7.369:494
7.369:507
7.369:531
7.369:542
7.370:539
7.370:535
7.370:533
7.370:527
7.370:518
7.389:510
7.389:509
7.389:511
7.389:512
7.390:502
7.390:495
7.390:486
7.390:483
7.393:483
7.393:486
7.393:490
7.393:486
7.393:495
7.394:494
7.394:501
7.394:515
7.394:513
7.394:505
7.396:498
7.398:496
7.398:497
7.398:507
7.398:511
7.398:504
7.398:496
7.398:494
7.399:498
7.401:504
7.401:512
7.401:518
7.417:518
7.417:522
7.418:519
7.418:513
7.418:508
7.418:510
7.418:504
7.422:504
7.422:510
7.422:511
7.423:508
7.423:502
7.423:500
7.423:499
7.423:503
7.424:501
7.424:489
7.426:487
7.426:484
7.426:494
7.426:496
7.427:488
7.427:487
7.427:490
7.427:490
7.427:494
7.430:500
7.430:504
7.431:511
7.431:521
7.446:514
7.446:503
7.446:487
7.447:473
7.450:471
7.450:470
7.451:467
7.451:464
7.451:458
7.451:455
7.452:460
7.452:466
7.452:465
7.452:462
7.454:466
7.454:466
7.454:466
7.454:459
7.454:460
7.454:451
7.454:450
7.454:460
7.455:463
7.458:466
7.458:459
7.458:451
7.458:448
7.459:456
7.459:462
7.459:472
7.474:472
7.474:469
7.475:471
7.479:471
7.479:478
7.479:480
7.480:485
7.480:490
7.481:488
7.481:487
7.481:487
7.482:486
7.482:487
7.484:493
7.484:494
7.484:489
7.484:482
7.484:470
7.484:463
7.484:456
7.484:467
7.484:482
7.487:493
7.487:504
7.487:519
7.487:527
7.488:538
7.488:543
7.488:540
7.488:534
7.508:532
7.508:537
7.508:539
7.508:537
7.509:528
7.509:515
7.509:503
7.509:496
7.509:500
7.512:503
7.512:507
7.512:510
7.512:512
7.513:526
7.513:528
7.513:525
7.513:526
7.514:536
7.514:534
7.516:533
7.516:531
7.516:533
7.516:537
7.517:534
7.517:528
7.517:528
7.517:525
7.517:515
7.518:510
7.519:508
7.536:508
7.536:510
7.536:503
7.536:504
7.536:512
7.537:520
7.537:525
7.537:526
7.537:533
7.540:537
7.540:536
7.540:533
7.540:530
7.541:527
7.541:523
7.541:522
7.541:519
7.541:513
7.545:508
7.545:510
7.545:513
7.545:519
7.545:519
7.545:516
7.546:519
7.546:524
7.546:527
7.546:533
7.548:544
7.548:548
7.564:550
7.564:541
7.564:519
7.564:511
7.565:515
7.569:521
7.569:529
7.569:529
7.569:517
7.570:514
7.570:511
7.570:509
7.570:511
7.570:518
7.571:527
7.572:532
7.572:535
7.574:535
7.574:541
7.574:538
7.574:533
7.574:507
7.575:512
7.575:525
7.577:523
7.577:520
7.577:509
7.577:509
7.578:508
7.578:511
7.593:511
7.593:513
7.594:524
7.594:537
7.594:538
7.597:545
7.597:556
7.598:565
7.598:561
7.598:547
7.599:533
7.599:517
7.599:500
7.599:475
7.602:457
7.602:441
7.602:413
7.602:381
7.603:352
7.603:317
7.603:279
7.603:234
7.603:199
7.604:156
7.605:108
7.605:58
7.605:17
7.605:17
7.605:17
7.606:17
7.621:17
7.621:18
7.626:18
7.626:18
7.626:19
7.626:19
7.627:19
7.627:19
7.627:19
7.627:19
7.627:19
7.627:18
7.627:18
7.628:18
7.630:17
7.630:23
7.630:119
7.631:219
7.631:318
7.631:445
7.632:569
7.632:657
7.632:708
7.632:746
7.634:747
7.634:730
7.634:716
7.634:686
7.635:658
7.635:641
7.655:641
7.655:628
7.655:609
7.656:615
7.656:617
7.656:621
7.656:624
7.656:615
7.657:600
7.657:594
7.659:601
7.659:611
7.659:613
7.659:609
7.660:600
7.660:593
7.660:593
7.660:595
7.660:596
7.661:603
7.664:607
7.664:611
7.664:613
7.665:616
7.665:614
7.665:611
7.665:606
7.665:612
7.666:623
7.667:617
7.684:625
7.684:634
7.684:639
7.684:634
7.684:621
7.684:613
7.684:592
7.688:582
7.688:591
7.688:593
7.688:585
7.689:578
7.689:575
7.689:578
7.689:583
7.689:588
7.692:586
7.692:587
7.692:588
7.692:593
7.692:602
7.692:602
7.694:598
7.694:590
7.694:585
7.694:577
7.696:571
7.696:569
7.696:564
7.696:568
7.712:568
7.712:562
7.713:551
7.713:542
7.713:540
7.714:541
7.717:545
7.717:549
7.717:551
7.717:555
7.718:559
7.718:565
7.718:561
7.718:554
7.718:553
7.721:547
7.721:539
7.721:536
7.721:527
7.722:521
7.722:521
7.722:515
7.722:515
7.722:508
7.723:519
7.724:527
7.724:534
7.725:532
7.725:528
7.725:529
7.740:532
7.741:541
7.741:549
7.745:542
7.745:531
7.745:529
7.745:532
7.745:535
7.745:531
7.746:524
7.746:522
7.746:515
7.749:514
7.749:517
7.749:514
7.749:505
7.750:497
7.750:504
7.750:511
7.750:504
7.750:498
7.751:526
7.752:532
7.754:532
7.754:524
7.754:519
7.754:510
7.754:506
7.754:500
7.754:493
7.769:493
7.769:493
7.774:486
7.774:485
7.774:488
7.775:490
7.775:487
7.775:480
7.775:473
7.775:473
7.775:482
7.778:485
7.778:487
7.778:485
7.778:485
7.779:485
7.779:487
7.779:482
7.779:470
7.780:461
7.780:456
7.782:454
7.782:442
7.782:438
7.782:437
7.782:436
7.782:437
7.783:437
7.783:439
7.783:441
7.802:440
7.802:439
7.802:438
7.802:442
7.802:443
7.803:441
7.803:437
7.803:435
7.807:428
7.807:423
7.807:422
7.807:426
7.808:425
7.808:412
7.808:408
7.808:406
7.808:404
7.809:410
7.811:416
7.811:417
7.811:422
7.811:425
7.811:433
7.812:435
7.812:434
7.812:437
7.812:433
7.814:421
7.814:419
7.814:414
7.831:414
7.831:406
7.831:408
7.831:408
7.831:409
7.831:405
7.831:406
7.835:402
7.835:405
7.835:405
7.835:407
7.835:413
7.835:416
7.835:422
7.835:435
7.835:435
7.835:424
7.839:423
7.839:426
7.839:432
7.839:443
7.840:446
7.840:450
7.840:453
7.840:447
7.840:443
7.843:447
7.844:452
7.844:459
7.844:464
7.859:470
7.859:480
7.859:486
7.859:495
7.864:502
7.865:511
7.865:521
7.865:522
7.865:508
7.865:506
7.865:517
7.865:517
7.865:513
7.865:519
7.867:530
7.867:538
7.867:544
7.868:542
7.868:538
7.869:545
7.869:554
7.869:568
7.869:575
7.872:579
7.872:585
7.872:587
7.872:585
7.872:589
7.872:597
7.874:596
7.888:596
7.888:590
7.889:585
7.893:584
7.893:576
7.893:565
7.894:577
7.894:584
7.894:589
7.894:590
7.894:593
7.895:587
7.895:591
7.897:593
7.897:604
7.897:618
7.898:617
7.898:610
7.898:615
7.898:617
7.898:624
7.898:623
7.901:612
7.901:604
7.901:600
7.901:586
7.902:577
7.902:574
7.902:579
7.902:587
7.921:591
7.921:592
7.921:593
7.921:596
7.922:600
7.922:609
7.922:611
7.922:595
7.922:594
7.925:592
7.925:586
7.926:589
7.926:588
7.926:583
7.926:587
7.926:588
7.927:587
7.927:586
7.927:589
7.929:590
7.929:583
7.930:577
7.930:576
7.930:578
7.930:589
7.931:601
7.931:601
7.931:604
7.931:594
7.932:575
7.950:575
7.950:575
7.950:585
7.950:582
7.951:571
7.951:556
7.951:542
7.951:546
7.951:555
7.954:560
7.954:558
7.954:562
7.954:563
7.954:569
7.955:578
7.955:579
7.955:579
7.955:580
7.958:584
7.958:581
7.958:570
7.958:556
7.959:550
7.959:556
7.959:563
7.959:563
7.959:559
7.960:553
7.962:553
7.962:558
7.978:556
7.978:552
7.979:551
7.979:553
7.979:551
7.982:549
7.983:557
7.983:555
7.983:552
7.984:551
7.984:548
7.984:542
7.984:534
7.984:528
7.984:526
7.987:530
7.987:522
7.987:521
7.987:520
7.988:525
7.988:525
7.988:525
7.988:528
7.988:533
7.991:544
7.991:548
7.991:546
7.991:540
7.992:545
7.992:549
8.007:549
8.007:545
8.007:538
8.007:535
8.011:529
8.011:523
8.011:521
8.011:509
8.012:509
8.012:506
8.012:510
8.012:507
8.014:511
8.014:532
8.015:543
8.016:538
8.016:539
8.016:546
8.016:542
8.016:535
8.017:532
8.017:535
8.017:541
8.017:535
8.019:534
8.019:527
8.020:509
8.020:491
8.020:498
8.020:502
8.035:507
8.040:508
8.040:508
8.040:509
8.040:519
8.040:529
8.042:533
8.042:531
8.042:524
8.042:520
8.042:514
8.044:505
8.044:497
8.044:502
8.045:516
8.045:517
8.045:510
8.045:496
8.045:497
8.046:491
8.048:501
8.048:510
8.048:514
8.048:517
8.049:518
8.049:508
8.049:507
8.049:529
8.049:538
8.050:529
8.069:529
8.069:514
8.069:500
8.069:496
8.069:502
8.070:507
8.070:501
8.070:490
8.070:474
8.070:470
8.073:474
8.073:487
8.073:491
8.074:483
8.074:479
8.074:483
8.074:497
8.074:507
8.075:509
8.077:516
8.077:524
8.077:523
8.077:525
8.078:520
8.078:517
8.078:518
8.078:513
8.078:508
8.078:497
8.080:487
8.097:495
8.097:496
8.097:497
8.097:502
8.097:503
8.097:502
8.097:508
8.102:520
8.102:525
8.102:526
8.102:523
8.103:513
8.103:505
8.103:499
8.103:500
8.103:503
8.105:505
8.105:499
8.105:488
8.105:492
8.106:496
8.106:507
8.106:519
8.106:514
8.106:513
8.106:511
8.109:504
8.109:503
8.109:507
8.110:507
8.125:507
8.125:511
8.126:510
8.126:512
8.126:508
8.126:508
8.129:508
8.131:507
8.131:499
8.131:490
8.131:488
8.131:487
8.132:496
8.132:494
8.132:489
8.134:491
8.134:499
8.134:506
8.134:510
8.135:516
8.135:521
8.135:513
8.135:503
8.135:501
8.136:507
8.138:517
8.138:519
8.138:513
8.138:500
8.139:480
8.154:476
8.154:481
8.154:490
8.158:495
8.158:500
8.158:494
8.158:509
8.159:522
8.159:519
8.159:521
8.159:521
8.159:520
8.164:513
8.164:505
8.165:498
8.165:491
8.165:484
8.165:484
8.166:490
8.166:491
8.166:495
8.166:492
8.167:493
8.167:494
8.167:501
8.167:506
8.168:513
8.168:521
8.168:526
8.168:527
8.182:527
8.182:517
8.187:508
8.188:511
8.188:507
8.188:505
8.188:506
8.188:504
8.189:502
8.189:503
8.189:498
8.192:493
8.192:493
8.192:501
8.192:500
8.193:501
8.193:500
8.193:501
8.193:498
8.193:497
8.194:504
8.195:504
8.195:502
8.196:502
8.196:507
8.197:511
8.197:511
8.197:510
8.197:513
8.197:503
8.215:489
8.215:480
8.216:480
8.216:488
8.216:486
8.216:477
8.216:478
8.216:485
8.220:490
8.220:504
8.220:523
8.220:518
8.221:509
8.221:502
8.221:502
8.221:501
8.221:499
8.222:492
8.224:494
8.224:492
8.225:485
8.225:469
8.225:469
8.225:484
8.225:489
8.225:493
8.226:489
8.228:489
8.228:484
8.228:484
8.244:484
8.244:483
8.244:482
8.245:482
8.245:487
8.245:484
8.245:474
8.249:466
8.249:457
8.249:447
8.249:444
8.250:440
8.250:439
8.250:440
8.250:447
8.250:458
8.251:461
8.253:463
8.253:466
8.253:472
8.253:473
8.253:479
8.253:483
8.254:480
8.254:477
8.254:467
8.256:464
8.256:467
8.256:465
8.256:462
8.273:459
8.273:454
8.273:449
8.274:445
8.278:445
8.278:456
8.278:466
8.278:477
8.279:482
8.279:488
8.279:490
8.279:491
8.280:493
8.280:498
8.281:505
8.281:504
8.281:500
8.282:505
8.282:510
8.282:515
8.282:519
8.282:508
8.282:507
8.286:505
8.286:505
8.286:517
8.286:520
8.286:513
8.287:512
8.287:515
8.302:515
8.302:518
8.302:524
8.306:530
8.306:529
8.306:530
8.306:532
8.307:524
8.307:520
8.307:519
8.307:514
8.307:510
8.308:508
8.310:503
8.310:506
8.310:507
8.310:526
8.310:537
8.311:532
8.311:526
8.311:525
8.311:526
8.313:525
8.313:525
8.314:525
8.314:527
8.314:534
8.314:539
8.314:539
8.314:527
8.335:514
8.335:508
8.335:505
8.335:502
8.335:509
8.336:516
8.336:523
8.336:519
8.336:514
8.339:516
8.339:513
8.339:509
8.339:520
8.340:532
8.340:532
8.340:537
8.340:536
8.340:531
8.341:524
8.343:520
8.344:513
8.344:509
8.344:510
8.344:509
8.344:507
8.345:503
8.345:504
8.345:512
8.346:509
8.346:511
8.362:511
8.364:527
8.364:535
8.364:536
8.365:540
8.365:535
8.365:525
8.365:518
8.365:518
8.367:527
8.368:534
8.368:523
8.368:521
8.368:519
8.368:513
8.369:511
8.369:508
8.369:512
8.372:515
8.372:514
8.372:506
8.372:505
8.373:510
8.373:520
8.373:535
8.373:536
8.373:533
8.374:538
8.375:541
8.375:541
8.392:531
8.392:525
8.392:535
8.392:541
8.392:544
8.396:552
8.397:550
8.397:541
8.397:532
8.397:512
8.398:507
8.398:501
8.398:470
8.398:445
8.398:434
8.400:425
8.400:403
8.400:370
8.400:327
8.401:295
8.401:245
8.401:184
8.401:132
8.401:82
8.402:27
8.404:17
8.404:17
8.404:17
8.405:17
8.405:18
8.420:18
8.420:18
8.420:18
8.420:19
8.421:19
8.421:19
8.425:20
8.425:19
8.425:19
8.425:19
8.426:19
8.426:19
8.426:18
8.426:18
8.426:17
8.426:17
8.427:72
8.429:177
8.429:276
8.429:399
8.430:529
8.430:621
8.430:689
8.430:722
8.431:736
8.431:739
8.431:714
8.433:684
8.433:658
8.434:644
8.448:634
8.454:622
8.454:615
8.454:616
8.454:614
8.455:604
8.455:594
8.455:591
8.455:590
8.455:586
8.456:591
8.457:597
8.457:606
8.457:611
8.457:607
8.458:615
8.458:620
8.458:625
8.458:628
8.458:632
8.462:629
8.462:626
8.463:621
8.463:619
8.464:616
8.464:602
8.464:596
8.464:606
8.464:620
8.464:628
8.482:628
8.482:637
8.482:633
8.482:622
8.483:607
8.483:608
8.483:624
8.484:622
8.484:615
8.484:605
8.486:610
8.486:615
8.486:615
8.487:610
8.487:602
8.487:596
8.487:584
8.487:573
8.487:567
8.490:575
8.490:584
8.491:585
8.491:583
8.491:582
8.491:582
8.491:575
8.492:577
8.492:589
8.492:592
8.494:581
8.511:576
8.511:581
8.511:582
8.511:578
8.511:574
8.511:566
8.512:555
8.515:548
8.515:552
8.515:557
8.515:554
8.515:550
8.515:546
8.516:549
8.516:556
8.516:547
8.519:550
8.519:557
8.519:557
8.519:550
8.520:559
8.520:565
8.520:553
8.520:543
8.520:530
8.521:533
8.523:533
8.523:530
8.523:523
8.523:516
8.539:516
8.539:509
8.539:518
8.539:529
8.539:527
8.540:521
8.544:522
8.544:532
8.544:535
8.545:537
8.545:529
8.545:529
8.545:527
8.545:519
8.545:514
8.548:519
8.548:523
8.548:516
8.548:506
8.549:491
8.549:492
8.549:495
8.549:500
8.549:501
8.549:498
8.552:497
8.552:494
8.552:495
8.553:501
8.553:505
8.568:496
8.568:497
8.568:501
8.572:502
8.572:503
8.572:500
8.572:495
8.572:486
8.572:480
8.572:480
8.572:483
8.574:477
8.576:484
8.576:491
8.576:489
8.576:491
8.577:492
8.577:490
8.577:489
8.577:485
8.577:474
8.578:471
8.580:464
8.580:465
8.580:460
8.581:454
8.581:452
8.581:451
8.581:456
8.581:458
8.596:458
8.597:433
8.601:430
8.601:434
8.601:435
8.601:448
8.602:447
8.602:443
8.602:453
8.602:452
8.602:453
8.605:442
8.605:438
8.605:439
8.605:442
8.606:430
8.606:417
8.606:405
8.606:390
8.606:388
8.606:391
8.609:395
8.609:394
8.609:398
8.609:399
8.610:401
8.610:406
8.610:407
8.610:419
8.610:432
8.630:432
8.630:421
8.630:419
8.630:419
8.631:417
8.631:410
8.631:408
8.631:407
8.634:405
8.634:409
8.634:409
8.634:415
8.635:412
8.635:410
8.635:413
8.635:421
8.635:429
8.636:436
8.638:439
8.638:441
8.638:442
8.638:443
8.638:445
8.639:444
8.639:441
8.639:439
8.639:440
8.642:443
8.642:449
8.642:457
8.657:457
8.658:447
8.658:441
8.658:448
8.658:460
8.658:480
8.659:501
8.662:507
8.663:499
8.663:506
8.663:521
8.663:527
8.663:528
8.665:528
8.665:533
8.665:539
8.665:544
8.667:547
8.667:552
8.667:559
8.667:563
8.667:562
8.668:547
8.668:547
8.668:553
8.668:541
8.670:543
8.670:549
8.670:563
8.670:591
8.686:605
8.686:608
8.686:595
8.687:583
8.691:588
8.691:580
8.691:588
8.691:596
8.692:592
8.692:582
8.692:581
8.692:582
8.692:588
8.695:594
8.695:596
8.695:600
8.695:606
8.696:611
8.696:617
8.696:616
8.696:611
8.696:610
8.696:605
8.699:606
8.699:609
8.699:605
8.699:601
8.700:601
8.700:603
8.700:586
8.715:586
8.715:572
8.715:565
8.720:565
8.720:565
8.720:572
8.720:588
8.721:599
8.721:600
8.721:593
8.721:594
8.721:601
8.722:604
8.724:597
8.724:594
8.724:598
8.724:599
8.724:592
8.724:583
8.724:573
8.725:564
8.725:562
8.728:560
8.728:558
8.728:561
8.728:567
8.729:566
8.729:568
8.730:572
8.730:577
8.748:581
8.749:582
8.749:580
8.749:580
8.749:572
8.750:562
8.750:562
8.750:561
8.750:555
8.752:558
8.752:556
8.753:554
8.753:552
8.753:555
8.754:561
8.754:556
8.754:551
8.754:549
8.754:554
8.756:555
8.756:564
8.757:569
8.757:560
8.757:560
8.757:570
8.758:578
8.758:578
8.758:569
8.759:560
8.760:555
8.777:555
8.777:550
8.777:539
8.778:538
8.778:550
8.778:542
8.778:537
8.778:529
8.781:529
8.781:538
8.781:544
8.781:550
8.782:547
8.782:544
8.782:542
8.782:547
8.782:549
8.782:552
8.785:552
8.785:547
8.786:539
8.786:535
8.786:523
8.786:516
8.786:510
8.787:510
8.787:517
8.787:529
8.789:535
8.789:546
8.805:546
8.805:536
8.805:535
8.806:531
8.806:528
8.810:528
8.810:527
8.810:523
8.810:522
8.811:517
8.811:516
8.811:517
8.811:511
8.811:508
8.812:510
8.814:515
8.814:520
8.814:517
8.814:517
8.814:519
8.814:520
8.814:525
8.814:525
8.815:516
8.818:515
8.818:518
8.818:525
8.818:519
8.819:513
8.819:506
8.834:506
8.834:507
8.834:511
8.834:506
8.838:503
8.838:496
8.838:494
8.838:500
8.839:506
8.839:513
8.839:525
8.839:529
8.839:532
8.839:536
8.843:539
8.843:538
8.843:529
8.844:519
8.844:518
8.844:516
8.844:501
8.844:495
8.844:499
8.846:493
8.846:498
8.846:504
8.846:508
8.846:504
8.847:496
8.847:496
8.862:506
8.867:510
8.867:511
8.867:521
8.867:522
8.867:521
8.868:517
8.868:515
8.868:503
8.868:498
8.868:501
8.870:506
8.871:512
8.871:508
8.871:505
8.871:494
8.871:490
8.871:494
8.872:500
8.872:496
8.875:496
8.875:496
8.875:497
8.876:509
8.876:508
8.876:513
8.876:515
8.877:513
8.877:496
8.877:488
8.896:488
8.896:492
8.897:498
8.897:500
8.897:487
8.897:491
8.898:493
8.898:489
8.898:495
8.898:499
8.900:496
8.900:493
8.901:489
8.901:491
8.901:504
8.901:508
8.901:512
8.902:506
8.902:503
8.904:509
8.904:512
8.904:506
8.904:498
8.904:502
8.905:506
8.905:501
8.905:489
8.905:499
8.905:503
8.908:494
8.924:495
8.924:499
8.924:505
8.924:505
8.925:513
8.925:515
8.925:517
8.928:519
8.928:525
8.929:522
8.929:515
8.929:510
8.930:499
8.930:488
8.930:479
8.930:481
8.933:474
8.933:480
8.933:479
8.933:479
8.933:481
8.933:493
8.933:506
8.933:509
8.935:510
8.935:512
8.937:516
8.937:515
8.937:525
8.937:534
8.952:534
8.952:530
8.952:522
8.952:512
8.952:504
8.954:491
8.957:491
8.957:486
8.957:493
8.957:498
8.958:507
8.958:514
8.958:518
8.958:520
8.958:514
8.961:517
8.962:520
8.962:523
8.963:521
8.964:526
8.964:525
8.964:515
8.964:504
8.964:499
8.964:496
8.965:472
8.965:471
8.965:482
8.965:485
8.966:495
8.981:494
8.982:484
8.985:484
8.985:488
8.985:495
8.986:512
8.986:512
8.986:513
8.986:500
8.986:501
8.987:504
8.987:491
8.990:489
8.990:491
8.990:489
8.990:487
8.991:486
8.991:486
8.991:493
8.991:499
8.991:507
8.992:511
8.994:520
8.994:516
8.994:505
8.994:504
8.994:503
8.994:503
8.995:497
8.995:501
9.009:501
9.010:516
9.015:513
9.015:497
9.015:483
9.015:471
9.015:469
9.015:489
9.015:488
9.015:489
9.016:492
9.019:494
9.019:493
9.019:496
9.019:496
9.020:505
9.020:513
9.020:511
9.020:509
9.020:506
9.021:511
9.023:512
9.023:508
9.024:508
9.024:508
9.024:505
9.024:494
9.024:493
9.024:493
9.025:498
9.042:501
9.042:503
9.042:503
9.044:505
9.044:510
9.044:513
9.044:518
9.044:511
9.047:499
9.047:494
9.047:500
9.048:503
9.048:510
9.048:513
9.048:507
9.049:501
9.049:489
9.051:482
9.051:478
9.051:482
9.051:486
9.052:488
9.052:488
9.052:492
9.052:492
9.052:492
9.052:499
9.055:501
9.055:500
9.056:504
9.071:504
9.071:507
9.071:504
9.071:499
9.072:492
9.072:485
9.072:480
9.076:473
9.076:478
9.076:478
9.076:483
9.077:488
9.077:496
9.077:491
9.077:489
9.077:497
9.078:487
9.080:477
9.080:474
9.080:479
9.080:478
9.081:472
9.081:467
9.081:462
9.081:459
9.081:461
9.084:459
9.084:448
9.084:441
9.085:435
9.100:432
9.100:432
9.100:437
9.100:452
9.105:472
9.105:478
9.105:470
9.105:466
9.106:471
9.106:476
9.106:468
9.106:463
9.106:453
9.109:435
9.109:429
9.109:448
9.109:458
9.109:464
9.110:470
9.110:471
9.110:474
9.110:465
9.110:460
9.113:459
9.113:460
9.113:463
9.114:465
9.114:474
9.114:478
9.114:483
9.129:483
9.129:487
9.129:490
9.133:483
9.133:482
9.133:484
9.133:492
9.133:497
9.134:495
9.134:498
9.134:499
9.134:501
9.137:506
9.137:518
9.137:520
9.137:519
9.138:519
9.138:519
9.138:521
9.138:515
9.138:520
9.139:525
9.141:531
9.141:533
9.141:532
9.141:523
9.142:513
9.142:515
9.142:512
9.142:503
9.162:494
9.163:494
9.163:502
9.164:508
9.164:511
9.164:514
9.164:518
9.164:522
9.164:529
9.166:534
9.166:532
9.166:529
9.166:532
9.167:535
9.167:536
9.167:533
9.167:523
9.167:508
9.167:504
9.170:499
9.170:499
9.170:499
9.170:505
9.171:510
9.171:505
9.171:502
9.171:503
9.171:516
9.174:525
9.174:531
9.190:531
9.191:530
9.191:530
9.191:528
9.191:524
9.191:525
9.191:523
9.192:523
9.195:521
9.196:512
9.196:511
9.196:506
9.196:495
9.197:491
9.197:505
9.197:513
9.197:527
9.197:531
9.199:528
9.199:527
9.199:530
9.199:534
9.200:531
9.200:531
9.200:536
9.200:532
9.200:522
9.201:512
9.203:507
9.203:501
9.219:497
9.219:501
9.219:497
9.220:492
9.220:503
9.224:502
9.224:504
9.224:512
9.224:522
9.225:527
9.225:524
9.225:523
9.225:524
9.225:525
9.225:523
9.227:517
9.227:513
9.227:512
9.228:515
9.228:516
9.228:518
9.228:519
9.229:523
9.229:530
9.231:531
9.231:532
9.231:542
9.231:554
9.232:563
9.232:567
9.248:567
9.248:557
9.248:540
9.248:524
9.252:506
9.252:482
9.252:459
9.252:440
9.253:425
9.253:403
9.253:381
9.253:353
9.253:322
9.253:271
9.256:216
9.256:167
9.256:119
9.256:69
9.257:29
9.257:17
9.257:17
9.257:17
9.257:18
9.257:18
9.258:18
9.260:19
9.260:19
9.260:19
9.260:19
9.261:19
9.276:19
9.276:19
9.280:19
9.280:19
9.280:19
9.280:18
9.281:18
9.281:17
9.281:17
9.281:108
9.281:213
9.282:311
9.282:437
9.285:551
9.285:635
9.285:697
9.285:723
9.285:720
9.285:697
9.286:663
9.286:634
9.286:626
9.289:618
9.289:615
9.289:622
9.289:632
9.290:630
9.290:618
9.290:611
9.290:606
9.309:606
9.309:607
9.309:617
9.309:625
9.310:628
9.310:631
9.310:628
9.310:617
9.310:606
9.311:598
9.312:594
9.312:592
9.312:586
9.314:588
9.314:598
9.314:609
9.314:610
9.314:610
9.315:612
9.318:617
9.318:624
9.318:624
9.318:629
9.319:635
9.319:638
9.319:632
9.319:625
9.319:609
9.320:602
9.321:607
9.338:613
9.338:615
9.338:604
9.338:596
9.338:588
9.339:586
9.339:594
9.342:591
9.342:595
9.342:606
9.342:609
9.343:605
9.343:603
9.343:602
9.343:598
9.343:593
9.346:590
9.346:589
9.346:581
9.346:576
9.346:575
9.346:568
9.347:560
9.347:557
9.347:547
9.347:545
9.349:549
9.350:555
9.350:556
9.350:565
9.366:565
9.366:566
9.367:568
9.367:572
9.367:566
9.367:560
9.370:559
9.370:563
9.370:561
9.370:559
9.371:550
9.371:549
9.371:540
9.371:525
9.371:522
9.375:523
9.375:529
9.375:535
9.376:536
9.376:541
9.376:541
9.376:546
9.376:550
9.377:559
9.377:553
9.379:548
9.379:538
9.379:534
9.379:531
9.380:530
9.395:534
9.395:540
9.399:534
9.399:516
9.399:509
9.399:513
9.400:516
9.400:511
9.400:503
9.400:499
9.400:503
9.401:511
9.404:515
9.404:515
9.404:512
9.405:515
9.405:518
9.405:521
9.405:519
9.405:511
9.406:505
9.406:499
9.407:492
9.408:487
9.408:490
9.408:494
9.408:492
9.408:490
9.409:491
9.409:496
9.424:496
9.424:497
9.428:495
9.428:500
9.428:509
9.429:505
9.429:503
9.429:499
9.429:495
9.429:491
9.430:482
9.432:479
9.432:478
9.432:475
9.432:460
9.432:455
9.432:459
9.433:459
9.433:455
9.433:457
9.433:458
9.436:462
9.436:464
9.437:453
9.437:453
9.437:450
9.437:452
9.437:452
9.438:454
9.438:448
9.456:443
9.456:433
9.456:421
9.456:422
9.457:427
9.457:437
9.457:433
9.457:435
9.461:437
9.461:443
9.462:446
9.462:435
9.463:425
9.463:418
9.463:411
9.463:416
9.463:420
9.465:415
9.465:424
9.465:424
9.465:414
9.466:407
9.466:400
9.466:401
9.466:409
9.466:410
9.467:405
9.469:409
9.469:411
9.469:408
9.485:408
9.485:401
9.485:403
9.486:410
9.486:411
9.486:414
9.486:415
9.490:422
9.490:432
9.490:442
9.490:447
9.491:447
9.491:437
9.491:431
9.491:441
9.491:450
9.492:453
9.494:450
9.494:447
9.494:442
9.494:445
9.494:451
9.494:464
9.495:469
9.495:474
9.495:484
9.498:487
9.498:484
9.498:481
9.498:485
9.514:489
9.514:490
9.514:495
9.515:502
9.518:508
9.518:504
9.518:499
9.518:505
9.519:514
9.519:516
9.519:521
9.519:525
9.519:533
9.522:544
9.522:552
9.522:563
9.522:565
9.522:565
9.523:569
9.523:577
9.523:576
9.523:576
9.523:569
9.526:565
9.526:570
9.526:569
9.526:574
9.527:580
9.527:584
9.527:573
9.542:573
9.542:571
9.542:571
9.547:575
9.547:579
9.547:584
9.547:587
9.548:600
9.548:609
9.548:604
9.548:610
9.549:613
9.551:612
9.551:607
9.551:598
9.551:596
9.552:598
9.552:598
9.552:586
9.552:573
9.552:573
9.553:577
9.555:579
9.555:586
9.555:597
9.555:604
9.555:600
9.555:598
9.555:600
9.555:595
9.575:594
9.575:588
