0.000:337
0.000:368
0.002:354
0.002:285
0.002:303
0.002:384
0.002:510
0.002:555
0.002:387
0.003:314
0.003:320
0.003:385
0.003:566
0.004:661
0.004:693
0.004:631
0.004:613
0.004:668
0.005:724
0.005:694
0.005:569
0.006:474
0.006:502
0.006:540
0.006:559
0.006:584
0.006:563
0.006:515
0.006:531
0.007:559
0.007:559
0.007:553
0.007:518
0.007:549
0.007:646
0.007:667
0.007:541
0.008:377
0.008:365
0.008:508
0.008:688
0.008:711
0.008:696
0.008:702
0.008:709
0.008:748
0.008:761
0.008:731
0.009:689
0.009:624
0.009:630
0.009:633
0.009:558
0.009:510
0.009:514
0.009:558
0.009:592
0.009:581
0.009:535
0.009:478
0.010:482
0.010:476
0.010:472
0.010:556
0.010:716
0.010:809
0.010:750
0.010:672
0.010:546
0.010:534
0.010:608
0.010:694
0.011:719
0.011:689
0.011:681
0.011:728
0.011:731
0.011:694
0.011:642
0.011:617
0.011:614
0.011:627
0.011:622
0.011:609
0.011:625
0.011:651
0.012:641
0.012:610
0.012:613
0.012:614
0.012:614
0.012:566
0.012:517
0.012:538
0.012:575
0.012:565
0.012:549
0.012:525
0.012:502
0.012:513
0.012:531
0.012:537
0.012:507
0.012:512
0.012:537
0.012:587
0.012:597
0.014:614
0.014:624
0.014:627
0.014:613
0.014:631
0.014:623
0.014:590
0.014:508
0.014:417
0.014:324
0.014:247
0.014:188
0.015:203
0.015:413
0.015:607
0.015:690
0.015:736
0.015:723
0.015:725
0.015:704
0.015:672
0.015:611
0.015:577
0.015:577
0.015:555
0.015:550
0.015:575
0.015:616
0.015:655
0.015:668
0.016:671
0.016:619
0.016:589
0.017:591
0.018:610
0.019:590
0.019:553
0.019:507
0.019:468
0.020:451
0.020:466
0.020:480
0.020:479
0.020:479
0.020:469
0.020:454
0.022:435
0.022:415
0.022:428
0.022:483
0.022:565
0.022:617
0.022:619
0.022:627
0.022:626
0.022:588
0.023:573
0.023:596
0.023:576
0.023:553
0.023:537
0.023:517
0.023:500
0.023:499
0.023:523
0.023:533
0.023:519
0.023:512
0.025:481
0.025:464
0.025:450
0.025:408
0.025:375
0.025:355
0.025:334
0.025:313
0.025:379
0.025:472
0.026:499
0.026:499
0.026:494
0.026:544
0.026:615
0.026:646
0.026:646
0.026:599
0.026:515
0.027:409
0.027:277
0.027:212
0.027:250
0.027:339
0.027:482
0.027:629
0.027:706
0.027:725
0.028:746
0.028:736
0.028:665
0.028:620
0.028:598
0.028:604
0.028:617
0.028:617
0.028:610
0.028:578
0.028:546
0.029:530
0.029:518
0.029:536
0.029:547
0.029:570
0.029:604
0.029:598
0.029:583
0.029:563
0.030:562
0.030:563
0.030:531
0.030:465
0.030:456
0.030:475
0.030:492
0.031:504
0.031:515
0.031:508
0.031:490
0.031:490
0.031:491
0.031:462
0.031:430
0.031:446
0.031:461
0.031:450
0.031:486
0.032:526
0.032:549
0.032:554
0.032:528
0.032:497
0.032:495
0.032:516
0.032:532
0.032:549
0.032:559
0.032:564
0.032:580
0.033:592
0.035:596
0.035:596
0.035:596
0.035:601
0.036:591
0.036:554
0.036:533
0.036:504
0.037:482
0.037:460
0.037:437
0.037:442
0.037:462
0.037:463
0.038:483
0.038:483
0.038:481
0.038:476
0.038:489
0.038:497
0.038:486
0.038:476
0.039:472
0.039:460
0.039:450
0.039:462
0.039:508
0.039:543
0.039:547
0.039:541
0.039:525
0.039:500
0.039:482
0.039:482
0.040:476
0.040:466
0.040:482
0.040:522
0.040:563
0.040:582
0.040:581
0.040:552
0.040:531
0.040:517
0.040:488
0.040:480
0.040:495
0.040:474
0.040:415
0.040:367
0.042:328
0.042:324
0.042:342
0.042:355
0.042:358
0.042:374
0.042:433
0.042:507
0.042:547
0.042:554
0.042:561
0.042:545
0.042:541
0.043:556
0.043:540
0.043:508
0.043:491
0.043:495
0.043:505
0.043:514
0.043:507
0.043:503
0.043:515
0.043:537
0.043:549
0.043:549
0.043:515
0.043:476
0.043:428
0.044:387
0.044:384
0.044:386
0.044:411
0.044:466
0.044:534
0.044:562
0.044:562
0.044:547
0.044:541
0.044:555
0.044:551
0.044:534
0.044:537
0.045:521
0.045:478
0.045:465
0.045:475
0.045:496
0.045:524
0.045:532
0.045:518
0.045:501
0.045:505
0.045:495
0.045:485
0.045:490
0.045:495
0.046:491
0.046:483
0.046:467
0.046:442
0.046:436
0.046:474
0.046:517
0.046:540
0.046:578
0.046:610
0.046:634
0.046:610
0.046:566
0.047:554
0.047:553
0.047:545
0.047:549
0.047:580
0.047:614
0.047:629
0.047:617
0.047:575
0.047:529
0.047:500
0.047:496
0.047:519
0.047:563
0.048:580
0.048:580
0.048:564
0.048:538
0.048:526
0.048:490
0.048:477
0.048:480
0.048:476
0.048:484
0.048:535
0.048:592
0.048:614
0.048:588
0.048:542
0.049:508
0.049:483
0.049:487
0.049:494
0.049:477
0.049:452
0.049:426
0.049:399
0.049:364
0.050:346
0.050:320
0.050:298
0.050:329
0.050:436
0.052:554
0.052:624
0.052:605
0.053:590
0.053:588
0.053:575
0.053:561
0.053:548
0.054:512
0.054:483
0.054:476
0.054:483
0.055:465
0.055:419
0.055:393
0.055:428
0.055:510
0.055:591
0.055:666
0.055:705
0.056:693
0.056:661
0.056:626
0.056:613
0.056:636
0.056:646
0.056:653
0.056:660
0.056:658
0.056:654
0.056:611
0.056:562
0.056:562
0.056:525
0.056:482
0.056:434
0.057:400
0.057:381
0.057:346
0.057:289
0.057:213
0.057:143
0.057:63
0.057:18
0.057:17
0.057:17
0.057:17
0.057:17
0.057:17
0.057:18
0.057:18
0.057:18
0.057:18
0.057:18
0.057:19
0.057:19
0.057:19
0.057:19
0.058:19
0.058:19
0.058:19
0.058:19
0.058:19
0.058:18
0.058:18
0.058:17
0.058:17
0.058:30
0.058:152
0.058:275
0.058:397
0.058:499
0.058:548
0.058:610
0.058:707
0.058:805
0.058:842
0.058:795
0.058:709
0.058:625
0.059:533
0.059:503
0.059:515
0.059:537
0.059:579
0.059:586
0.059:563
0.059:570
0.059:602
0.059:621
0.059:634
0.059:631
0.059:631
0.059:625
0.059:618
0.059:606
0.059:616
0.059:617
0.059:611
0.060:617
0.060:608
0.060:617
0.060:618
0.060:560
0.060:510
0.060:504
0.060:508
0.060:534
0.060:552
0.060:559
0.060:584
0.060:607
0.060:610
0.060:602
0.060:589
0.060:611
0.060:653
0.060:677
0.060:668
0.061:667
0.061:678
0.061:672
0.061:651
0.061:628
0.061:608
0.061:586
0.061:583
0.061:604
0.061:594
0.061:603
0.061:604
0.061:592
0.061:567
0.061:537
0.061:530
0.061:529
0.061:542
0.061:571
0.061:590
0.061:617
0.062:647
0.062:647
0.062:642
0.062:616
0.062:590
0.062:573
0.062:548
0.062:526
0.062:509
0.062:503
0.062:527
0.062:591
0.062:591
0.062:608
0.062:616
0.062:615
0.062:628
0.062:656
0.062:666
0.062:647
0.062:601
0.062:561
0.062:534
0.062:491
0.062:460
0.063:433
0.063:414
0.063:414
0.063:428
0.063:460
0.063:500
0.063:533
0.063:548
0.063:533
0.063:530
0.063:524
0.063:486
0.063:467
0.063:436
0.063:407
0.063:409
0.064:435
0.064:466
0.064:503
0.064:519
0.064:526
0.064:530
0.064:509
0.064:502
0.064:525
0.064:556
0.064:581
0.064:583
0.064:576
0.064:588
0.064:583
0.066:568
0.066:542
0.066:528
0.066:524
0.066:532
0.066:525
0.066:534
0.066:534
0.066:512
0.066:495
0.066:497
0.066:516
0.066:523
0.066:521
0.066:509
0.066:523
0.067:523
0.067:548
0.067:557
0.067:539
0.067:512
0.067:517
0.068:520
0.068:518
0.068:528
0.068:535
0.069:556
0.069:552
0.069:535
0.069:528
0.069:516
0.069:497
0.070:467
0.070:451
0.070:448
0.070:448
0.070:398
0.070:362
0.070:405
0.070:418
0.071:371
0.071:313
0.071:305
0.071:339
0.071:386
0.071:426
0.071:448
0.071:430
0.071:412
0.072:411
0.072:422
0.072:423
0.072:437
0.072:438
0.072:425
0.072:407
0.072:397
0.072:386
0.072:378
0.072:386
0.072:363
0.072:322
0.072:303
0.072:287
0.072:284
0.072:328
0.072:381
0.072:399
0.072:406
0.072:405
0.073:411
0.073:424
0.073:442
0.073:450
0.073:440
0.073:428
0.073:428
0.073:426
0.073:428
0.073:449
0.073:465
0.073:464
0.073:480
0.073:514
0.074:524
0.074:515
0.074:515
0.074:523
0.074:530
0.074:522
0.074:483
0.074:445
0.074:429
0.074:417
0.074:407
0.074:399
0.074:404
0.074:415
0.074:419
0.075:438
0.075:452
0.075:457
0.075:456
0.075:475
0.075:494
0.075:520
0.075:545
0.075:553
0.075:547
0.075:539
0.075:524
0.075:502
0.075:478
0.075:447
0.075:434
0.075:451
0.075:470
0.075:491
0.075:517
0.075:532
0.075:551
0.077:572
0.077:566
0.077:549
0.077:531
0.077:521
0.077:544
0.077:576
0.077:595
0.077:622
0.077:660
0.077:684
0.077:690
0.077:697
0.077:676
0.077:656
0.077:656
0.078:623
0.078:579
0.078:556
0.078:553
0.078:566
0.078:589
0.078:597
0.078:614
0.078:637
0.078:649
0.078:652
0.078:646
0.078:644
0.078:635
0.079:601
0.079:582
0.079:576
0.079:560
0.079:546
0.079:552
0.079:575
0.079:594
0.079:608
0.079:630
0.079:669
0.079:681
0.079:671
0.079:673
0.080:663
0.080:641
0.080:602
0.080:577
0.080:539
0.080:516
0.080:499
0.080:483
0.080:485
0.080:506
0.080:534
0.080:556
0.080:583
0.080:612
0.081:618
0.081:592
0.081:568
0.081:571
0.081:568
0.081:560
0.081:552
0.081:526
0.081:516
0.081:534
0.081:554
0.081:557
0.081:558
0.081:579
0.081:587
0.082:591
0.082:584
0.082:584
0.082:561
0.082:530
0.082:520
0.082:526
0.082:529
0.082:513
0.082:499
0.082:487
0.082:494
0.082:514
0.082:535
0.082:563
0.082:574
0.082:552
0.082:528
0.082:529
0.083:561
0.083:574
0.083:589
0.083:611
0.084:609
0.084:591
0.084:570
0.084:559
0.084:558
0.085:569
0.085:581
0.085:600
0.085:608
0.085:609
0.085:606
0.086:594
0.086:590
0.086:611
0.086:624
0.086:621
0.086:594
0.086:571
0.086:525
0.086:483
0.086:476
0.087:473
0.087:469
0.087:451
0.087:438
0.087:451
0.087:467
0.087:490
0.087:523
0.088:549
0.088:575
0.088:585
0.088:561
0.088:539
0.088:539
0.088:549
0.088:550
0.088:524
0.088:511
0.088:511
0.088:517
0.089:531
0.089:552
0.089:563
0.089:551
0.089:521
0.089:508
0.089:506
0.089:504
0.089:502
0.089:514
0.089:528
0.089:567
0.089:581
0.090:566
0.090:568
0.090:574
0.090:573
0.090:578
0.090:566
0.090:549
0.090:534
0.090:522
0.090:518
0.090:523
0.090:533
0.090:527
0.090:501
0.090:458
0.090:435
0.090:415
0.090:398
0.090:398
0.090:407
0.090:405
0.092:403
0.092:395
0.092:388
0.092:391
0.092:415
0.092:414
0.092:400
0.092:405
0.092:431
0.092:467
0.092:502
0.092:527
0.093:523
0.093:519
0.093:514
0.093:491
0.093:496
0.093:528
0.093:551
0.093:564
0.093:577
0.093:569
0.093:556
0.093:556
0.093:556
0.093:560
0.093:556
0.093:550
0.093:526
0.093:490
0.094:462
0.094:468
0.094:498
0.094:513
0.094:522
0.094:549
0.094:593
0.094:609
0.094:602
0.094:575
0.094:559
0.094:575
0.094:594
0.094:585
0.094:579
0.094:598
0.094:597
0.094:582
0.095:547
0.095:537
0.095:552
0.095:556
0.095:537
0.095:501
0.095:461
0.095:440
0.095:431
0.095:444
0.095:472
0.095:502
0.095:517
0.095:512
0.095:506
0.095:508
0.095:506
0.095:514
0.096:525
0.096:524
0.096:532
0.096:537
0.096:524
0.096:509
0.096:498
0.096:477
0.096:454
0.096:440
0.096:428
0.096:435
0.096:453
0.096:483
0.096:497
0.096:484
0.096:479
0.096:496
0.096:496
0.097:504
0.097:497
0.097:477
0.097:489
0.097:505
0.097:499
0.097:495
0.097:493
0.097:494
0.097:488
0.097:481
0.097:446
0.097:434
0.097:434
0.097:405
0.097:412
0.097:431
0.097:461
0.097:505
0.098:522
0.098:490
0.098:450
0.098:421
0.098:392
0.098:378
0.098:387
0.098:409
0.098:408
0.098:421
0.098:442
0.098:444
0.098:460
0.098:478
0.098:490
0.098:480
0.098:481
0.098:499
0.098:526
0.098:534
0.099:536
0.099:535
0.099:532
0.099:510
0.099:493
0.099:475
0.099:465
0.099:474
0.099:481
0.099:513
0.099:526
0.099:512
0.099:480
0.099:464
0.099:494
0.099:523
0.099:539
0.099:520
0.099:475
0.100:460
0.100:460
0.100:492
0.100:554
0.101:565
0.101:560
0.101:544
0.101:526
0.101:513
0.101:490
0.101:470
0.102:464
0.102:459
0.102:469
0.102:478
0.102:489
0.102:498
0.102:498
0.102:490
0.102:471
0.102:493
0.102:524
0.102:535
0.102:536
0.103:552
0.103:576
0.103:596
0.103:573
0.103:540
0.103:510
0.103:485
0.103:500
0.103:533
0.103:559
0.104:557
0.104:545
0.104:519
0.104:479
0.104:436
0.104:428
0.104:428
0.104:421
0.104:444
0.104:485
0.104:506
0.104:539
0.104:590
0.104:595
0.104:572
0.104:562
0.104:552
0.104:541
0.104:529
0.105:512
0.105:490
0.105:465
0.105:471
0.105:494
0.105:513
0.105:558
0.105:607
0.105:607
0.105:619
0.105:592
0.105:562
0.105:529
0.105:510
0.105:503
0.105:469
0.105:434
0.105:428
0.105:427
0.105:442
0.105:470
0.106:502
0.106:518
0.106:526
0.106:541
0.106:561
0.106:575
0.106:588
0.106:611
0.106:632
0.106:620
0.106:583
0.106:572
0.106:568
0.106:572
0.106:564
0.106:548
0.106:527
0.106:501
0.106:471
0.106:486
0.106:472
0.107:463
0.107:485
0.107:513
0.107:532
0.107:548
0.107:535
0.107:536
0.107:534
0.107:519
0.107:504
0.107:523
0.107:537
0.107:531
0.107:518
0.107:510
0.107:508
0.107:516
0.107:511
0.107:514
0.108:497
0.108:493
0.108:483
0.108:468
0.108:447
0.108:441
0.108:482
0.108:482
0.108:532
0.108:566
0.108:593
0.108:622
0.108:638
0.108:606
0.108:558
0.108:518
0.108:488
0.109:486
0.109:520
0.109:524
0.109:501
0.109:493
0.109:501
0.109:481
0.109:452
0.109:422
0.109:404
0.109:389
0.109:370
0.109:337
0.109:307
0.109:282
0.109:250
0.109:205
0.109:155
0.109:88
0.109:35
0.109:17
0.109:16
0.110:17
0.110:17
0.110:18
0.110:18
0.110:18
0.110:19
0.110:19
0.110:19
0.110:20
0.110:19
0.110:19
0.110:19
0.110:18
0.110:18
0.110:17
0.110:17
0.110:32
0.110:107
0.110:189
0.110:281
0.110:404
0.110:526
0.110:600
0.110:639
0.111:659
0.111:643
0.111:630
0.111:643
0.111:643
0.111:643
0.111:660
0.111:678
0.111:686
0.111:674
0.111:673
0.111:669
0.111:671
0.111:665
0.111:653
0.111:625
0.111:606
0.111:595
0.111:576
0.111:581
0.112:596
0.112:573
0.112:555
0.112:559
0.112:576
0.112:571
0.112:561
0.112:563
0.112:542
0.112:540
0.112:527
0.112:510
0.112:505
0.112:518
0.112:547
0.112:569
0.112:560
0.112:551
0.112:564
0.112:575
0.112:601
0.113:629
0.113:623
0.113:619
0.113:671
0.113:736
0.113:802
0.113:810
0.113:783
0.113:731
0.113:663
0.113:610
0.113:592
0.113:564
0.113:508
0.113:463
0.113:448
0.113:452
0.113:494
0.114:576
0.114:623
0.114:632
0.114:631
0.114:621
0.114:621
0.114:624
0.114:639
0.114:648
0.114:635
0.114:599
0.114:575
0.114:569
0.114:587
0.114:586
0.114:553
0.114:512
0.114:461
0.114:445
0.114:470
0.114:504
0.115:516
0.115:517
0.115:511
0.115:492
0.115:483
0.115:491
0.115:489
0.115:490
0.115:515
0.115:522
0.115:534
0.115:525
0.115:510
0.115:494
0.115:496
0.115:487
0.115:476
0.115:487
0.115:491
0.115:509
0.115:505
0.116:522
0.116:555
0.116:549
0.116:525
0.116:516
0.116:495
0.116:478
0.116:471
0.116:462
0.117:488
0.117:495
0.117:485
0.117:485
0.117:501
0.118:501
0.118:542
0.118:582
0.118:583
0.118:587
0.118:598
0.119:575
0.119:542
0.119:494
0.119:494
0.119:447
0.119:413
0.120:377
0.120:390
0.120:412
0.120:452
0.120:500
0.120:513
0.120:522
0.120:532
0.120:521
0.120:501
0.120:493
0.120:503
0.120:514
0.120:520
0.120:529
0.120:541
0.120:539
0.120:532
0.120:520
0.120:474
0.122:432
0.122:403
0.122:394
0.122:381
0.122:371
0.122:372
0.122:372
0.123:400
0.123:418
0.123:415
0.123:405
0.123:404
0.123:403
0.123:421
0.123:459
0.123:470
0.123:504
0.125:522
0.125:496
0.125:441
0.125:421
0.125:430
0.125:426
0.125:408
0.125:402
0.125:409
0.125:412
0.125:407
0.125:398
0.126:390
0.126:396
0.126:396
0.126:388
0.126:390
0.126:403
0.126:435
0.126:451
0.126:451
0.126:441
0.126:415
0.126:386
0.127:378
0.127:369
0.127:364
0.127:388
0.127:402
0.127:371
0.127:378
0.127:407
0.127:436
0.127:445
0.127:433
0.127:402
0.128:376
0.128:356
0.128:369
0.128:380
0.128:389
0.128:398
0.128:406
0.128:403
0.128:401
0.128:366
0.129:336
0.129:340
0.129:343
0.129:360
0.129:371
0.129:374
0.129:386
0.129:406
0.129:401
0.129:413
0.129:422
0.129:447
0.130:441
0.130:419
0.130:424
0.130:442
0.130:463
0.130:492
0.130:522
0.130:546
0.130:553
0.130:568
0.130:569
0.130:572
0.130:574
0.130:571
0.130:574
0.130:586
0.130:585
0.130:578
0.130:574
0.130:568
0.130:577
0.131:583
0.131:583
0.131:594
0.131:616
0.131:621
0.131:609
0.131:593
0.131:592
0.131:594
0.131:597
0.131:603
0.131:612
0.131:628
0.131:647
0.131:646
0.131:635
0.131:608
0.131:595
0.131:591
0.131:591
0.131:594
0.132:598
0.132:614
0.132:641
0.132:627
0.132:621
0.132:610
0.132:590
0.132:584
0.132:587
0.132:597
0.132:614
0.132:608
0.132:600
0.132:614
0.132:627
0.132:641
0.132:659
0.132:659
0.132:657
0.132:646
0.132:613
0.132:563
0.132:519
0.132:479
0.132:459
0.132:454
0.132:482
0.132:527
0.133:566
0.133:599
0.133:614
0.133:610
0.134:619
0.134:629
0.134:609
0.134:580
0.135:556
0.135:534
0.135:534
0.135:537
0.135:537
0.135:540
0.135:536
0.135:550
0.135:566
0.135:587
0.135:590
0.136:586
0.136:587
0.136:596
0.136:602
0.136:586
0.136:597
0.136:595
0.136:613
0.136:638
0.136:650
0.136:635
0.136:632
0.136:610
0.136:589
0.137:561
0.137:522
0.137:495
0.137:508
0.137:518
0.137:543
0.137:548
0.137:551
0.137:557
0.137:570
0.137:594
0.137:597
0.137:609
0.137:628
0.137:642
0.138:634
0.138:624
0.138:632
0.138:627
0.138:600
0.138:579
0.138:585
0.138:577
0.138:563
0.138:549
0.138:543
0.138:552
0.138:555
0.139:547
0.139:523
0.139:495
0.139:472
0.139:454
0.139:447
0.139:445
0.139:462
0.139:483
0.139:485
0.139:501
0.139:501
0.139:526
0.139:520
0.139:508
0.139:513
0.139:513
0.140:511
0.140:507
0.140:498
0.140:487
0.140:488
0.140:486
0.140:477
0.140:458
0.140:454
0.140:464
0.140:465
0.140:463
0.140:464
0.140:458
0.140:445
0.140:423
0.140:403
0.140:414
0.140:426
0.140:449
0.140:472
0.140:485
0.140:482
0.140:488
0.140:502
0.140:505
0.140:504
0.140:496
0.140:484
0.140:471
0.142:475
0.142:481
0.142:479
0.142:481
0.142:489
0.142:511
0.142:528
0.142:539
0.142:542
0.142:542
0.142:547
0.142:536
0.142:525
0.142:517
0.142:517
0.142:506
0.142:505
0.142:500
0.143:507
0.143:521
0.143:522
0.143:514
0.143:518
0.143:533
0.143:533
0.143:532
0.143:525
0.143:502
0.143:490
0.143:504
0.143:501
0.143:501
0.143:506
0.143:512
0.143:502
0.143:489
0.143:497
0.143:516
0.143:518
0.143:477
0.143:485
0.143:519
0.143:529
0.144:530
0.144:544
0.144:545
0.144:531
0.144:500
0.144:505
0.144:517
0.144:499
0.144:455
0.144:408
0.144:378
0.144:388
0.144:414
0.144:456
0.144:481
0.144:474
0.144:473
0.144:478
0.144:487
0.144:487
0.145:477
0.145:464
0.145:458
0.145:414
0.145:386
0.145:403
0.145:417
0.145:413
0.145:427
0.145:463
0.145:481
0.145:473
0.145:428
0.145:402
0.145:396
0.145:396
0.145:416
0.145:448
0.145:434
0.145:392
0.145:402
0.146:402
0.146:423
0.146:435
0.146:440
0.146:458
0.146:464
0.146:439
0.146:419
0.146:435
0.146:452
0.146:447
0.146:454
0.146:492
0.146:513
0.146:479
0.146:502
0.146:528
0.146:526
0.146:527
0.146:512
0.147:520
0.147:514
0.147:511
0.147:507
0.147:511
0.147:518
0.147:547
0.147:553
0.147:535
0.147:519
0.147:513
0.147:486
0.147:485
0.147:512
0.147:499
0.147:475
0.147:492
0.147:510
0.147:512
0.147:502
0.147:487
0.148:489
0.148:506
0.148:514
0.148:510
0.148:501
0.148:481
0.148:463
0.148:452
0.148:471
0.148:493
0.148:495
0.148:500
0.148:502
0.148:515
0.148:508
0.148:508
0.148:516
0.148:523
0.148:515
0.148:515
0.148:507
0.149:503
0.149:510
0.149:518
0.149:515
0.149:517
0.149:519
0.149:517
0.149:516
0.149:517
0.149:517
0.149:497
0.149:479
0.149:476
0.150:472
0.150:476
0.150:505
0.150:529
0.150:543
0.150:539
0.150:525
0.150:515
0.150:515
0.150:521
0.152:529
0.152:527
0.152:513
0.152:500
0.152:494
0.152:493
0.152:498
0.152:492
0.152:491
0.152:486
0.152:472
0.152:469
0.152:478
0.152:477
0.152:468
0.152:471
0.153:474
0.153:474
0.153:472
0.153:473
0.153:492
0.153:506
0.153:513
0.153:512
0.153:519
0.153:531
0.153:535
0.153:532
0.153:527
0.153:516
0.154:511
0.154:526
0.154:533
0.154:537
0.154:544
0.154:544
0.154:543
0.154:545
0.154:539
0.154:541
0.154:546
0.154:548
0.154:555
0.154:559
0.154:556
0.155:545
0.155:531
0.155:523
0.155:520
0.155:521
0.155:522
0.155:513
0.155:496
0.155:485
0.155:491
0.155:490
0.155:490
0.155:499
0.155:513
0.155:524
0.155:525
0.155:530
0.155:536
0.155:551
0.155:552
0.156:545
0.156:519
0.156:475
0.156:437
0.156:417
0.156:398
0.156:381
0.156:366
0.156:360
0.156:354
0.156:335
0.156:313
0.156:279
0.156:235
0.156:192
0.156:142
0.156:86
0.156:25
0.156:17
0.156:17
0.156:17
0.156:18
0.157:18
0.157:18
0.157:19
0.157:19
0.157:19
0.157:19
0.157:19
0.157:19
0.157:19
0.157:19
0.157:18
0.157:18
0.157:17
0.157:18
0.157:17
0.157:33
0.157:117
0.157:192
0.157:265
0.157:343
0.157:446
0.157:563
0.157:642
0.158:684
0.158:698
0.158:690
0.158:666
0.158:648
0.158:641
0.158:630
0.158:619
0.158:612
0.158:610
0.158:599
0.158:595
0.158:605
0.158:612
0.158:601
0.158:582
0.158:565
0.158:565
0.158:564
0.158:563
0.158:564
0.159:568
0.159:574
0.159:582
0.159:588
0.159:588
0.159:589
0.159:577
0.159:587
0.159:603
0.159:613
0.159:622
0.159:632
0.159:622
0.159:609
0.159:595
0.159:582
0.159:576
0.159:575
0.159:578
0.159:572
0.159:571
0.160:578
0.160:567
0.160:548
0.160:548
0.160:542
0.160:539
0.160:536
0.160:545
0.160:553
0.160:557
0.160:565
0.160:566
0.160:561
0.160:551
0.160:552
0.160:541
0.160:533
0.160:533
0.160:545
0.160:547
0.160:545
0.161:546
0.161:549
0.161:552
0.161:540
0.161:541
0.161:549
0.161:551
0.161:554
0.161:552
0.161:543
0.161:544
0.161:552
0.161:551
0.161:542
0.161:520
0.161:504
0.161:513
0.161:527
0.161:535
0.161:535
0.161:531
0.162:534
0.162:532
0.162:528
0.162:514
0.162:500
0.162:494
0.162:485
0.162:488
0.162:494
0.162:500
0.162:498
0.162:488
0.162:486
0.162:489
0.162:492
0.162:495
0.162:496
0.162:499
0.162:492
0.162:488
0.162:493
0.162:493
0.162:489
0.162:482
0.162:483
0.162:492
0.162:496
0.162:499
0.162:504
0.162:502
0.162:491
0.162:487
0.162:486
0.162:484
0.162:479
0.162:475
0.162:475
0.162:482
0.162:477
0.162:466
0.164:449
0.164:436
0.164:442
0.164:455
0.164:470
0.164:476
0.164:476
0.164:474
0.164:475
0.164:481
0.164:487
0.164:477
0.164:454
0.164:412
0.164:384
0.164:376
0.164:387
0.164:399
0.164:415
0.164:424
0.164:424
0.164:429
0.165:432
0.165:428
0.165:427
0.165:426
0.165:423
0.165:419
0.165:416
0.165:423
0.165:429
0.165:425
0.165:423
0.165:420
0.165:423
0.165:419
0.165:413
0.165:409
0.165:396
0.165:390
0.165:387
0.165:387
0.165:385
0.166:383
0.166:377
0.166:371
0.166:372
0.166:374
0.166:378
0.166:381
0.166:381
0.166:389
0.166:394
0.166:392
0.166:385
0.166:375
0.167:373
0.167:362
0.167:361
0.167:355
0.167:356
0.168:357
0.168:366
0.168:374
0.168:381
0.168:385
0.168:379
0.168:382
0.168:380
0.168:373
0.168:357
0.168:344
0.168:328
0.168:327
0.168:349
0.168:364
0.169:366
0.169:366
0.169:371
0.169:370
0.169:369
0.169:370
0.169:369
0.169:362
0.169:372
0.169:376
0.169:370
0.169:369
0.170:370
0.170:379
0.170:387
0.170:408
0.170:410
0.170:395
0.170:397
0.170:415
0.170:431
0.170:444
0.170:454
0.170:451
0.170:440
0.170:440
0.170:436
0.170:448
0.170:462
0.170:471
0.170:471
0.171:474
0.171:484
0.171:483
0.171:481
0.171:475
0.171:485
0.171:501
0.171:513
0.171:520
0.171:528
0.171:537
0.171:535
0.171:532
0.171:526
0.171:526
0.171:529
0.171:537
0.171:547
0.171:570
0.171:586
0.172:601
0.172:612
0.172:621
0.172:622
0.172:617
0.172:612
0.172:611
0.172:616
0.172:617
0.172:616
0.172:618
0.172:619
0.172:623
0.172:621
0.172:623
0.172:626
0.172:629
0.172:633
0.172:642
0.172:644
0.172:642
0.172:639
0.172:636
0.172:623
0.172:611
0.172:609
0.172:608
0.172:606
0.172:598
0.172:603
0.172:601
0.173:593
0.173:588
0.173:586
0.173:586
0.173:579
0.173:572
0.173:568
0.173:581
0.173:598
0.173:599
0.173:595
0.173:604
0.173:613
0.173:628
0.173:633
0.173:628
0.173:626
0.173:628
0.173:641
0.173:649
0.173:645
0.174:627
0.174:597
0.174:572
0.174:557
0.174:558
0.174:564
0.174:562
0.174:573
0.174:572
0.174:579
0.174:585
0.174:593
0.174:599
0.174:586
0.174:578
0.174:569
0.174:578
0.174:584
0.174:589
0.174:580
0.175:561
0.175:554
0.175:552
0.175:555
0.175:562
0.175:568
0.175:563
0.175:559
0.175:541
0.175:543
0.175:556
0.175:559
0.175:553
0.175:545
0.175:546
0.175:554
0.175:565
0.175:569
0.175:583
0.175:581
0.175:586
0.175:595
0.175:595
0.175:587
0.175:556
0.175:529
0.175:527
0.175:538
0.175:542
0.175:546
0.175:545
0.177:551
0.177:545
0.177:536
0.177:525
0.177:516
0.177:502
0.177:486
0.177:479
0.177:484
0.177:493
0.177:497
0.177:508
0.177:517
0.177:525
0.177:527
0.177:542
0.177:557
0.177:551
0.177:544
0.177:541
0.177:534
0.177:531
0.178:523
0.178:517
0.178:521
0.178:526
0.178:528
0.178:524
0.178:516
0.178:513
0.178:520
0.178:532
0.178:536
0.178:531
0.178:528
0.178:526
0.178:522
0.178:517
0.178:520
0.178:527
0.178:529
0.178:523
0.179:519
0.179:513
0.179:506
0.179:499
0.179:495
0.179:488
0.179:488
0.179:482
0.179:485
0.179:485
0.179:496
0.179:502
0.179:501
0.179:498
0.179:491
0.179:491
0.179:493
0.179:498
0.179:500
0.180:504
0.180:504
0.180:505
0.180:504
0.180:498
0.180:489
0.180:488
0.180:493
0.180:509
0.180:501
0.180:493
0.180:489
0.180:482
0.180:481
0.180:483
0.180:484
0.180:482
0.180:485
0.180:494
0.180:503
0.180:509
0.181:506
0.181:494
0.181:490
0.181:486
0.181:490
0.181:495
0.181:494
0.181:490
0.181:480
0.181:479
0.181:479
0.181:486
0.181:488
0.181:493
0.181:482
0.181:476
0.181:479
0.181:477
0.181:481
0.181:490
0.182:481
0.182:470
0.182:480
0.182:481
0.182:480
0.182:489
0.182:500
0.182:518
0.182:533
0.182:533
0.182:534
0.183:517
0.183:493
0.183:470
0.183:465
0.183:474
0.183:474
0.183:473
0.183:477
0.183:465
0.183:466
0.183:473
0.184:479
0.185:493
0.185:510
0.185:520
0.185:513
0.185:505
0.185:500
0.185:497
0.186:504
0.186:499
0.186:488
0.186:481
0.186:481
0.186:486
0.186:484
0.186:470
0.186:468
0.186:488
0.186:498
0.186:502
0.186:495
0.187:498
0.187:510
0.187:516
0.187:512
0.187:506
0.187:479
0.187:468
0.187:467
0.187:458
0.187:449
0.187:447
0.187:449
0.187:460
0.187:471
0.187:475
0.187:479
0.187:487
0.187:485
0.187:486
0.187:482
0.188:469
0.188:460
0.188:459
0.188:460
0.188:458
0.188:451
0.188:451
0.188:452
0.188:458
0.188:460
0.188:461
0.188:456
0.188:451
0.188:446
0.188:445
0.188:429
0.188:411
0.188:411
0.188:410
0.189:414
0.189:433
0.189:463
0.189:476
0.189:469
0.189:455
0.189:435
0.189:431
0.189:440
0.189:449
0.189:451
0.189:444
0.189:438
0.189:435
0.189:434
0.189:425
0.189:419
0.189:414
0.189:417
0.189:419
0.189:428
0.190:420
0.190:410
0.190:426
0.190:450
0.190:466
0.190:482
0.190:486
0.190:484
0.190:493
0.190:494
0.190:490
0.190:484
0.190:487
0.190:487
0.190:480
0.190:484
0.190:493
0.190:509
0.190:522
0.190:521
0.191:520
0.191:520
0.191:524
0.191:520
0.191:520
0.191:5150
0.191:518
0.191:512
0.191:518
0.191:528
0.191:529
0.191:527
0.191:526
0.191:519
0.191:519
0.191:512
0.191:512
0.191:512
0.191:509
0.191:507
0.191:511
0.192:512
0.192:509
0.192:515
0.192:528
0.192:533
0.192:532
0.192:532
0.192:524
0.192:512
0.192:510
0.192:518
0.192:521
0.192:512
0.192:502
0.192:493
0.192:496
0.192:512
0.192:521
0.192:526
0.192:526
0.192:517
0.192:508
0.192:517
0.192:527
0.192:526
0.192:521
0.192:516
0.192:516
0.193:523
0.193:526
0.193:530
0.193:531
0.193:518
0.193:509
0.193:507
0.193:503
0.193:505
0.193:495
0.193:494
0.193:498
0.193:506
0.193:508
0.193:499
0.193:493
0.193:499
0.193:502
0.193:505
0.193:506
0.193:500
0.193:493
0.194:502
0.194:498
0.194:493
0.194:499
0.194:499
0.194:502
0.194:501
0.194:501
0.194:500
0.194:505
0.194:507
0.194:498
0.194:493
0.194:499
0.194:497
0.194:498
0.194:504
0.194:501
0.194:498
0.194:500
0.195:506
0.195:503
0.195:499
0.195:507
0.195:507
0.195:499
0.195:501
0.195:502
0.195:501
0.195:500
0.195:501
0.195:502
0.195:501
0.195:501
0.195:500
0.195:496
0.195:491
0.195:491
0.195:496
0.195:501
0.196:499
0.196:501
0.196:504
0.196:506
0.196:511
0.196:507
0.196:498
0.196:495
0.196:495
0.196:494
0.196:499
0.196:505
0.196:504
0.196:500
0.196:501
0.196:507
0.196:509
0.196:509
0.196:517
0.196:520
0.196:518
0.197:511
0.197:509
0.197:506
0.197:508
0.197:509
0.197:505
0.208:505
0.208:507
0.208:515
0.208:513
0.208:515
0.208:513
0.208:514
0.208:510
0.208:502
0.213:499
0.213:493
0.213:492
0.213:486
0.213:487
0.213:483
0.213:482
0.213:487
0.213:498
0.217:504
0.217:505
0.218:502
0.218:501
0.218:494
0.218:488
0.218:489
0.218:489
0.218:493
0.219:499
0.220:503
0.220:502
0.236:502
0.236:507
0.236:506
0.236:494
0.236:488
0.236:490
0.237:494
0.237:486
0.242:476
0.242:475
0.242:477
0.242:490
0.242:505
0.242:503
0.242:509
0.242:498
0.242:484
0.245:482
0.245:479
0.245:477
0.245:479
0.245:483
0.245:487
0.245:489
0.245:478
0.245:475
0.245:473
0.249:470
0.249:461
0.249:457
0.266:459
0.266:463
0.266:471
0.266:469
0.266:464
0.270:463
0.270:458
0.270:454
0.270:459
0.270:464
0.270:464
0.270:463
0.271:465
0.271:462
0.274:456
0.274:454
0.274:456
0.274:457
0.274:462
0.274:461
0.274:465
0.275:467
0.275:467
0.275:470
0.278:473
0.278:471
0.278:470
0.278:467
0.278:466
0.278:479
0.294:479
0.294:486
0.294:481
0.294:474
0.299:471
0.299:482
0.299:487
0.299:480
0.299:489
0.299:496
0.299:501
0.299:505
0.300:503
0.302:509
0.302:513
0.302:514
0.302:511
0.303:506
0.303:507
0.303:520
0.303:523
0.303:525
0.304:521
0.307:519
0.307:520
0.307:521
0.307:520
0.307:520
0.307:512
0.307:511
0.323:518
0.327:525
0.327:523
0.327:524
0.327:529
0.327:529
0.327:535
0.327:538
0.327:533
0.327:518
0.332:506
0.332:510
0.332:522
0.332:528
0.332:528
0.332:528
0.332:528
0.332:524
0.332:525
0.332:524
0.335:522
0.335:523
0.335:524
0.335:521
0.335:526
0.335:532
0.335:539
0.335:539
0.335:537
0.339:535
0.356:535
0.356:532
0.356:529
0.356:523
0.356:523
0.356:528
0.356:533
0.356:537
0.356:528
0.360:524
0.360:524
0.360:518
0.360:519
0.360:524
0.360:521
0.360:520
0.360:525
0.360:526
0.360:526
0.364:524
0.364:522
0.364:523
0.364:522
0.364:516
0.364:514
0.364:515
0.364:513
0.364:511
0.368:514
0.368:523
0.384:527
0.384:521
0.384:517
0.384:520
0.384:524
0.384:519
0.389:512
0.389:511
0.389:509
0.389:511
0.389:515
0.389:513
0.389:514
0.389:520
0.389:523
0.389:523
0.392:521
0.392:521
0.392:524
0.392:531
0.392:550
0.392:565
0.392:563
0.392:557
0.392:538
0.397:529
0.397:526
0.397:518
0.397:504
0.397:491
0.412:491
0.412:478
0.413:458
0.413:446
0.413:428
0.417:400
0.418:368
0.418:339
0.418:304
0.418:263
0.418:229
0.418:189
0.418:131
0.418:80
0.418:36
0.422:17
0.422:17
0.422:17
0.422:17
0.422:17
0.422:18
0.422:18
0.422:18
0.422:19
0.422:19
0.422:19
0.422:19
0.425:19
0.425:18
0.425:18
0.441:18
0.441:17
0.441:17
0.446:56
0.446:131
0.446:199
0.446:273
0.446:374
0.446:495
0.446:593
0.446:658
0.446:698
0.450:719
0.450:716
0.450:695
0.451:683
0.451:669
0.451:637
0.451:619
0.451:618
0.451:614
0.451:613
0.453:621
0.453:627
0.453:622
0.453:612
0.454:606
0.454:597
0.454:586
0.454:591
0.470:591
0.474:600
0.474:605
0.474:601
0.474:586
0.474:585
0.474:580
0.474:574
0.475:574
0.475:582
0.475:588
0.478:591
0.478:594
0.478:604
0.478:608
0.478:608
0.478:609
0.478:601
0.478:598
0.478:599
0.483:603
0.483:611
0.483:619
0.483:614
0.483:606
0.483:590
0.483:568
0.484:563
0.484:572
0.484:582
0.503:584
0.503:589
0.503:590
0.503:592
0.503:581
0.503:586
0.503:588
0.508:582
0.508:588
0.508:589
0.508:590
0.508:584
0.508:577
0.508:559
0.508:554
0.508:565
0.508:566
0.512:564
0.512:562
0.512:557
0.512:551
0.512:547
0.512:549
0.512:556
0.512:559
0.512:567
0.512:573
0.515:570
0.515:556
0.515:552
0.532:552
0.532:560
0.532:573
0.532:574
0.532:555
0.532:533
0.532:527
0.536:524
0.536:531
0.536:536
0.536:532
0.536:531
0.536:526
0.536:524
0.536:526
0.536:526
0.540:536
0.540:542
0.540:545
0.540:539
0.540:537
0.540:534
0.540:527
0.540:525
0.540:524
0.540:521
0.544:514
0.544:507
0.544:506
0.544:497
0.560:498
0.560:503
0.560:505
0.565:505
0.565:511
0.565:514
0.565:512
0.565:514
0.565:519
0.565:528
0.565:521
0.565:507
0.565:498
0.569:498
0.569:491
0.569:487
0.569:490
0.569:488
0.570:483
0.570:477
0.570:480
0.570:487
0.573:491
0.573:497
0.573:501
0.573:493
0.573:489
0.573:484
0.573:484
0.573:488
0.589:488
0.589:489
0.593:487
0.593:486
0.593:482
0.593:481
0.593:484
0.593:471
0.593:460
0.593:458
0.593:455
0.593:455
0.598:455
0.598:458
0.598:462
0.598:466
0.598:467
0.598:466
0.598:466
0.598:463
0.598:463
0.598:458
0.601:453
0.602:449
0.602:449
0.602:447
0.602:440
0.602:431
0.602:434
0.602:436
0.622:437
0.622:423
0.622:411
0.622:415
0.622:425
0.622:436
0.622:428
0.622:425
0.622:425
0.626:433
0.626:435
0.626:426
0.626:423
0.626:421
0.626:408
0.626:399
0.626:396
0.626:392
0.630:398
0.630:398
0.630:392
0.630:395
0.630:394
0.630:387
0.630:393
0.630:397
0.630:401
0.630:415
0.634:421
0.634:425
0.650:425
0.650:424
0.650:422
0.650:418
0.650:417
0.650:412
0.650:410
0.650:410
0.655:407
0.655:409
0.655:412
0.655:412
0.655:407
0.655:409
0.655:410
0.655:415
0.655:423
0.659:436
0.659:451
0.659:449
0.659:448
0.659:445
0.659:449
0.659:452
0.659:456
0.659:459
0.659:459
0.663:464
0.663:467
0.663:464
0.679:461
0.679:470
0.679:480
0.679:486
0.679:483
0.683:485
0.684:504
0.684:515
0.684:532
0.684:537
0.684:540
0.684:550
0.685:550
0.685:547
0.687:550
0.687:552
0.687:552
0.687:554
0.688:547
0.688:541
0.688:540
0.688:546
0.688:553
0.688:568
0.691:575
0.691:579
0.691:582
0.691:578
0.691:583
0.691:588
0.707:588
0.707:603
0.707:611
0.707:609
0.712:600
0.712:598
0.712:592
0.712:593
0.712:606
0.712:603
0.712:593
0.712:588
0.712:587
0.716:587
0.716:589
0.717:596
0.717:606
0.717:609
0.717:612
0.717:623
0.717:621
0.717:612
0.717:602
0.720:601
0.720:601
0.720:599
0.720:596
0.720:587
0.720:589
0.720:580
0.736:580
0.740:583
0.740:593
0.740:598
0.740:600
0.740:591
0.740:592
0.740:590
0.740:587
0.740:587
0.745:584
0.745:584
0.745:589
0.745:598
0.745:608
0.745:605
0.745:589
0.745:567
0.745:563
0.745:560
0.748:554
0.749:557
0.749:567
0.749:568
0.749:562
0.749:557
0.749:558
0.750:557
0.750:561
0.753:563
0.769:563
0.769:562
0.769:565
0.769:574
0.769:579
0.769:575
0.769:566
0.769:560
0.769:560
0.773:557
0.773:551
0.773:547
0.773:542
0.773:545
0.773:552
0.773:552
0.774:551
0.774:550
0.774:549
0.778:548
0.778:557
0.778:567
0.778:563
0.778:561
0.778:558
0.778:555
0.778:552
0.778:555
0.782:558
0.782:551
0.797:539
0.797:528
0.798:523
0.798:526
0.798:526
0.798:525
0.802:528
0.803:538
0.803:545
0.803:546
0.803:550
0.803:546
0.803:547
0.803:543
0.803:539
0.803:543
0.806:538
0.806:531
0.806:529
0.806:528
0.806:523
0.806:527
0.806:530
0.806:532
0.806:529
0.810:525
0.810:521
0.810:529
0.810:534
0.810:539
0.826:539
0.826:541
0.826:533
0.826:534
0.826:537
0.830:534
0.830:530
0.830:523
0.830:513
0.830:512
0.830:505
0.830:498
0.830:502
0.830:517
0.830:538
0.835:539
0.835:532
0.836:516
0.836:510
0.836:517
0.836:522
0.836:525
0.836:524
0.836:526
0.839:523
0.839:524
0.839:514
0.839:511
0.839:509
0.839:507
0.855:507
0.855:505
0.860:502
0.860:508
0.860:510
0.860:508
0.860:506
0.860:506
0.860:512
0.860:518
0.860:526
0.864:519
0.864:511
0.864:510
0.864:505
0.864:503
0.864:512
0.864:519
0.864:527
0.864:529
0.864:515
0.868:492
0.868:485
0.868:486
0.868:487
0.868:495
0.868:504
0.868:509
0.868:510
0.869:510
0.883:510
0.889:516
0.889:511
0.889:511
0.889:519
0.889:520
0.889:520
0.889:516
0.889:498
0.889:491
0.889:493
0.892:497
0.892:502
0.892:498
0.892:498
0.892:498
0.892:497
0.892:496
0.892:494
0.892:498
0.897:503
0.897:513
0.897:514
0.897:515
0.897:514
0.897:520
0.897:524
0.897:521
0.897:512
0.898:502
0.916:498
0.917:489
0.917:486
0.917:480
0.917:490
0.917:503
0.917:504
0.921:492
0.921:500
0.921:510
0.921:516
0.922:525
0.922:519
0.922:520
0.922:516
0.922:511
0.922:505
0.925:505
0.925:500
0.925:502
0.925:501
0.925:497
0.925:498
0.925:497
0.925:500
0.925:501
0.929:503
0.929:500
0.929:499
0.929:502
0.945:502
0.945:504
0.945:511
0.945:513
0.945:513
0.945:509
0.946:506
0.949:510
0.950:510
0.950:505
0.950:503
0.950:507
0.950:491
0.950:486
0.950:496
0.950:504
0.953:504
0.953:509
0.953:513
0.953:514
0.953:510
0.953:507
0.953:514
0.953:509
0.953:498
0.953:494
0.958:502
0.958:506
0.958:507
0.958:505
0.974:507
0.974:507
0.974:501
0.979:496
0.979:488
0.979:490
0.979:498
0.979:502
0.979:502
0.979:507
0.979:507
0.979:503
0.979:513
0.984:518
0.984:524
0.984:525
0.984:522
0.984:515
0.984:504
0.984:506
0.984:512
0.984:503
0.986:487
0.986:487
0.986:489
0.986:494
0.986:495
0.986:503
0.986:506
0.986:507
1.002:507
1.002:508
1.007:506
1.007:513
1.007:511
1.007:511
1.007:505
1.007:506
1.007:502
1.007:498
1.007:498
1.007:496
1.011:498
1.011:494
1.011:495
1.011:491
1.012:490
1.012:491
1.012:491
1.012:491
1.012:494
1.012:497
1.015:496
1.015:492
1.015:489
1.015:490
1.015:486
1.015:490
1.015:494
1.015:496
1.035:498
1.035:504
1.035:508
1.035:503
1.035:493
1.035:495
1.035:491
1.036:484
1.036:483
1.040:487
1.040:494
1.040:486
1.040:477
1.040:477
1.040:476
1.040:472
1.040:465
1.040:469
1.044:470
1.044:469
1.044:462
1.044:460
1.044:458
1.044:450
1.044:444
1.044:453
1.044:462
1.044:464
1.048:468
1.048:459
1.063:459
1.063:446
1.063:453
1.063:469
1.065:482
1.065:478
1.065:464
1.065:456
1.068:466
1.068:478
1.069:482
1.069:479
1.069:481
1.069:470
1.069:459
1.069:451
1.069:450
1.072:453
1.072:458
1.072:461
1.072:462
1.072:467
1.072:470
1.073:471
1.073:476
1.073:475
1.073:477
1.076:478
1.076:487
1.076:492
1.092:497
1.092:501
1.092:505
1.093:514
1.093:510
1.096:509
1.096:510
1.097:514
1.097:512
1.097:514
1.097:518
1.097:528
1.097:524
1.097:516
1.100:514
1.102:513
1.102:515
1.102:517
1.102:515
1.102:515
1.102:518
1.102:510
1.103:503
1.103:505
1.105:515
1.105:516
1.105:509
1.105:515
1.105:511
1.105:512
1.120:512
1.120:509
1.120:518
1.122:522
1.126:538
1.126:545
1.126:538
1.126:532
1.126:516
1.126:510
1.126:508
1.126:511
1.126:512
1.130:506
1.130:505
1.130:504
1.130:504
1.130:513
1.130:525
1.130:526
1.130:517
1.130:515
1.130:517
1.133:513
1.133:517
1.134:528
1.134:532
1.134:532
1.134:530
1.134:529
1.149:527
1.154:525
1.154:518
1.154:516
1.154:516
1.154:517
1.154:518
1.154:506
1.155:508
1.155:521
1.159:524
1.159:518
1.159:512
1.159:511
1.159:519
1.159:523
1.159:521
1.159:522
1.159:528
1.159:526
1.162:523
1.162:520
1.162:514
1.162:513
1.162:509
1.162:505
1.162:503
1.162:506
1.163:505
1.166:510
1.184:510
1.184:506
1.184:499
1.184:502
1.185:507
1.185:517
1.185:526
1.185:536
1.185:527
1.187:524
1.187:530
1.187:530
1.187:530
1.188:530
1.188:537
1.188:538
1.188:557
1.188:566
1.188:553
1.192:550
1.192:547
1.192:519
1.192:504
1.192:490
1.192:470
1.192:445
1.192:419
1.192:395
1.195:364
1.195:332
1.211:299
1.212:269
1.212:222
1.212:172
1.212:120
1.212:53
1.216:16
1.216:17
1.217:17
1.217:17
1.217:18
1.217:18
1.217:18
1.217:19
1.217:19
1.217:19
1.217:19
1.218:19
1.220:19
1.220:19
1.220:19
1.220:19
1.220:19
1.220:18
1.220:18
1.220:17
1.220:17
1.220:55
1.220:164
1.220:272
1.240:272
1.240:413
1.240:534
1.240:615
1.240:660
1.245:685
1.245:698
1.245:687
1.245:669
1.245:642
1.245:624
1.245:622
1.245:610
1.245:597
1.245:594
1.248:585
1.249:575
1.249:576
1.249:578
1.249:589
1.249:596
1.249:610
1.250:622
1.250:623
1.253:618
1.253:612
1.253:617
1.253:624
1.253:634
1.253:634
1.269:624
1.269:612
1.273:611
1.273:614
1.273:622
1.273:629
1.273:625
1.273:619
1.273:612
1.273:612
1.273:610
1.277:607
1.277:605
1.277:615
1.277:620
1.277:633
1.277:642
1.277:635
1.277:628
1.277:620
1.277:624
1.281:620
1.281:614
1.282:608
1.282:603
1.282:601
1.282:600
1.282:601
1.282:597
1.282:603
1.297:603
1.301:612
1.301:616
1.301:611
1.302:597
1.302:577
1.302:577
1.302:594
1.302:601
1.302:593
1.303:585
1.306:580
1.306:576
1.306:578
1.306:591
1.306:588
1.306:576
1.306:565
1.306:564
1.306:563
1.310:559
1.310:564
1.310:569
1.310:557
1.310:548
1.310:550
1.310:546
1.310:552
1.310:559
1.310:563
1.329:565
1.330:568
1.330:570
1.330:571
1.330:564
1.330:547
1.330:534
1.334:526
1.334:534
1.334:539
1.335:546
1.335:550
1.335:541
1.335:531
1.335:528
1.335:528
1.335:532
1.339:536
1.339:540
1.339:540
1.339:533
1.339:536
1.339:539
1.339:533
1.339:535
1.339:526
1.343:517
1.343:512
1.343:519
1.343:518
1.358:518
1.359:519
1.359:521
1.359:523
1.359:511
1.359:497
1.363:486
1.363:485
1.363:508
1.363:526
1.363:537
1.363:534
1.363:528
1.363:519
1.364:515
1.364:508
1.368:502
1.368:498
1.368:488
1.368:484
1.368:480
1.368:485
1.368:490
1.368:487
1.368:489
1.369:484
1.371:487
1.371:499
1.371:501
1.371:496
1.387:492
1.387:492
1.387:490
1.392:487
1.392:483
1.392:476
1.392:472
1.392:465
1.392:452
1.392:446
1.392:448
1.393:458
1.393:461
1.396:468
1.396:477
1.396:470
1.396:465
1.396:461
1.396:461
1.397:474
1.397:479
1.397:456
1.400:435
1.400:426
1.400:423
1.400:426
1.401:432
1.401:433
1.401:422
1.401:397
1.416:397
1.416:393
1.420:423
1.420:429
1.420:424
1.420:418
1.420:421
1.420:423
1.420:428
1.420:433
1.420:428
1.420:426
1.425:435
1.425:444
1.425:438
1.425:425
1.425:405
1.425:402
1.426:394
1.426:383
1.426:397
1.429:404
1.429:406
1.429:417
1.429:423
1.429:427
1.429:430
1.429:432
1.429:429
1.430:422
1.449:416
1.449:411
1.449:418
1.449:420
1.449:433
1.449:438
1.449:442
1.451:447
1.451:431
1.453:425
1.453:433
1.453:441
1.453:449
1.454:464
1.454:462
1.454:464
1.454:467
1.454:467
1.457:465
1.457:474
1.457:482
1.458:488
1.458:491
1.458:496
1.458:504
1.458:503
1.458:507
1.458:516
1.461:517
1.461:519
1.477:519
1.477:523
1.477:530
1.477:534
1.477:539
1.477:541
1.477:546
1.477:558
1.482:565
1.482:565
1.482:554
1.482:559
1.482:563
1.482:557
1.482:562
1.482:571
1.483:575
1.485:579
1.486:584
1.486:585
1.486:585
1.486:585
1.486:580
1.486:577
1.486:584
1.486:588
1.486:593
1.489:599
1.489:602
1.489:608
1.505:612
1.506:613
1.506:611
1.506:602
1.506:596
1.510:598
1.510:600
1.510:601
1.510:604
1.511:611
1.511:609
1.511:606
1.511:605
1.511:600
1.514:599
1.514:605
1.514:611
1.514:607
1.515:606
1.515:617
1.515:608
1.515:608
1.515:616
1.516:618
1.519:612
1.519:602
1.519:595
1.519:598
1.519:604
1.519:597
1.535:597
1.535:591
1.536:590
1.536:591
1.539:588
1.539:587
1.539:580
1.540:577
1.540:585
1.540:596
1.540:600
1.540:596
1.540:596
1.543:600
1.543:594
1.543:587
1.543:597
1.543:594
1.543:585
1.543:572
1.543:566
1.543:565
1.543:559
1.547:567
1.547:563
1.547:566
1.548:577
1.548:588
1.548:592
1.548:594
1.563:597
1.568:588
1.568:579
1.568:566
1.568:562
1.568:563
1.568:564
1.568:560
1.568:562
1.568:561
1.572:547
1.572:538
1.572:538
1.572:548
1.572:551
1.572:548
1.572:545
1.572:550
1.572:551
1.572:551
1.576:550
1.576:545
1.576:544
1.576:548
1.576:557
1.576:562
1.576:564
1.576:555
1.576:543
1.580:534
1.596:534
1.596:527
1.596:531
1.596:535
1.596:536
1.596:549
1.596:564
1.597:552
1.597:538
1.600:536
1.600:535
1.600:530
1.600:526
1.600:529
1.600:532
1.600:541
1.601:537
1.601:533
1.601:535
1.604:529
1.604:520
1.604:512
1.604:513
1.604:520
1.604:520
1.604:531
1.604:531
1.605:524
1.609:522
1.609:513
1.624:516
1.625:528
1.625:537
1.625:543
1.625:536
1.625:530
1.630:531
1.630:537
1.630:542
1.630:533
1.630:523
1.630:508
1.630:502
1.630:505
1.630:504
1.630:502
1.633:513
1.633:514
1.633:515
1.633:515
1.633:519
1.633:519
1.634:514
1.634:510
1.634:499
1.637:501
1.637:516
1.637:521
1.637:519
1.637:510
1.654:510
1.654:503
1.654:494
1.654:492
1.654:498
1.658:510
1.658:515
1.658:510
1.658:506
1.658:510
1.658:516
1.658:511
1.658:506
1.658:507
1.658:504
1.662:497
1.662:507
1.662:517
1.662:510
1.662:509
1.662:517
1.662:514
1.662:505
1.662:503
1.665:502
1.666:511
1.666:507
1.666:504
1.666:498
1.666:500
1.682:502
1.682:501
1.687:504
1.687:505
1.687:508
1.687:505
1.687:500
1.687:498
1.687:499
1.687:496
1.687:498
1.691:509
1.691:520
1.691:517
1.691:512
1.691:501
1.691:487
1.691:484
1.691:493
1.691:496
1.691:495
1.694:489
1.695:502
1.695:500
1.695:495
1.695:495
1.695:499
1.695:501
1.695:509
1.695:501
1.711:501
1.715:508
1.715:507
1.715:489
1.716:473
1.716:472
1.716:484
1.716:496
1.716:503
1.716:499
1.719:497
1.719:498
1.719:502
1.719:512
1.719:512
1.720:506
1.720:501
1.720:506
1.720:504
1.720:505
1.723:503
1.723:492
1.723:497
1.723:495
1.723:494
1.724:491
1.724:491
1.724:490
1.724:492
1.724:500
1.743:509
1.743:513
1.743:516
1.743:519
1.743:506
1.743:500
1.744:495
1.748:492
1.748:491
1.749:493
1.749:498
1.749:499
1.749:494
1.749:490
1.749:491
1.749:496
1.749:500
1.752:489
1.752:486
1.752:492
1.752:491
1.752:489
1.752:496
1.752:502
1.753:495
1.753:501
1.756:503
1.756:507
1.756:500
1.756:498
1.772:498
1.772:498
1.772:498
1.772:501
1.772:500
1.772:488
1.777:489
1.777:505
1.777:501
1.777:484
1.777:479
1.777:478
1.777:489
1.777:502
1.777:512
1.777:501
1.781:508
1.781:506
1.781:503
1.781:494
1.781:501
1.781:499
1.781:497
1.781:495
1.782:497
1.785:495
1.785:490
1.785:488
1.785:487
1.785:487
1.800:485
1.800:481
1.800:487
1.805:498
1.805:500
1.805:504
1.805:505
1.805:497
1.805:496
1.805:495
1.806:489
1.806:482
1.806:483
1.809:493
1.809:495
1.809:489
1.810:481
1.810:473
1.810:470
1.810:477
1.810:480
1.810:489
1.813:492
1.813:497
1.813:507
1.813:500
1.813:488
1.813:480
1.813:481
1.813:474
1.829:474
1.829:470
1.833:473
1.833:477
1.833:492
1.835:504
1.835:504
1.835:496
1.835:488
1.835:476
1.835:463
1.835:466
1.838:484
1.838:493
1.838:491
1.838:479
1.838:472
1.838:465
1.838:460
1.838:459
1.838:460
1.842:460
1.842:451
1.842:439
1.842:429
1.842:436
1.842:444
1.842:445
1.842:445
1.842:443
1.862:443
1.863:440
1.863:445
1.863:453
1.863:462
1.863:469
1.863:459
1.863:459
1.863:464
1.866:467
1.866:468
1.867:452
1.867:439
1.867:442
1.867:442
1.867:437
1.867:447
1.867:459
1.871:457
1.871:454
1.871:454
1.871:460
1.871:463
1.871:464
1.871:472
1.872:475
1.872:478
1.872:476
1.875:473
1.875:483
1.890:483
1.890:489
1.890:487
1.890:481
1.890:491
1.890:500
1.890:510
1.890:512
1.896:507
1.896:495
1.896:497
1.896:493
1.896:495
1.896:506
1.896:511
1.896:523
1.896:518
1.900:520
1.900:518
1.900:516
1.900:513
1.900:520
1.900:517
1.900:510
1.901:503
1.901:497
1.901:497
1.903:491
1.903:485
1.903:486
1.919:500
1.919:515
1.919:522
1.919:520
1.919:512
1.924:518
1.924:511
1.924:497
1.924:494
1.924:506
1.924:524
1.924:521
1.924:523
1.924:522
1.928:510
1.928:497
1.928:502
1.928:502
1.928:502
1.928:507
1.928:510
1.928:494
1.928:493
1.928:498
1.932:502
1.932:515
1.932:530
1.932:528
1.932:526
1.933:520
1.948:520
1.948:514
1.948:519
1.949:519
1.952:514
1.952:509
1.952:504
1.952:500
1.952:501
1.952:498
1.952:502
1.952:505
1.952:505
1.957:500
1.957:504
1.957:503
1.957:514
1.957:511
1.957:517
1.957:516
1.957:505
1.957:495
1.957:503
1.961:500
1.961:501
1.961:505
1.961:509
1.961:506
1.961:507
1.961:518
1.982:514
1.982:510
1.982:518
1.983:513
1.983:509
1.983:506
1.983:508
1.983:511
1.983:507
1.983:504
1.986:517
1.986:513
1.986:514
1.986:522
1.986:536
1.986:547
1.986:538
1.986:546
1.986:553
1.986:534
1.989:519
1.989:516
1.990:519
1.990:491
1.990:451
1.990:414
1.990:392
1.990:369
1.990:357
1.993:339
2.010:339
2.010:309
2.010:280
2.010:245
2.010:207
2.010:160
2.010:107
2.010:43
2.010:17
2.010:17
2.013:17
2.013:17
2.013:18
2.014:18
2.014:18
2.014:19
2.014:19
2.014:19
2.014:19
2.014:19
2.014:19
2.014:19
2.017:19
2.017:18
2.018:18
2.018:17
2.018:17
2.018:33
2.018:122
2.018:226
2.039:315
2.039:434
2.039:544
2.039:614
2.039:649
2.039:675
2.043:697
2.043:696
2.043:659
2.043:628
2.043:619
2.043:607
2.043:610
2.043:601
2.043:594
2.047:608
2.047:626
2.047:627
2.047:634
2.047:620
2.047:608
2.047:600
2.047:593
2.047:580
2.047:576
2.050:563
2.051:559
2.051:572
2.051:579
2.051:582
2.067:582
2.067:573
2.067:581
2.067:590
2.067:587
2.071:586
2.071:581
2.072:581
2.072:583
2.072:581
2.072:580
2.072:585
2.072:592
2.072:606
2.072:616
2.075:613
2.075:610
2.075:617
2.075:618
2.075:616
2.075:616
2.075:607
2.075:599
2.075:585
2.080:584
2.080:568
2.080:561
2.080:551
2.080:541
2.080:552
2.096:572
2.096:595
2.100:608
2.100:617
2.100:592
2.100:572
2.100:576
2.100:585
2.100:582
2.100:564
2.100:558
2.104:539
2.104:515
2.104:516
2.104:536
2.104:551
2.104:557
2.104:559
2.104:558
2.104:562
2.104:544
2.109:536
2.109:529
2.109:525
2.109:522
2.109:523
2.109:527
2.109:541
2.109:548
2.109:542
2.125:542
2.129:533
2.129:514
2.129:507
2.129:510
2.129:524
2.129:523
2.129:514
2.129:494
2.129:497
2.133:501
2.134:500
2.134:502
2.134:506
2.134:500
2.134:492
2.134:498
2.134:503
2.134:518
2.134:517
2.137:522
2.137:526
2.137:520
2.137:515
2.137:519
2.137:508
2.137:498
2.137:490
2.137:489
2.137:494
2.157:494
2.157:490
2.157:485
2.157:488
2.157:507
2.157:512
2.157:504
2.161:511
2.161:508
2.161:497
2.162:488
2.162:480
2.162:469
2.162:465
2.162:472
2.163:482
2.163:483
2.166:486
2.166:482
2.166:466
2.166:461
2.167:460
2.167:460
2.167:464
2.167:458
2.167:457
2.170:458
2.170:463
2.170:466
2.170:468
2.186:468
2.186:467
2.186:467
2.186:466
2.186:463
2.187:457
2.190:449
2.190:446
2.190:442
2.190:438
2.190:441
2.190:448
2.190:443
2.190:434
2.190:438
2.190:439
2.195:438
2.195:434
2.195:430
2.195:439
2.195:446
2.195:443
2.195:435
2.195:430
2.195:423
2.198:419
2.199:426
2.199:427
2.199:424
2.199:410
2.215:408
2.215:410
2.215:413
2.219:403
2.219:397
2.219:399
2.219:402
2.219:404
2.219:397
2.219:395
2.219:393
2.219:398
2.219:401
2.223:400
2.223:406
2.223:405
2.223:404
2.223:401
2.223:397
2.223:389
2.223:389
2.224:391
2.227:393
2.227:400
2.227:400
2.227:400
2.227:400
2.227:402
2.227:409
2.227:412
2.243:412
2.243:419
2.248:421
2.248:420
2.249:411
2.249:405
2.249:406
2.249:405
2.249:407
2.249:407
2.249:404
2.249:411
2.252:411
2.252:420
2.252:423
2.252:430
2.252:436
2.252:443
2.252:448
2.252:450
2.252:464
2.256:478
2.256:471
2.256:466
2.256:480
2.256:487
2.256:504
2.256:513
2.256:507
2.256:493
2.276:490
2.276:493
2.276:500
2.276:516
2.276:521
2.276:527
2.276:535
2.276:538
2.276:539
2.280:544
2.280:553
2.280:555
2.280:569
2.280:569
2.281:568
2.281:562
2.281:568
2.281:572
2.284:575
2.284:575
2.284:576
2.284:579
2.284:576
2.284:576
2.284:577
2.284:576
2.285:578
2.285:579
2.288:584
2.288:592
2.305:592
2.305:604
2.305:609
2.305:609
2.305:609
2.305:606
2.305:602
2.305:601
2.309:606
2.309:600
2.309:604
2.309:598
2.309:590
2.309:586
2.310:589
2.310:590
2.310:593
2.313:600
2.313:595
2.313:593
2.313:598
2.313:599
2.313:598
2.313:615
2.313:606
2.313:595
2.314:589
2.317:588
2.318:585
2.318:581
2.333:584
2.333:574
2.333:572
2.333:571
2.337:570
2.337:571
2.337:580
2.337:581
2.337:591
2.337:593
2.337:575
2.337:571
2.338:572
2.338:575
2.342:574
2.342:574
2.342:579
2.342:578
2.342:575
2.342:575
2.342:571
2.342:567
2.342:581
2.342:578
2.345:573
2.345:569
2.345:560
2.346:553
2.346:558
2.346:556
2.362:556
2.362:558
2.362:566
2.362:565
2.366:563
2.366:564
2.367:566
2.367:560
2.367:555
2.367:553
2.367:552
2.367:550
2.367:546
2.371:552
2.371:549
2.371:545
2.371:545
2.371:542
2.371:537
2.371:537
2.371:547
2.371:554
2.371:562
2.374:560
2.374:554
2.374:549
2.374:543
2.374:541
2.374:543
2.374:546
2.395:550
2.395:548
2.395:536
2.395:531
2.395:528
2.395:527
2.395:530
2.395:532
2.395:530
2.395:533
2.399:537
2.399:535
2.399:543
2.399:544
2.399:542
2.399:529
2.400:526
2.400:520
2.400:525
2.403:519
2.403:518
2.403:514
2.403:510
2.403:516
2.404:518
2.404:526
2.404:531
2.404:525
2.404:527
2.407:527
2.423:527
2.423:524
2.423:522
2.423:523
2.423:522
2.423:525
2.423:525
2.423:520
2.423:519
2.428:515
2.428:513
2.428:513
2.428:514
2.428:510
2.428:511
2.428:515
2.428:511
2.428:503
2.428:500
2.431:497
2.432:502
2.432:509
2.432:518
2.432:522
2.432:521
2.432:521
2.432:514
2.432:513
2.436:515
2.436:521
2.452:517
2.453:519
2.453:520
2.453:515
2.453:496
2.453:487
2.457:485
2.457:491
2.457:495
2.457:501
2.457:501
2.457:496
2.457:498
2.457:507
2.457:507
2.461:505
2.461:507
2.461:504
2.461:503
2.461:506
2.461:507
2.461:514
2.461:510
2.461:500
2.461:492
2.465:489
2.465:493
2.466:493
2.466:489
2.466:489
2.481:489
2.481:495
2.481:496
2.481:500
2.481:502
2.485:505
2.485:503
2.485:504
2.485:505
2.485:504
2.485:503
2.485:504
2.485:504
2.485:497
2.486:494
2.489:492
2.489:488
2.489:490
2.489:490
2.489:493
2.489:504
2.489:503
2.489:502
2.489:506
2.493:507
2.493:503
2.493:496
2.493:496
2.493:498
2.493:497
2.509:498
2.509:502
2.513:503
2.513:498
2.513:493
2.513:494
2.514:499
2.514:499
2.514:497
2.514:496
2.514:501
2.518:503
2.518:503
2.518:510
2.518:512
2.518:514
2.518:514
2.518:505
2.518:499
2.518:501
2.519:513
2.522:514
2.522:517
2.522:507
2.522:502
2.522:491
2.522:494
2.522:498
2.522:501
2.523:501
2.538:501
2.543:499
2.543:497
2.543:495
2.543:500
2.543:505
2.544:511
2.544:508
2.544:499
2.544:502
2.547:497
2.547:490
2.547:490
2.547:497
2.547:489
2.547:482
2.547:479
2.547:488
2.547:496
2.547:502
2.551:496
2.551:487
2.551:487
2.551:489
2.551:499
2.551:506
2.551:528
2.551:531
2.551:513
2.551:507
2.571:501
2.571:495
2.571:487
2.571:480
2.571:479
2.571:484
2.571:481
2.575:484
2.575:478
2.575:480
2.575:478
2.575:471
2.575:467
2.575:471
2.575:478
2.575:477
2.575:469
2.580:466
2.580:470
2.580:467
2.580:463
2.580:458
2.580:453
2.580:451
2.580:449
2.580:450
2.583:447
2.584:453
2.584:460
2.584:462
2.599:462
2.599:458
2.599:460
2.599:468
2.599:464
2.600:469
2.603:473
2.603:479
2.604:474
2.604:476
2.604:474
2.604:472
2.604:471
2.604:472
2.604:470
2.604:466
2.608:465
2.608:464
2.608:465
2.608:463
2.608:466
2.608:472
2.608:476
2.608:483
2.608:487
2.612:492
2.612:489
2.612:496
2.612:506
2.612:523
2.628:532
2.628:535
2.628:523
2.632:516
2.633:523
2.633:519
2.633:503
2.633:492
2.633:496
2.633:497
2.634:500
2.634:505
2.634:513
2.636:520
2.636:517
2.636:515
2.636:515
2.636:518
2.636:518
2.637:514
2.637:513
2.637:519
2.641:523
2.641:527
2.641:522
2.641:508
2.641:502
2.641:505
2.641:510
2.641:507
2.657:507
2.657:510
2.661:510
2.661:508
2.661:510
2.662:517
2.662:524
2.662:526
2.662:529
2.662:535
2.662:526
2.662:513
2.665:508
2.665:509
2.665:518
2.665:522
2.665:520
2.665:519
2.666:515
2.666:510
2.666:506
2.669:511
2.669:508
2.669:508
2.669:518
2.669:522
2.669:527
2.669:529
2.669:525
2.669:523
2.689:526
2.689:522
2.689:523
2.689:516
2.690:514
2.690:512
2.690:499
2.690:495
2.690:505
2.694:515
2.694:522
2.694:516
2.694:512
2.694:511
2.694:510
2.694:514
2.694:523
2.694:521
2.698:517
2.698:513
2.698:518
2.699:516
2.699:508
2.699:503
2.699:506
2.699:509
2.699:508
2.699:513
2.702:512
2.702:514
2.718:514
2.719:508
2.719:501
2.719:500
2.719:521
2.719:538
2.719:542
2.719:548
2.722:549
2.722:542
2.722:540
2.722:544
2.722:551
2.722:550
2.722:534
2.722:515
2.722:495
2.726:476
2.726:465
2.726:450
2.726:440
2.726:423
2.726:401
2.726:378
2.726:359
2.726:329
2.726:288
2.730:244
2.730:206
2.730:176
2.746:141
2.746:90
2.746:43
2.746:16
2.747:17
2.750:17
2.750:17
2.750:17
2.750:18
2.750:18
2.752:18
2.752:19
2.752:18
2.752:19
2.752:19
2.752:19
2.752:18
2.755:18
2.755:17
2.755:17
2.755:17
2.755:87
2.755:162
2.755:233
2.755:314
2.755:424
2.756:535
2.756:610
2.759:656
2.759:683
2.775:683
2.775:677
2.775:655
2.775:630
2.780:615
2.780:595
2.780:590
2.780:603
2.780:608
2.780:595
2.780:579
2.780:573
2.780:574
2.784:573
2.784:578
2.784:585
2.784:584
2.784:575
2.784:574
2.784:582
2.784:579
2.786:579
2.786:585
2.788:581
2.788:583
2.788:591
2.788:593
2.788:598
2.788:612
2.788:616
2.808:608
2.808:607
2.808:609
2.808:594
2.808:584
2.808:583
2.808:586
2.809:588
2.809:582
2.809:582
2.812:580
2.812:580
2.812:585
2.812:589
2.812:593
2.812:587
2.812:579
2.812:581
2.813:592
2.816:598
2.817:596
2.817:595
2.817:589
2.817:581
2.817:573
2.817:575
2.817:573
2.817:569
2.817:566
2.820:555
2.837:555
2.837:550
2.837:558
2.837:564
2.837:565
2.837:562
2.837:569
2.837:572
2.837:567
2.841:562
2.841:563
2.841:566
2.841:559
2.841:557
2.841:549
2.842:542
2.842:536
2.842:543
2.842:535
2.845:526
2.845:527
2.845:536
2.845:540
2.846:543
2.846:540
2.846:539
2.846:537
2.846:534
2.849:534
2.849:535
2.865:540
2.866:539
2.866:539
2.866:532
2.866:532
2.866:534
2.870:532
2.870:525
2.870:517
2.870:510
2.870:508
2.870:506
2.870:503
2.870:509
2.870:515
2.874:521
2.874:525
2.874:522
2.874:518
2.874:515
2.875:521
2.875:519
2.875:513
2.875:511
2.875:517
2.878:520
2.878:521
2.878:510
2.878:490
2.878:488
2.894:488
2.894:488
2.894:496
2.894:495
2.894:493
2.898:492
2.898:490
2.898:481
2.898:482
2.898:493
2.898:495
2.899:496
2.899:491
2.899:493
2.902:498
2.902:501
2.902:507
2.903:490
2.903:473
2.903:473
2.903:474
2.903:468
2.903:470
2.903:465
2.906:465
2.906:470
2.906:469
2.906:465
2.906:465
2.906:472
2.922:478
2.922:486
2.927:486
2.927:486
2.927:487
2.927:491
2.927:483
2.927:459
2.927:443
2.927:435
2.927:435
2.930:439
2.930:444
2.930:445
2.932:447
2.932:437
2.932:436
2.932:434
2.932:435
2.932:437
2.932:438
2.935:447
2.935:447
2.935:442
2.936:437
2.936:430
2.936:432
2.936:427
2.936:418
2.936:412
2.951:412
2.956:412
2.956:418
2.956:427
2.956:422
2.956:416
2.956:415
2.956:413
2.956:416
2.956:421
2.959:430
2.959:431
2.960:426
2.960:416
2.960:418
2.960:421
2.960:420
2.960:427
2.960:434
2.960:426
2.964:417
2.964:422
2.964:419
2.964:417
2.964:416
2.964:415
2.964:415
2.964:420
2.965:428
2.967:432
2.984:439
2.984:435
2.984:434
2.985:435
2.985:440
2.985:444
2.985:451
2.988:468
2.989:477
2.989:470
2.989:470
2.989:462
2.989:457
2.989:459
2.989:456
2.989:454
2.989:459
2.992:470
2.992:482
2.992:494
2.992:507
2.992:512
2.992:513
2.993:509
2.993:507
2.993:506
2.996:514
2.996:519
2.996:515
2.996:523
3.012:523
3.013:523
3.013:538
3.013:548
3.013:554
3.013:553
3.017:543
3.017:536
3.017:541
3.017:554
3.017:569
3.019:582
3.019:579
3.019:575
3.019:572
3.020:576
3.021:573
3.021:571
3.021:569
3.022:569
3.022:567
3.022:560
3.022:562
3.022:564
3.022:570
3.025:573
3.025:576
3.025:584
3.025:593
3.025:594
3.041:592
3.041:592
3.041:588
3.046:587
3.046:587
3.046:593
3.046:597
3.046:586
3.046:584
3.046:583
3.046:585
3.046:587
3.046:579
3.049:574
3.049:576
3.050:576
3.050:575
3.050:580
3.050:581
3.050:578
3.050:582
3.050:590
3.054:588
3.054:588
3.054:592
3.054:593
3.054:586
3.054:583
3.054:578
3.054:576
3.070:576
3.070:567
3.075:559
3.075:561
3.075:563
3.075:568
3.075:565
3.075:564
3.075:565
3.075:563
3.075:565
3.075:569
3.079:570
3.079:572
3.079:571
3.079:570
3.079:567
3.079:571
3.079:574
3.079:565
3.079:560
3.083:562
3.083:554
3.083:551
3.083:545
3.083:536
3.083:534
3.083:535
3.083:547
3.084:554
3.103:555
3.103:553
3.103:557
3.103:555
3.103:550
3.103:543
3.104:531
3.104:532
3.104:537
3.107:541
3.107:547
3.107:547
3.107:542
3.107:540
3.107:535
3.108:534
3.108:534
3.108:540
3.111:554
3.111:555
3.111:537
3.111:515
3.111:529
3.112:542
3.112:540
3.112:534
3.112:530
3.112:529
3.115:527
3.115:525
3.132:525
3.132:528
3.132:521
3.132:522
3.132:521
3.132:513
3.132:514
3.132:517
3.136:522
3.136:526
3.136:533
3.136:528
3.136:526
3.136:526
3.136:518
3.136:522
3.136:527
3.140:529
3.140:529
3.140:524
3.140:518
3.140:513
3.140:513
3.140:514
3.140:522
3.140:516
3.140:514
3.144:517
3.144:511
3.144:510
3.160:512
3.160:511
3.160:510
3.160:512
3.164:519
3.164:521
3.164:509
3.164:508
3.164:513
3.164:514
3.164:508
3.164:505
3.165:501
3.165:497
3.169:497
3.169:500
3.169:501
3.169:498
3.169:501
3.169:499
3.169:505
3.169:515
3.169:522
3.173:517
3.173:512
3.173:511
3.173:516
3.173:523
3.173:522
3.173:510
3.188:510
3.188:508
3.189:506
3.193:506
3.193:506
3.193:499
3.193:492
3.194:491
3.194:494
3.194:495
3.194:494
3.194:489
3.194:492
3.197:503
3.198:506
3.198:510
3.198:512
3.198:508
3.198:516
3.198:524
3.198:516
3.198:506
3.198:501
3.202:493
3.202:490
3.202:487
3.202:491
3.202:491
3.202:490
3.202:490
3.222:496
3.222:499
3.222:502
3.222:513
3.222:513
3.222:511
3.222:503
3.222:501
3.222:501
3.222:503
3.226:508
3.226:507
3.226:494
3.226:482
3.226:485
3.226:485
3.226:486
3.226:481
3.226:484
3.230:495
3.230:492
3.230:492
3.232:502
3.232:510
3.232:509
3.232:509
3.232:502
3.232:507
3.233:502
3.234:501
3.251:501
3.251:499
3.251:491
3.251:486
3.251:485
3.251:488
3.251:491
3.251:496
3.251:497
3.255:493
3.255:494
3.255:497
3.255:498
3.255:498
3.255:504
3.255:502
3.255:499
3.255:504
3.259:508
3.259:513
3.259:510
3.259:509
3.259:502
3.259:496
3.259:490
3.259:488
3.259:483
3.259:486
3.263:487
3.263:487
3.279:487
3.279:490
3.279:495
3.279:501
3.279:508
3.279:503
3.284:500
3.284:500
3.284:501
3.284:503
3.284:510
3.284:512
3.284:506
3.284:504
3.284:495
3.288:483
3.288:473
3.288:474
3.288:476
3.288:483
3.288:493
3.288:492
3.288:495
3.289:496
3.289:504
3.292:507
3.292:503
3.292:492
3.292:485
3.292:480
3.308:480
3.308:478
3.308:477
3.308:470
3.308:474
3.312:469
3.312:462
3.312:460
3.312:466
3.312:464
3.312:466
3.312:467
3.313:465
3.313:460
3.316:456
3.316:457
3.316:458
3.316:459
3.316:455
3.316:456
3.316:455
3.316:455
3.316:450
3.316:454
3.320:460
3.320:455
3.320:463
3.320:466
3.320:461
3.320:443
3.336:447
3.337:471
3.341:488
3.341:491
3.341:482
3.341:478
3.341:474
3.341:476
3.341:473
3.341:477
3.341:476
3.345:475
3.345:472
3.345:472
3.345:472
3.345:471
3.345:478
3.345:481
3.345:488
3.345:499
3.345:505
3.349:506
3.349:508
3.349:514
3.349:514
3.349:524
3.349:526
3.349:523
3.349:515
3.349:516
3.365:516
3.370:522
3.370:521
3.370:517
3.370:517
3.370:513
3.370:495
3.370:494
3.370:492
3.370:494
3.373:503
3.373:507
3.373:508
3.374:514
3.374:515
3.374:511
3.374:519
3.374:526
3.374:522
3.374:518
3.378:518
3.378:524
3.378:526
3.378:522
3.378:518
3.378:509
3.378:505
3.378:508
3.378:506
3.381:508
3.398:511
3.398:520
3.398:515
3.398:516
3.398:514
3.398:512
3.398:519
3.402:525
3.402:525
3.402:524
3.402:525
3.402:522
3.402:522
3.402:516
3.402:512
3.403:514
3.403:516
3.405:515
3.405:513
3.405:516
3.406:517
3.406:519
3.406:518
3.406:521
3.406:517
3.406:520
3.410:527
3.410:529
3.410:521
3.410:515
3.426:515
3.426:511
3.426:514
3.426:523
3.426:521
3.426:517
3.430:515
3.431:512
3.431:513
3.431:515
3.431:509
3.431:515
3.431:521
3.431:516
3.431:525
3.431:527
3.435:522
3.435:513
3.435:514
3.435:513
3.435:510
3.435:510
3.435:508
3.435:507
3.435:507
3.439:512
3.439:510
3.439:509
3.439:510
3.439:516
3.455:520
3.455:532
3.455:543
3.459:542
3.459:543
3.459:539
3.459:527
3.459:518
3.459:504
3.459:487
3.459:470
3.459:452
3.459:430
3.463:407
3.463:384
3.463:360
3.463:333
3.463:293
3.463:249
3.464:214
3.464:180
3.464:139
3.468:98
3.468:61
3.468:26
3.468:17
3.468:17
3.468:17
3.468:17
3.468:18
3.484:18
3.484:18
3.484:18
3.488:18
3.488:18
3.488:18
3.488:19
3.488:19
3.488:19
3.488:18
3.488:17
3.488:17
3.488:17
3.488:47
3.488:135
3.492:217
3.492:295
3.492:395
3.492:507
3.492:594
3.492:640
3.492:665
3.492:671
3.492:664
3.497:652
3.497:631
3.497:616
3.498:592
3.498:573
3.498:568
3.516:567
3.516:556
3.516:550
3.516:553
3.516:554
3.516:570
3.516:583
3.517:586
3.521:586
3.521:585
3.521:587
3.521:591
3.522:594
3.522:595
3.522:586
3.522:583
3.522:596
3.522:599
3.525:592
3.525:590
3.525:595
3.525:600
3.525:601
3.525:598
3.525:595
3.525:597
3.525:608
3.525:616
3.528:612
3.528:607
3.545:607
3.545:603
3.545:603
3.545:599
3.545:597
3.545:594
3.545:593
3.545:602
3.549:600
3.549:589
3.549:579
3.549:579
3.549:586
3.549:591
3.549:591
3.549:584
3.550:583
3.553:568
3.553:576
3.553:580
3.553:579
3.554:577
3.554:580
3.554:580
3.554:572
3.554:570
3.554:567
3.557:564
3.557:556
3.557:552
3.574:554
3.574:553
3.574:548
3.574:544
3.578:546
3.578:555
3.578:562
3.578:576
3.578:588
3.578:578
3.578:561
3.578:542
3.578:541
3.578:540
3.582:545
3.582:549
3.582:554
3.583:553
3.583:539
3.583:535
3.583:529
3.583:525
3.583:522
3.587:518
3.587:524
3.587:527
3.587:528
3.587:527
3.587:531
3.587:534
3.603:534
3.603:536
3.603:529
3.607:529
3.607:524
3.607:522
3.607:523
3.607:523
3.607:529
3.607:527
3.607:523
3.607:517
3.607:506
3.611:501
3.611:497
3.611:493
3.611:503
3.612:510
3.612:511
3.612:513
3.612:512
3.612:511
3.612:507
3.615:504
3.615:503
3.615:506
3.615:512
3.615:513
3.615:507
3.616:499
3.636:489
3.636:484
3.636:482
3.636:481
3.636:494
3.636:498
3.636:490
3.636:487
3.636:486
3.636:496
3.640:500
3.640:494
3.640:486
3.640:483
3.640:488
3.640:501
3.640:503
3.640:478
3.640:462
3.644:456
3.644:457
3.644:457
3.644:460
3.644:458
3.644:463
3.644:465
3.644:462
3.644:463
3.644:462
3.648:465
3.664:465
3.664:468
3.664:469
3.664:464
3.664:466
3.665:470
3.665:463
3.665:460
3.665:454
3.668:445
3.668:434
3.669:432
3.669:435
3.669:426
3.669:422
3.669:427
3.669:427
3.669:430
3.673:429
3.673:428
3.673:437
3.673:447
3.674:454
3.674:447
3.674:449
3.674:443
3.674:430
3.674:425
3.676:424
3.676:422
3.692:419
3.692:418
3.692:416
3.692:417
3.692:413
3.692:411
3.697:408
3.697:416
3.698:420
3.698:424
3.698:428
3.698:427
3.698:422
3.698:417
3.698:420
3.701:423
3.701:420
3.701:420
3.701:420
3.702:419
3.702:404
3.702:401
3.702:413
3.702:425
3.702:433
3.704:437
3.704:439
3.704:444
3.704:449
3.704:450
3.721:450
3.721:454
3.721:454
3.721:458
3.721:466
3.725:471
3.725:471
3.726:473
3.726:473
3.726:476
3.726:474
3.726:470
3.726:477
3.726:488
3.730:491
3.730:497
3.730:502
3.731:506
3.731:508
3.731:514
3.731:522
3.731:531
3.731:540
3.731:550
3.734:548
3.734:546
3.734:548
3.734:551
3.734:559
3.734:568
3.749:566
3.749:556
3.754:539
3.754:533
3.754:543
3.754:550
3.754:550
3.754:549
3.754:555
3.754:564
3.754:576
3.758:589
3.758:588
3.758:588
3.758:592
3.758:592
3.758:595
3.758:596
3.758:585
3.758:583
3.758:579
3.762:579
3.762:587
3.762:589
3.762:588
3.762:580
3.762:572
3.762:572
3.763:579
3.763:585
3.778:585
3.783:589
3.783:595
3.783:595
3.783:598
3.783:595
3.783:594
3.783:593
3.783:590
3.783:580
3.787:585
3.787:581
3.787:577
3.787:585
3.787:581
3.787:577
3.787:573
3.787:572
3.787:567
3.787:568
3.792:575
3.792:571
3.792:573
3.792:576
3.792:577
3.792:575
3.792:569
3.792:567
3.792:567
3.795:561
3.810:560
3.812:559
3.812:549
3.812:550
3.812:557
3.812:565
3.812:566
3.816:563
3.816:558
3.816:552
3.817:548
3.817:545
3.817:549
3.817:553
3.817:553
3.817:554
3.817:562
3.820:560
3.820:558
3.820:551
3.820:546
3.820:543
3.820:541
3.820:549
3.820:553
3.820:543
3.824:534
3.824:535
3.824:538
3.824:547
3.840:547
3.840:543
3.840:536
3.840:542
3.840:545
3.840:544
3.845:543
3.845:538
3.845:531
3.845:534
3.845:543
3.845:544
3.845:536
3.845:528
3.845:528
3.845:524
3.848:521
3.848:524
3.849:521
3.849:523
3.849:531
3.849:536
3.849:539
3.849:543
3.849:545
3.852:540
3.852:536
3.852:530
3.852:524
3.852:526
3.868:521
3.868:519
3.868:522
3.873:522
3.873:527
3.873:532
3.873:524
3.873:519
3.873:517
3.873:514
3.873:519
3.873:520
3.877:522
3.877:524
3.877:521
3.877:520
3.877:521
3.877:518
3.877:509
3.877:508
3.877:509
3.877:513
3.880:514
3.880:509
3.880:504
3.880:503
3.880:499
3.882:506
3.882:509
3.882:503
3.897:503
3.897:507
3.902:515
3.902:524
3.902:525
3.902:520
3.902:517
3.902:521
3.902:515
3.902:511
3.902:508
3.902:508
3.906:509
3.906:508
3.906:509
3.906:508
3.906:505
3.906:501
3.906:499
3.906:508
3.906:512
3.910:511
3.910:513
3.910:516
3.910:513
3.910:518
3.910:528
3.910:524
3.910:512
3.910:491
3.930:493
3.930:498
3.930:505
3.930:497
3.930:495
3.930:495
3.930:499
3.930:502
3.935:505
3.935:504
3.935:506
3.935:512
3.935:515
3.935:517
3.935:512
3.935:511
3.935:509
3.935:511
3.939:511
3.939:514
3.939:510
3.939:505
3.939:504
3.939:492
3.939:486
3.939:483
3.939:488
3.943:489
3.943:490
3.943:490
3.958:490
3.959:492
3.959:497
3.959:505
3.959:514
3.959:512
3.959:508
3.959:500
3.963:500
3.963:500
3.963:501
3.963:503
3.963:500
3.964:497
3.964:487
3.964:488
3.964:496
3.968:505
3.968:505
3.968:497
3.968:489
3.968:497
3.968:502
3.968:506
3.968:511
3.968:513
3.968:509
3.971:499
3.971:496
3.971:505
3.987:514
3.987:510
3.987:507
3.987:500
3.992:492
3.992:489
3.992:488
3.992:493
3.992:497
3.992:505
3.992:500
3.992:491
3.992:489
3.992:495
3.997:509
3.997:517
3.998:521
3.998:518
3.998:512
3.998:509
3.998:508
3.998:508
3.998:510
4.000:510
4.000:498
4.000:495
4.000:485
4.000:490
4.000:496
4.000:499
4.016:499
4.016:503
4.016:508
4.021:501
4.021:500
4.021:508
4.021:515
4.021:515
4.021:508
4.021:509
4.021:505
4.021:499
4.021:501
4.024:505
4.024:510
4.025:499
4.025:482
4.025:472
4.025:481
4.025:489
4.025:489
4.025:486
4.025:486
4.028:491
4.028:495
4.028:502
4.028:510
4.028:515
4.028:511
4.028:506
4.049:494
4.050:486
4.050:484
4.050:482
4.050:476
4.050:470
4.050:473
4.050:469
4.050:473
4.050:466
4.053:463
4.053:459
4.053:461
4.053:463
4.053:464
4.053:469
4.053:466
4.053:465
4.054:458
4.058:458
4.058:463
4.058:461
4.058:458
4.058:452
4.058:449
4.058:449
4.058:457
4.058:456
4.058:450
4.062:458
4.077:458
4.077:456
4.077:453
4.077:464
4.077:473
4.077:478
4.079:479
4.079:481
4.079:485
4.082:487
4.082:494
4.082:491
4.082:487
4.082:488
4.082:483
4.082:477
4.083:470
4.083:472
4.086:475
4.086:488
4.086:491
4.086:496
4.086:502
4.086:507
4.087:520
4.087:529
4.087:524
4.087:511
4.090:511
4.090:511
4.106:513
4.107:507
4.107:504
4.107:512
4.107:515
4.107:510
4.110:497
4.111:497
4.111:497
4.111:500
4.111:504
4.111:510
4.111:519
4.111:518
4.111:522
4.114:522
4.114:516
4.114:516
4.114:517
4.115:516
4.115:512
4.115:515
4.115:519
4.115:512
4.115:512
4.118:503
4.118:498
4.118:502
4.118:507
4.119:514
4.134:514
4.135:518
4.135:514
4.135:506
4.135:506
4.140:507
4.140:513
4.140:525
4.140:531
4.140:530
4.140:526
4.140:523
4.140:525
4.140:521
4.143:514
4.143:513
4.143:508
4.143:501
4.143:503
4.143:513
4.144:519
4.144:520
4.144:521
4.144:517
4.147:519
4.147:517
4.147:514
4.147:517
4.147:518
4.148:522
4.163:527
4.164:521
4.168:520
4.168:523
4.168:513
4.168:505
4.168:511
4.168:507
4.168:508
4.168:509
4.168:510
4.172:511
4.172:509
4.172:502
4.172:512
4.172:520
4.172:524
4.172:529
4.172:526
4.172:523
4.172:511
4.176:507
4.176:503
4.176:502
4.176:503
4.176:510
4.176:514
4.176:511
4.176:511
4.176:512
4.192:512
4.197:513
4.197:518
4.197:524
4.197:533
4.197:535
4.197:538
4.197:546
4.197:546
4.197:535
4.201:520
4.201:512
4.201:491
4.201:470
4.201:445
4.201:421
4.201:397
4.201:373
4.201:357
4.201:338
4.205:307
4.205:259
4.205:215
4.205:176
4.205:137
4.205:94
4.205:58
4.205:21
4.205:17
4.205:17
4.225:17
4.225:18
4.225:18
4.225:18
4.225:18
4.225:18
4.225:18
4.225:19
4.225:19
4.230:18
4.230:18
4.231:18
4.231:17
4.231:17
4.231:17
4.231:65
4.231:147
4.231:232
4.231:321
4.231:428
4.233:533
4.233:617
4.233:663
4.234:697
4.234:697
4.234:667
4.234:643
4.234:624
4.234:611
4.237:594
4.254:594
4.254:583
4.254:583
4.254:581
4.254:580
4.254:571
4.258:567
4.258:568
4.258:578
4.258:578
4.258:578
4.258:578
4.258:577
4.258:585
4.258:594
4.258:597
4.262:589
4.262:583
4.262:579
4.262:580
4.262:581
4.262:590
4.262:594
4.262:602
4.262:601
4.266:598
4.266:599
4.266:596
4.266:595
4.266:595
4.282:599
4.282:602
4.282:605
4.287:603
4.287:597
4.287:596
4.287:598
4.287:593
4.287:588
4.287:597
4.287:594
4.287:585
4.291:584
4.291:587
4.291:582
4.291:578
4.291:581
4.291:582
4.291:578
4.291:576
4.291:579
4.292:589
4.295:585
4.295:578
4.295:576
4.295:578
4.295:575
4.295:569
4.295:568
4.295:569
4.311:569
4.311:564
4.315:564
4.315:564
4.315:560
4.315:556
4.315:552
4.315:549
4.315:551
4.315:556
4.315:553
4.315:555
4.319:553
4.319:553
4.319:548
4.319:545
4.319:545
4.319:542
4.319:541
4.319:541
4.319:540
4.323:539
4.323:541
4.323:541
4.323:547
4.323:541
4.324:535
4.324:529
4.324:528
4.324:534
4.344:533
4.344:534
4.344:537
4.344:538
4.344:532
4.344:515
4.344:517
4.344:525
4.347:522
4.348:513
4.348:507
4.348:509
4.348:511
4.348:512
4.348:514
4.348:506
4.348:501
4.348:502
4.352:505
4.352:503
4.352:502
4.352:501
4.352:501
4.352:505
4.353:502
4.353:497
4.353:498
4.356:504
4.356:496
4.356:488
4.372:488
4.372:495
4.372:499
4.372:498
4.372:485
4.372:490
4.372:489
4.377:484
4.377:484
4.377:488
4.377:498
4.377:503
4.377:492
4.377:485
4.377:485
4.377:484
4.377:480
4.381:484
4.381:483
4.381:479
4.381:476
4.381:469
4.381:469
4.381:472
4.381:467
4.381:465
4.381:463
4.384:457
4.384:453
4.384:455
4.401:452
4.401:452
4.401:456
4.401:461
4.406:465
4.406:460
4.406:452
4.406:447
4.406:445
4.406:450
4.406:452
4.406:456
4.406:458
4.406:461
4.410:450
4.410:440
4.410:432
4.410:433
4.410:441
4.410:438
4.410:429
4.410:420
4.410:421
4.414:433
4.414:439
4.414:431
4.414:428
4.414:426
4.414:423
4.415:419
4.429:419
4.429:420
4.429:426
4.434:422
4.434:424
4.434:430
4.434:424
4.434:419
4.434:414
4.434:413
4.434:416
4.434:422
4.434:422
4.438:419
4.438:416
4.438:419
4.438:420
4.438:421
4.438:417
4.438:416
4.438:420
4.438:420
4.442:428
4.442:429
4.442:429
4.442:433
4.442:438
4.442:440
4.443:442
4.443:444
4.463:444
4.463:449
4.463:449
4.463:445
4.464:448
4.464:458
4.464:460
4.464:464
4.464:468
4.464:470
4.466:475
4.466:486
4.466:486
4.466:478
4.467:474
4.467:479
4.467:492
4.467:502
4.467:508
4.471:516
4.471:518
4.471:518
4.471:520
4.471:522
4.472:524
4.472:527
4.472:527
4.472:530
4.472:536
4.475:540
4.491:540
4.491:546
4.491:548
4.491:550
4.491:554
4.492:561
4.492:566
4.492:569
4.492:574
4.496:574
4.496:574
4.497:572
4.497:567
4.497:569
4.497:569
4.497:573
4.497:579
4.497:583
4.500:585
4.500:591
4.500:594
4.500:586
4.500:583
4.500:584
4.500:587
4.500:591
4.500:590
4.500:588
4.503:585
4.503:579
4.519:584
4.519:586
4.519:583
4.519:587
4.520:588
4.520:585
4.524:590
4.524:588
4.524:581
4.524:575
4.524:575
4.524:583
4.524:583
4.524:577
4.524:578
4.528:585
4.528:589
4.528:586
4.528:577
4.528:572
4.528:574
4.528:576
4.529:578
4.529:576
4.529:576
4.532:572
4.532:574
4.532:576
4.532:579
4.532:577
4.549:577
4.549:573
4.549:561
4.549:557
4.549:557
4.553:560
4.553:563
4.553:564
4.554:565
4.554:561
4.554:559
4.554:558
4.554:557
4.554:557
4.557:553
4.557:547
4.557:546
4.557:551
4.557:555
4.557:561
4.557:564
4.557:563
4.557:560
4.557:556
4.561:560
4.561:554
4.561:548
4.562:541
4.562:541
4.562:542
4.577:543
4.577:545
4.581:550
4.581:548
4.582:547
4.582:547
4.582:541
4.582:541
4.582:541
4.582:541
4.582:538
4.585:535
4.585:533
4.585:533
4.585:531
4.585:531
4.585:528
4.585:529
4.585:530
4.586:536
4.586:536
4.589:543
4.589:545
4.589:547
4.589:545
4.589:523
4.589:503
4.589:505
4.589:514
4.589:521
4.606:521
4.610:530
4.610:532
4.610:529
4.610:520
4.611:515
4.611:515
4.611:513
4.611:514
4.611:516
4.614:516
4.614:520
4.614:526
4.614:519
4.614:516
4.614:513
4.614:513
4.614:512
4.614:512
4.614:516
4.619:522
4.619:522
4.619:519
4.619:510
4.619:509
4.619:516
4.619:519
4.619:519
4.619:510
4.622:508
4.638:512
4.639:514
4.639:510
4.639:509
4.639:508
4.639:508
4.639:508
4.643:504
4.643:502
4.643:501
4.643:506
4.643:510
4.643:507
4.643:500
4.644:500
4.644:506
4.647:502
4.647:506
4.647:509
4.647:504
4.647:501
4.647:501
4.647:504
4.647:515
4.647:517
4.647:518
4.651:513
4.651:508
4.651:509
4.651:509
4.667:509
4.667:505
4.667:501
4.667:502
4.667:504
4.667:507
4.672:505
4.672:501
4.672:502
4.672:505
4.672:503
4.672:505
4.672:502
4.672:510
4.672:509
4.672:504
4.676:505
4.676:508
4.676:502
4.676:500
4.676:498
4.676:502
4.676:508
4.676:503
4.676:495
4.679:500
4.679:504
4.680:503
4.680:510
4.680:505
4.696:502
4.696:498
4.696:497
4.701:497
4.701:498
4.701:502
4.701:508
4.701:510
4.701:510
4.701:504
4.701:490
4.701:492
4.705:494
4.705:490
4.705:489
4.705:496
4.705:505
4.705:506
4.705:503
4.705:504
4.705:499
4.705:498
4.708:498
4.708:497
4.708:502
4.708:505
4.708:504
4.709:502
4.709:498
4.709:498
4.725:498
4.725:500
4.729:504
4.729:507
4.729:509
4.729:501
4.730:501
4.730:499
4.730:501
4.730:494
4.730:493
4.733:502
4.733:501
4.733:500
4.733:490
4.733:488
4.733:487
4.734:490
4.734:493
4.734:490
4.734:503
4.737:513
4.737:513
4.737:507
4.737:507
4.737:504
4.737:499
4.737:504
4.737:500
4.737:498
4.757:500
4.757:499
4.757:506
4.757:510
4.757:503
4.757:500
4.757:500
4.757:501
4.762:499
4.762:495
4.762:498
4.762:499
4.762:499
4.763:498
4.763:497
4.763:497
4.763:496
4.763:493
4.766:490
4.766:494
4.766:502
4.766:506
4.766:499
4.766:502
4.766:496
4.766:486
4.766:489
4.770:489
4.770:490
4.770:494
4.785:494
4.786:495
4.786:492
4.786:493
4.786:498
4.786:495
4.786:494
4.790:495
4.790:502
4.790:506
4.790:496
4.790:481
4.790:478
4.790:480
4.790:480
4.790:483
4.790:487
4.795:490
4.795:480
4.795:478
4.795:482
4.795:481
4.795:474
4.795:461
4.795:451
4.795:453
4.798:454
4.798:453
4.798:453
4.798:453
4.814:449
4.814:445
4.814:446
4.814:443
4.819:445
4.819:456
4.819:461
4.819:452
4.819:446
4.819:445
4.819:448
4.819:456
4.819:459
4.819:463
4.823:466
4.823:460
4.823:453
4.823:449
4.823:457
4.823:467
4.823:472
4.823:473
4.823:469
4.827:468
4.827:465
4.827:458
4.827:463
4.827:470
4.827:473
4.827:477
4.843:477
4.843:478
4.843:476
4.848:479
4.848:488
4.848:495
4.848:502
4.848:502
4.848:499
4.848:502
4.848:515
4.848:519
4.848:523
4.852:524
4.852:517
4.852:514
4.852:518
4.852:517
4.852:513
4.852:504
4.852:501
4.852:505
4.856:507
4.856:504
4.856:507
4.856:514
4.856:519
4.856:516
4.856:510
4.856:510
4.877:511
4.877:506
4.877:507
4.877:509
4.877:512
4.877:505
4.877:497
4.877:501
4.877:516
4.877:524
4.880:519
4.880:518
4.880:519
4.880:522
4.880:512
4.880:501
4.880:497
4.880:502
4.880:507
4.885:513
4.885:515
4.885:511
4.885:515
4.885:512
4.885:512
4.885:517
4.885:518
4.885:514
4.885:514
4.889:517
4.905:517
4.905:514
4.905:510
4.905:514
4.905:521
4.905:522
4.905:517
4.905:519
4.905:518
4.909:518
4.909:522
4.909:524
4.909:522
4.909:518
4.909:519
4.909:517
4.909:507
4.909:507
4.913:522
4.913:529
4.913:520
4.913:507
4.913:501
4.913:503
4.913:503
4.913:498
4.913:502
4.913:509
4.917:514
4.917:514
4.933:512
4.933:510
4.933:507
4.933:508
4.933:515
4.933:523
4.937:531
4.937:519
4.937:527
4.937:534
4.937:525
4.937:516
4.937:512
4.937:511
4.938:512
4.942:519
4.942:530
4.942:539
4.942:543
4.942:537
4.942:529
4.942:517
4.942:511
4.942:498
4.942:482
4.946:462
4.946:440
4.946:426
4.946:414
4.946:397
4.962:397
4.962:372
4.963:340
4.963:306
4.963:264
4.966:228
4.966:183
4.966:140
4.966:98
4.966:53
4.966:17
4.966:17
4.966:17
4.966:17
4.966:18
4.966:18
4.971:18
4.971:18
4.971:18
4.971:18
4.971:18
4.971:19
4.971:19
4.971:19
4.971:19
4.971:18
4.971:17
4.971:17
4.974:17
4.974:107
4.990:197
4.995:286
4.995:392
4.995:517
4.996:615
4.996:674
4.996:706
4.996:704
4.996:694
4.996:668
4.996:650
4.999:638
4.999:622
4.999:606
4.999:602
4.999:593
4.999:589
4.999:582
4.999:570
4.999:566
4.999:568
5.003:576
5.003:578
5.003:578
5.003:590
5.003:588
5.003:583
5.003:577
5.003:583
5.003:592
5.019:592
5.023:605
5.023:609
5.023:609
5.023:593
5.023:582
5.023:582
5.023:592
5.023:597
5.024:590
5.028:590
5.028:591
5.028:598
5.028:595
5.028:593
5.028:596
5.028:605
5.028:604
5.028:598
5.029:606
5.032:604
5.032:596
5.032:590
5.032:593
5.032:594
5.032:591
5.032:587
5.032:586
5.032:585
5.036:582
5.052:580
5.052:579
5.052:578
5.052:574
5.052:577
5.052:576
5.052:572
5.057:569
5.057:564
5.057:567
5.057:574
5.057:582
5.057:577
5.057:572
5.057:568
5.057:564
5.061:557
5.061:555
5.061:556
5.061:548
5.061:545
5.061:545
5.061:546
5.061:543
5.061:546
5.061:541
5.065:537
5.065:537
5.065:540
5.065:546
5.081:546
5.081:545
5.081:549
5.081:552
5.081:550
5.081:539
5.085:536
5.085:531
5.085:526
5.085:531
5.085:536
5.085:536
5.085:536
5.085:543
5.085:538
5.085:518
5.088:510
5.088:513
5.088:517
5.089:522
5.089:539
5.089:540
5.089:528
5.089:513
5.089:514
5.093:515
5.093:517
5.093:518
5.093:511
5.093:506
5.109:506
5.109:502
5.109:499
5.113:503
5.113:504
5.113:504
5.113:492
5.113:493
5.113:499
5.114:496
5.114:492
5.114:504
5.118:511
5.118:506
5.118:503
5.118:501
5.118:497
5.118:491
5.118:481
5.118:479
5.118:479
5.118:477
5.122:479
5.122:486
5.122:485
5.122:487
5.122:485
5.122:480
5.122:481
5.122:481
5.137:481
5.137:485
5.143:478
5.143:475
5.143:468
5.143:458
5.143:462
5.143:469
5.143:478
5.143:479
5.144:462
5.146:448
5.147:450
5.147:454
5.147:456
5.147:452
5.147:451
5.147:454
5.147:446
5.147:442
5.147:441
5.151:435
5.151:440
5.151:451
5.151:442
5.151:439
5.151:443
5.151:451
5.151:450
5.151:445
5.170:443
5.170:443
5.170:440
5.170:428
5.170:419
5.170:418
5.170:418
5.170:422
5.175:431
5.175:442
5.175:440
5.175:432
5.176:422
5.176:419
5.176:416
5.176:418
5.176:420
5.176:427
5.179:429
5.180:428
5.180:429
5.180:419
5.180:412
5.180:410
5.180:414
5.180:420
5.180:423
5.183:419
5.183:417
5.183:419
5.200:419
5.200:431
5.200:440
5.200:438
5.200:434
5.200:431
5.200:431
5.204:432
5.204:438
5.204:448
5.204:450
5.204:444
5.204:439
5.204:441
5.204:447
5.204:453
5.204:455
5.208:451
5.208:460
5.208:469
5.208:468
5.208:463
5.208:479
5.208:489
5.208:492
5.208:486
5.212:479
5.212:485
5.212:496
5.212:509
5.227:508
5.228:501
5.228:508
5.228:512
5.233:516
5.233:521
5.233:530
5.233:538
5.233:537
5.233:536
5.233:540
5.233:546
5.233:555
5.233:550
5.236:551
5.236:552
5.237:558
5.237:562
5.237:558
5.237:556
5.237:564
5.237:580
5.237:586
5.241:587
5.241:590
5.241:593
5.241:599
5.241:595
5.241:590
5.241:580
5.256:580
5.256:565
5.256:560
5.261:565
5.262:573
5.262:578
5.263:577
5.263:576
5.263:572
5.263:579
5.263:589
5.263:593
5.263:587
5.266:583
5.266:580
5.266:580
5.266:581
5.266:583
5.266:589
5.266:589
5.266:586
5.266:587
5.270:587
5.270:596
5.270:595
5.270:602
5.270:596
5.270:593
5.270:597
5.270:585
5.290:577
5.290:581
5.290:581
5.290:579
5.290:582
5.290:581
5.290:577
5.290:572
5.290:578
5.290:581
5.294:577
5.294:573
5.294:576
5.294:579
5.294:578
5.294:565
5.294:555
5.294:553
5.294:550
5.298:552
5.298:557
5.298:566
5.298:570
5.298:565
5.298:566
5.298:568
5.298:557
5.298:549
5.298:540
5.302:536
5.318:536
5.318:544
5.318:554
5.318:567
5.318:580
5.318:572
5.318:563
5.318:563
5.318:550
5.322:538
5.322:535
5.322:553
5.322:565
5.322:559
5.322:543
5.322:532
5.323:528
5.323:527
5.327:528
5.327:530
5.327:533
5.327:543
5.327:549
5.327:549
5.327:542
5.327:537
5.327:533
5.327:530
5.330:524
5.331:513
5.347:513
5.347:517
5.347:528
5.347:533
5.347:535
5.351:535
5.352:535
5.352:534
5.352:543
5.352:536
5.352:520
5.352:517
5.352:514
5.352:518
5.352:523
5.356:528
5.356:542
5.356:536
5.356:529
5.356:526
5.356:523
5.356:521
5.356:513
5.356:504
5.356:508
5.359:511
5.359:510
5.359:513
5.359:517
5.359:517
5.376:517
5.376:511
5.376:511
5.376:512
5.376:523
5.379:527
5.380:523
5.380:517
5.380:518
5.380:520
5.380:511
5.380:509
5.380:511
5.380:514
5.384:507
5.384:507
5.384:507
5.384:511
5.384:512
5.384:509
5.384:506
5.384:504
5.384:496
5.384:496
5.387:499
5.387:506
5.387:502
5.387:502
5.388:508
5.388:512
5.404:507
5.409:501
5.409:503
5.409:499
5.409:492
5.409:494
5.409:496
5.409:501
5.409:499
5.409:503
5.409:506
5.412:506
5.413:511
5.413:504
5.413:504
5.413:501
5.413:507
5.413:508
5.413:509
5.413:507
5.417:501
5.417:503
5.417:514
5.417:509
5.417:506
5.417:503
5.417:497
5.417:490
5.417:492
5.417:498
5.433:498
5.437:514
5.437:516
5.437:508
5.437:504
5.437:506
5.437:499
5.437:503
5.437:513
5.437:515
5.442:502
5.442:486
5.442:490
5.442:503
5.442:530
5.442:531
5.442:522
5.442:515
5.442:496
5.442:495
5.445:501
5.445:515
5.446:515
5.446:508
5.446:499
5.446:498
5.446:500
5.446:500
5.446:498
5.450:501
5.466:506
5.466:508
5.466:512
5.466:511
5.466:507
5.466:499
5.466:503
5.470:507
5.470:508
5.470:506
5.470:507
5.470:503
5.470:502
5.470:501
5.470:505
5.470:503
5.474:498
5.474:499
5.474:499
5.474:497
5.474:505
5.474:512
5.474:519
5.474:518
5.474:508
5.474:506
5.478:506
5.478:496
5.479:486
5.479:491
5.494:491
5.494:504
5.494:505
5.494:504
5.494:500
5.495:500
5.499:502
5.499:493
5.499:495
5.499:508
5.499:513
5.499:501
5.499:500
5.499:512
5.499:511
5.499:514
5.502:520
5.502:526
5.502:520
5.502:501
5.502:488
5.502:492
5.502:496
5.503:495
5.503:490
5.507:486
5.507:500
5.507:507
5.507:501
5.507:495
5.523:498
5.523:502
5.523:507
5.528:508
5.528:507
5.528:514
5.528:510
5.528:513
5.528:508
5.528:503
5.528:505
5.529:508
5.532:508
5.532:494
5.532:488
5.532:489
5.532:489
5.532:488
5.532:487
5.532:485
5.532:490
5.532:495
5.536:500
5.536:502
5.536:501
5.536:501
5.536:491
5.536:490
5.536:487
5.536:482
5.551:482
5.551:473
5.556:472
5.556:472
5.556:470
5.556:468
5.556:471
5.556:474
5.556:482
5.556:481
5.556:478
5.560:470
5.560:463
5.560:460
5.560:461
5.560:464
5.560:464
5.560:462
5.560:457
5.560:456
5.560:457
5.564:457
5.564:464
5.564:464
5.564:462
5.564:460
5.564:452
5.564:449
5.564:455
5.564:458
5.584:463
5.585:469
5.585:471
5.585:468
5.585:452
5.585:449
5.585:458
5.585:461
5.589:457
5.589:462
5.589:462
5.589:466
5.589:475
5.589:477
5.589:474
5.589:471
5.589:470
5.589:475
5.592:487
5.592:502
5.593:502
5.593:504
5.593:504
5.593:504
5.593:509
5.593:512
5.593:516
5.596:514
5.596:515
5.596:519
5.613:519
5.613:519
5.613:516
5.613:517
5.613:515
5.613:515
5.613:508
5.617:510
5.617:508
5.617:510
5.617:509
5.618:510
5.618:513
5.618:520
5.618:524
5.618:518
5.619:504
5.621:503
5.621:513
5.621:519
5.621:525
5.621:528
5.622:522
5.622:516
5.622:511
5.622:510
5.624:510
5.626:511
5.626:511
5.626:514
5.641:517
5.641:518
5.641:519
5.642:517
5.646:516
5.646:516
5.646:515
5.646:514
5.646:515
5.646:529
5.646:538
5.646:532
5.647:526
5.647:513
5.650:512
5.650:519
5.650:538
5.650:546
5.650:527
5.650:511
5.650:509
5.650:514
5.651:514
5.653:515
5.654:515
5.654:521
5.654:516
5.654:520
5.654:523
5.654:521
5.670:521
5.670:516
5.670:513
5.674:508
5.674:510
5.674:510
5.674:510
5.674:517
5.674:520
5.674:520
5.675:528
5.675:539
5.675:528
5.679:512
5.679:502
5.679:505
5.679:503
5.679:504
5.679:506
5.679:513
5.679:516
5.679:517
5.683:525
5.683:530
5.683:522
5.683:515
5.683:515
5.683:520
5.683:524
5.683:525
5.703:528
5.703:534
5.703:545
5.703:547
5.703:543
5.703:528
5.703:514
5.703:495
5.703:477
5.703:465
5.707:455
5.707:447
5.707:428
5.707:400
5.707:363
5.707:331
5.707:298
5.707:261
5.707:222
5.710:183
5.710:136
5.710:84
5.712:37
5.712:17
5.712:17
5.712:17
5.712:17
5.712:18
5.712:18
5.712:18
5.732:18
5.732:18
5.732:19
5.732:19
5.732:19
5.732:19
5.732:19
5.732:18
5.732:18
5.732:18
5.732:17
5.736:17
5.736:40
5.736:138
5.736:234
5.736:335
5.736:460
5.736:595
5.736:684
5.737:729
5.737:747
5.740:737
5.740:707
5.740:678
5.740:655
5.740:641
5.740:625
5.740:617
5.740:610
5.740:607
5.760:605
5.760:596
5.760:578
5.760:572
5.760:578
5.765:588
5.765:595
5.765:594
5.765:583
5.765:571
5.765:569
5.765:566
5.765:566
5.765:573
5.765:580
5.768:591
5.768:582
5.768:582
5.769:577
5.769:584
5.769:597
5.769:605
5.769:598
5.769:591
5.769:586
5.773:584
5.773:586
5.773:587
5.773:591
5.773:587
5.789:587
5.789:584
5.789:585
5.789:591
5.789:598
5.793:588
5.793:589
5.793:581
5.793:578
5.793:576
5.793:577
5.793:583
5.793:589
5.793:590
5.797:586
5.797:585
5.797:580
5.797:577
5.797:572
5.798:566
5.798:564
5.798:582
5.798:588
5.798:578
5.801:564
5.801:558
5.801:555
5.801:543
5.801:533
5.801:530
5.817:546
5.822:549
5.822:547
5.822:550
5.822:549
5.822:547
5.822:546
5.822:538
5.822:541
5.822:545
5.822:550
5.826:552
5.826:541
5.826:530
5.826:530
5.826:542
5.826:548
5.826:538
5.826:530
5.826:521
5.830:517
5.830:517
5.830:519
5.830:525
5.830:527
5.830:529
5.830:526
5.830:521
5.830:517
5.830:511
5.851:511
5.851:505
5.851:504
5.851:506
5.851:514
5.851:515
5.851:508
5.851:499
5.851:505
5.851:510
5.855:508
5.855:512
5.855:506
5.855:505
5.855:500
5.855:492
5.855:498
5.855:497
5.855:481
5.855:482
5.859:496
5.859:495
5.859:501
5.859:510
5.859:507
5.859:489
5.859:478
5.859:472
5.859:464
5.863:460
5.879:467
5.879:472
5.879:476
5.879:480
5.879:479
5.879:477
5.879:472
5.884:471
5.884:470
5.884:468
5.884:474
5.884:482
5.884:482
5.884:463
5.884:452
5.884:451
5.888:454
5.888:455
5.888:458
5.888:455
5.888:455
5.888:462
5.888:468
5.888:461
5.888:451
5.888:451
5.892:447
5.892:449
5.892:445
5.892:442
5.907:442
5.907:438
5.907:447
5.907:446
5.907:437
5.908:435
5.912:432
5.912:439
5.912:439
5.913:427
5.913:424
5.913:435
5.913:440
5.913:445
5.913:436
5.917:426
5.917:414
5.917:400
5.917:399
5.917:408
5.917:418
5.917:417
5.917:407
5.917:409
5.917:409
5.920:399
5.920:399
5.920:404
5.920:409
5.920:419
5.936:414
5.936:408
5.936:410
5.941:416
5.941:421
5.941:421
5.941:418
5.941:419
5.941:415
5.941:411
5.941:410
5.941:412
5.945:418
5.945:417
5.945:419
5.945:414
5.945:419
5.945:423
5.945:424
5.945:423
5.945:424
5.945:422
5.949:429
5.949:434
5.949:437
5.949:443
5.949:442
5.949:443
5.949:459
5.949:464
5.965:464
5.965:462
5.970:475
5.970:484
5.970:497
5.970:489
5.970:483
5.970:484
5.970:479
5.970:480
5.970:488
5.974:496
5.974:496
5.974:496
5.974:497
5.974:505
5.974:506
5.974:511
5.974:527
5.974:537
5.974:548
5.978:548
5.979:543
5.979:547
5.979:552
5.979:549
5.979:547
5.979:555
5.979:572
5.979:583
5.997:591
5.998:588
5.998:575
5.998:572
5.998:567
5.998:564
5.998:567
5.998:564
6.002:561
6.002:566
6.002:565
6.002:569
6.002:596
6.002:617
6.002:603
6.002:589
6.002:588
6.002:587
6.005:594
6.005:600
6.006:596
6.006:587
6.006:593
6.006:593
6.006:587
6.006:588
6.006:591
6.010:595
6.010:596
6.010:594
6.026:594
6.026:591
6.026:591
6.026:582
6.026:591
6.026:601
6.026:598
6.030:594
6.030:588
6.030:584
6.030:585
6.030:571
6.030:562
6.030:565
6.030:582
6.030:601
6.030:603
6.035:594
6.035:588
6.035:586
6.035:586
6.035:587
6.035:584
6.035:573
6.035:570
6.035:575
6.039:582
6.039:585
6.039:573
6.039:557
6.055:561
6.055:577
6.055:587
6.055:588
6.060:579
6.060:578
6.060:579
6.060:568
6.060:563
6.060:555
6.060:548
6.060:551
6.060:559
6.060:568
6.063:565
6.063:568
6.063:563
6.063:554
6.063:556
6.063:566
6.064:557
6.064:551
6.064:545
6.068:543
6.068:545
6.068:550
6.068:547
6.068:544
6.068:555
6.068:557
6.084:557
6.084:553
6.084:547
6.088:545
6.088:547
6.088:542
6.088:539
6.088:534
6.088:536
6.088:538
6.088:541
6.088:537
6.088:535
6.092:534
6.092:533
6.092:536
6.092:529
6.092:527
6.092:529
6.092:523
6.092:527
6.092:534
6.096:531
6.096:522
6.096:524
6.096:524
6.096:522
6.096:511
6.096:511
6.096:521
6.117:526
6.117:521
6.117:525
6.117:528
6.117:531
6.117:523
6.117:516
6.117:515
6.117:517
6.121:524
6.121:517
6.121:519
6.121:524
6.121:520
6.122:515
6.122:515
6.122:513
6.122:500
6.122:495
6.125:512
6.125:540
6.125:538
6.125:526
6.125:512
6.125:502
6.125:506
6.125:511
6.125:515
6.125:518
6.128:516
6.146:516
6.146:511
6.146:508
6.146:504
6.146:497
6.146:496
6.146:498
6.146:501
6.146:506
6.150:508
6.150:501
6.150:495
6.150:495
6.150:506
6.150:511
6.150:506
6.150:505
6.150:513
6.154:513
6.154:504
6.154:506
6.154:509
6.154:505
6.154:497
6.154:496
6.154:497
6.154:496
6.154:489
6.158:491
6.158:492
6.174:488
6.174:495
6.174:505
6.174:508
6.174:505
6.178:492
6.179:504
6.179:517
6.179:523
6.179:512
6.179:509
6.179:511
6.179:519
6.179:514
6.179:503
6.183:495
6.183:495
6.183:495
6.183:500
6.183:496
6.183:492
6.183:494
6.184:493
6.184:502
6.187:501
6.187:489
6.187:480
6.187:482
6.187:497
6.187:512
6.203:512
6.203:515
6.203:517
6.203:517
6.203:515
6.207:519
6.207:515
6.207:510
6.207:510
6.207:508
6.207:508
6.207:511
6.207:507
6.207:504
6.212:512
6.212:512
6.212:504
6.212:495
6.212:500
6.212:504
6.212:503
6.212:503
6.212:504
6.213:503
6.215:499
6.215:495
6.215:496
6.215:502
6.215:511
6.215:505
6.231:502
6.236:504
6.236:501
6.236:497
6.236:496
6.236:501
6.236:509
6.236:513
6.236:521
6.236:529
6.236:530
6.240:523
6.240:501
6.240:504
6.240:504
6.240:506
6.240:505
6.240:503
6.240:496
6.240:490
6.244:485
6.244:482
6.244:484
6.244:482
6.244:469
6.245:475
6.245:504
6.245:516
6.245:517
6.245:526
6.264:526
6.264:509
6.264:488
6.264:486
6.264:491
6.264:495
6.264:499
6.264:491
6.264:473
6.265:463
6.269:460
6.269:471
6.269:476
6.269:478
6.269:482
6.269:491
6.269:496
6.269:496
6.270:485
6.273:479
6.273:473
6.273:478
6.273:487
6.274:484
6.274:461
6.274:441
6.274:449
6.274:477
6.274:474
6.277:474
6.293:465
6.293:449
6.293:449
6.293:448
6.293:441
6.293:447
6.293:446
6.297:443
6.297:446
6.297:455
6.297:456
6.297:454
6.297:455
6.297:446
6.297:442
6.298:447
6.301:448
6.302:447
6.302:443
6.302:436
6.302:439
6.302:446
6.302:458
6.302:462
6.302:467
6.302:466
6.305:462
6.305:465
6.305:480
6.305:494
6.321:494
6.321:502
6.321:495
6.322:479
6.322:470
6.322:475
6.326:478
6.326:483
6.326:488
6.326:487
6.326:490
6.326:501
6.326:509
6.326:521
6.327:514
6.330:507
6.330:503
6.330:504
6.330:505
6.330:502
6.330:510
6.331:534
6.331:525
6.331:518
6.331:523
6.334:521
6.334:517
6.334:516
6.334:505
6.334:496
6.349:504
6.349:518
6.350:509
6.354:508
6.354:515
6.354:526
6.354:531
6.354:528
6.354:525
6.354:524
6.355:519
6.355:519
6.359:513
6.359:508
6.359:506
6.359:507
6.359:510
6.359:513
6.359:518
6.359:516
6.359:511
6.359:513
6.363:520
6.363:521
6.363:516
6.363:515
6.363:522
6.363:523
6.363:518
6.363:523
6.378:523
6.378:523
6.383:516
6.383:527
6.383:535
6.383:531
6.383:524
6.383:523
6.383:516
6.383:516
6.383:521
6.387:521
6.387:521
6.387:507
6.387:506
6.387:512
6.387:507
6.387:506
6.387:514
6.387:527
6.387:533
6.391:536
6.392:528
6.392:526
6.392:523
6.392:522
6.392:512
6.392:512
6.392:511
6.392:512
6.411:506
6.411:498
6.411:499
6.411:508
6.411:514
6.411:506
6.411:505
6.411:517
6.416:528
6.416:530
6.416:529
6.416:514
6.416:500
6.416:506
6.416:514
6.416:529
6.416:532
6.416:531
6.419:527
6.419:536
6.420:538
6.420:537
6.420:528
6.420:508
6.420:493
6.420:482
6.420:471
6.424:457
6.424:442
6.424:432
6.440:432
6.440:405
6.441:374
6.441:357
6.441:337
6.441:305
6.441:267
6.444:220
6.444:166
6.444:122
6.444:78
6.445:31
6.445:17
6.445:17
6.445:17
6.445:18
6.445:18
6.446:18
6.446:18
6.448:19
6.448:19
6.448:19
6.448:19
6.448:19
6.448:19
6.448:19
6.448:18
6.448:18
6.449:18
6.449:17
6.468:17
6.468:98
6.469:207
6.469:303
6.469:424
6.473:558
6.473:657
6.473:713
6.473:744
6.473:752
6.473:736
6.473:707
6.473:676
6.473:656
6.477:647
6.478:637
6.478:623
6.478:614
6.478:607
6.478:604
6.478:603
6.478:603
6.479:602
6.479:594
6.481:592
6.481:586
6.481:583
6.481:582
6.481:578
6.481:578
6.497:578
6.497:578
6.497:575
6.502:568
6.502:574
6.502:579
6.502:584
6.502:591
6.502:588
6.502:581
6.502:581
6.502:575
6.502:573
6.506:588
6.506:581
6.506:583
6.506:592
6.506:595
6.506:586
6.506:595
6.506:602
6.506:597
6.510:586
6.510:577
6.510:568
6.510:567
6.510:578
6.510:601
6.510:600
6.511:596
6.531:590
6.531:583
6.531:588
6.531:600
6.531:591
6.531:584
6.531:584
6.531:587
6.531:584
6.535:574
6.535:577
6.535:578
6.535:565
6.535:556
6.535:547
6.535:552
6.535:554
6.535:556
6.536:561
6.539:556
6.539:557
6.539:552
6.539:544
6.539:542
6.540:537
6.540:528
6.540:526
6.540:534
6.540:535
6.542:538
6.559:538
6.559:540
6.559:539
6.559:537
6.559:536
6.559:535
6.559:535
6.559:534
6.559:544
6.563:550
6.563:544
6.563:540
6.563:528
6.563:519
6.563:507
6.563:502
6.564:509
6.564:508
6.568:511
6.568:519
6.568:516
6.568:524
6.568:528
6.568:509
6.568:512
6.568:511
6.569:496
6.569:497
6.571:505
6.571:511
6.587:522
6.587:496
6.587:486
6.587:479
6.587:496
6.592:530
6.592:520
6.592:505
6.592:500
6.592:500
6.592:487
6.592:494
6.592:497
6.592:504
6.592:495
6.596:488
6.596:487
6.596:486
6.596:477
6.596:476
6.596:469
6.596:448
6.596:461
6.596:477
6.600:488
6.600:487
6.600:478
6.600:467
6.600:455
6.600:459
6.616:459
6.616:474
6.616:482
6.616:470
6.621:449
6.621:443
6.621:441
6.621:438
6.621:438
6.621:442
6.621:445
6.621:453
6.621:452
6.621:448
6.625:443
6.625:438
6.625:442
6.625:443
6.625:442
6.625:442
6.625:435
6.625:429
6.625:438
6.625:436
6.628:435
6.628:435
6.628:436
6.628:432
6.628:424
6.628:422
6.644:429
6.649:420
6.649:417
6.649:414
6.649:414
6.649:414
6.649:418
6.649:429
6.649:418
6.649:413
6.649:420
6.653:415
6.653:409
6.653:408
6.653:413
6.653:413
6.653:412
6.654:406
6.654:397
6.654:395
6.658:406
6.658:416
6.658:405
6.658:406
6.658:414
6.658:412
6.658:410
6.658:408
6.658:421
6.658:436
6.678:436
6.678:425
6.678:410
6.678:414
6.679:415
6.679:418
6.679:419
6.679:421
6.679:421
6.679:422
6.682:428
6.682:432
6.682:442
6.682:443
6.682:447
6.682:450
6.682:453
6.682:462
6.682:470
6.686:471
6.686:457
6.686:454
6.686:468
6.686:475
6.686:479
6.686:480
6.686:487
6.686:492
6.686:480
6.690:483
6.706:493
6.706:506
6.706:509
6.706:507
6.706:499
6.706:512
6.706:524
6.710:541
6.710:549
6.710:547
6.711:548
6.711:548
6.711:547
6.711:555
6.711:561
6.711:567
6.714:572
6.714:579
6.714:587
6.714:586
6.714:583
6.714:584
6.714:592
6.714:591
6.715:590
6.715:592
6.719:589
6.719:591
6.719:597
6.719:603
6.735:603
6.735:599
6.735:599
6.735:608
6.735:617
6.735:621
6.740:596
6.740:581
6.740:585
6.740:594
6.740:606
6.740:599
6.740:593
6.740:594
6.740:603
6.743:609
6.744:608
6.744:608
6.744:606
6.744:602
6.744:604
6.744:607
6.745:606
6.745:604
6.745:608
6.748:612
6.748:615
6.748:605
6.748:597
6.748:593
6.764:601
6.764:600
6.764:588
6.768:592
6.768:591
6.768:587
6.768:582
6.768:582
6.768:609
6.768:644
6.768:642
6.768:593
6.772:587
6.772:589
6.772:580
6.772:554
6.772:561
6.772:567
6.772:556
6.772:557
6.772:572
6.772:597
6.775:618
6.775:601
6.775:600
6.775:589
6.776:587
6.776:591
6.776:587
6.776:582
6.792:582
6.792:575
6.796:559
6.796:569
6.796:575
6.796:573
6.796:573
6.796:590
6.796:606
6.796:592
6.796:547
6.801:537
6.801:549
6.801:561
6.801:563
6.801:580
6.801:620
6.801:575
6.801:549
6.801:555
6.801:562
6.805:559
6.805:549
6.805:546
6.805:562
6.805:561
6.805:545
6.805:539
6.805:533
6.805:534
6.825:540
6.825:534
6.825:544
6.825:549
6.825:543
6.825:533
6.825:542
6.825:539
6.829:531
6.829:521
6.829:519
6.829:522
6.829:531
6.829:532
6.829:536
6.829:537
6.829:536
6.829:533
6.833:533
6.833:533
6.833:532
6.833:525
6.833:528
6.833:528
6.833:526
6.833:523
6.833:525
6.838:529
6.838:531
6.838:529
6.853:529
6.853:528
6.853:514
6.853:499
6.853:489
6.853:501
6.853:507
6.858:511
6.858:514
6.858:523
6.858:518
6.858:514
6.858:517
6.858:520
6.858:509
6.858:504
6.858:510
6.862:517
6.862:521
6.862:520
6.862:513
6.862:499
6.862:503
6.862:501
6.862:494
6.862:504
6.866:513
6.866:515
6.866:499
6.866:484
6.882:486
6.882:501
6.882:506
6.882:511
6.887:514
6.887:502
6.887:499
6.887:506
6.887:504
6.887:508
6.887:516
6.887:519
6.887:510
6.891:505
6.891:503
6.891:507
6.891:509
6.891:509
6.891:513
6.891:511
6.891:509
6.891:501
6.891:504
6.895:515
6.895:517
6.895:514
6.895:501
6.895:498
6.895:504
6.895:510
6.910:510
6.910:510
6.910:514
6.916:505
6.916:503
6.916:512
6.916:528
6.916:518
6.916:496
6.916:493
6.916:504
6.916:506
6.916:507
6.919:512
6.919:512
6.919:506
6.919:495
6.920:498
6.920:514
6.920:516
6.920:517
6.920:509
6.923:507
6.923:501
6.923:493
6.923:494
6.923:500
6.923:498
6.923:506
6.923:528
6.944:522
6.944:514
6.944:510
6.944:504
6.944:505
6.944:505
6.945:499
6.945:502
6.945:519
6.948:518
6.948:520
6.948:506
6.948:496
6.949:492
6.949:490
6.949:491
6.949:493
6.949:489
6.949:498
6.952:504
6.952:509
6.952:529
6.952:516
6.952:483
6.952:478
6.952:492
6.952:496
6.953:500
6.956:505
6.956:512
6.972:512
6.972:502
6.972:499
6.972:495
6.972:488
6.972:490
6.972:497
6.972:494
6.973:483
6.976:466
6.976:464
6.977:461
6.977:484
6.977:485
6.977:489
6.977:490
6.977:504
6.977:493
6.980:495
6.980:488
6.980:484
6.980:476
6.980:468
6.980:466
6.980:463
6.980:461
6.980:457
6.980:454
6.984:461
6.984:457
7.001:448
7.001:446
7.001:442
7.001:440
7.001:453
7.006:451
7.006:436
7.006:433
7.006:435
7.006:447
7.006:472
7.006:468
7.006:455
7.006:451
7.006:455
7.010:463
7.010:467
7.010:465
7.011:458
7.011:457
7.011:464
7.011:474
7.011:487
7.011:494
7.013:487
7.013:482
7.013:495
7.013:473
7.013:482
7.013:506
7.029:506
7.029:513
7.030:502
7.030:483
7.034:490
7.034:500
7.034:520
7.034:522
7.034:518
7.034:519
7.034:533
7.034:544
7.034:542
7.034:535
7.038:527
7.038:527
7.038:535
7.038:524
7.038:517
7.038:515
7.038:514
7.038:519
7.038:520
7.042:527
7.042:528
7.042:533
7.042:535
7.042:531
7.042:539
7.042:567
7.058:536
7.063:520
7.063:527
7.063:509
7.063:501
7.063:503
7.063:510
7.063:523
7.063:520
7.063:523
7.063:533
7.067:528
7.067:516
7.067:513
7.067:530
7.067:539
7.067:529
7.067:521
7.067:524
7.067:530
7.071:546
7.071:530
7.071:520
7.071:524
7.072:521
7.072:520
7.072:532
7.072:534
7.072:520
7.072:520
7.091:520
7.091:527
7.091:526
7.092:535
7.092:528
7.092:515
7.092:521
7.092:538
7.093:544
7.093:541
7.096:526
7.096:527
7.096:526
7.096:547
7.096:558
7.096:537
7.096:538
7.097:532
7.097:527
7.100:526
7.100:532
7.100:548
7.100:532
7.100:520
7.100:554
7.100:536
7.100:489
7.100:487
7.100:524
7.103:527
7.119:526
7.119:534
7.119:534
7.120:553
7.120:524
7.120:514
7.120:501
7.124:491
7.124:513
7.124:518
7.124:538
7.124:546
7.124:551
7.124:589
7.124:565
7.124:535
7.128:540
7.128:542
7.128:532
7.128:514
7.128:510
7.128:491
7.128:454
7.128:435
7.128:403
7.128:377
7.132:352
7.132:324
7.132:281
7.133:239
7.148:239
7.148:212
7.148:146
7.148:86
7.148:25
7.148:17
7.148:17
7.153:17
7.153:18
7.153:18
7.153:18
7.153:19
7.153:19
7.153:19
7.153:19
7.153:19
7.153:19
7.153:19
7.153:19
7.157:19
7.157:18
7.157:18
7.157:18
7.157:17
7.157:17
7.157:116
7.157:221
7.157:322
7.157:443
7.160:573
7.177:671
7.177:730
7.177:755
7.181:752
7.182:727
7.182:698
7.182:677
7.182:663
7.182:661
7.182:661
7.182:658
7.182:646
7.186:636
7.186:642
7.186:631
7.186:618
7.186:612
7.186:607
7.186:604
7.186:605
7.186:605
7.186:593
7.189:592
7.189:589
7.189:595
7.189:588
7.189:578
7.189:565
7.189:579
7.189:586
7.206:586
7.206:604
7.210:595
7.210:587
7.210:596
7.210:608
7.211:585
7.211:576
7.211:584
7.211:595
7.211:599
7.215:603
7.215:598
7.215:595
7.215:590
7.215:597
7.215:597
7.215:595
7.215:598
7.215:608
7.215:610
7.219:614
7.219:606
7.219:591
7.219:578
7.219:580
7.219:585
7.219:570
7.219:566
7.219:571
7.239:582
7.239:584
7.239:583
7.239:581
7.239:562
7.239:575
7.239:567
7.239:555
7.243:561
7.243:552
7.243:554
7.243:563
7.243:558
7.244:560
7.244:559
7.244:557
7.244:567
7.244:561
7.247:548
7.247:543
7.247:539
7.247:539
7.247:544
7.247:552
7.247:546
7.247:561
7.247:554
7.251:533
7.251:525
7.251:537
7.267:537
7.267:535
7.267:527
7.267:519
7.267:533
7.267:548
7.267:547
7.272:532
7.272:528
7.272:538
7.272:529
7.272:506
7.272:505
7.272:522
7.272:536
7.272:542
7.272:512
7.275:490
7.276:493
7.276:499
7.276:504
7.276:505
7.276:519
7.276:503
7.276:496
7.276:497
7.279:492
7.279:492
7.279:496
7.279:499
7.296:499
7.296:496
7.296:496
7.296:496
7.301:498
7.301:491
7.301:484
7.301:487
7.301:487
7.301:482
7.301:478
7.301:478
7.301:486
7.304:474
7.304:473
7.304:477
7.304:453
7.304:467
7.304:473
7.304:477
7.304:469
7.304:470
7.304:479
7.309:482
7.309:473
7.309:455
7.309:441
7.309:434
7.309:450
7.309:486
7.324:486
7.324:487
7.324:461
7.329:435
7.329:444
7.329:448
7.329:446
7.329:442
7.329:450
7.329:457
7.329:446
7.329:441
7.329:432
7.333:431
7.333:424
7.333:429
7.333:432
7.333:426
7.333:417
7.333:421
7.333:414
7.333:413
7.337:417
7.337:430
7.337:426
7.337:423
7.337:419
7.337:418
7.337:447
7.337:407
7.358:396
7.358:410
7.358:401
7.358:404
7.358:404
7.358:404
7.358:399
7.358:402
7.358:399
7.362:396
7.362:400
7.362:404
7.362:395
7.362:403
7.362:405
7.362:415
7.362:434
7.362:450
7.362:413
7.366:390
7.366:394
7.366:406
7.366:414
7.366:414
7.366:416
7.366:420
7.366:425
7.366:420
7.370:420
7.370:414
7.386:414
7.386:423
7.386:432
7.386:431
7.386:429
7.386:422
7.386:422
7.386:432
7.391:442
7.391:452
7.391:452
7.391:443
7.391:452
7.391:452
7.391:455
7.391:466
7.391:476
7.391:484
7.394:476
7.394:475
7.394:477
7.394:489
7.394:487
7.394:492
7.394:493
7.394:497
7.394:512
7.394:518
7.397:525
7.397:535
7.414:538
7.414:540
7.414:546
7.414:558
7.414:561
7.419:563
7.419:567
7.419:567
7.419:570
7.419:573
7.419:589
7.419:590
7.419:564
7.419:558
7.419:569
7.423:571
7.423:562
7.423:558
7.423:559
7.423:572
7.423:581
7.423:590
7.423:602
7.423:614
7.426:621
7.427:615
7.427:602
7.427:599
7.427:600
7.427:607
7.444:607
7.444:602
7.444:611
7.444:617
7.448:615
7.448:612
7.448:604
7.448:605
7.448:606
7.448:613
7.448:611
7.448:607
7.449:593
7.449:588
7.452:601
7.452:614
7.452:614
7.452:617
7.452:615
7.452:620
7.453:604
7.453:617
7.453:615
7.456:599
7.456:609
7.456:633
7.456:600
7.456:582
7.456:563
7.457:579
7.472:592
7.477:594
7.477:599
7.477:602
7.477:592
7.477:579
7.477:576
7.477:577
7.477:582
7.477:586
7.478:585
7.480:576
7.480:585
7.480:585
7.480:587
7.480:596
7.480:592
7.480:589
7.480:574
7.480:573
7.485:573
7.485:564
7.485:567
7.485:574
7.485:574
7.485:564
7.485:558
7.485:560
7.485:569
7.485:575
7.505:575
7.505:579
7.505:574
7.505:565
7.505:562
7.505:554
7.505:556
7.505:552
7.505:549
7.505:545
7.509:542
7.509:546
7.510:558
7.510:559
7.510:560
7.510:561
7.510:558
7.510:556
7.510:552
7.513:554
7.513:550
7.513:551
7.513:548
7.513:553
7.513:553
7.513:549
7.513:547
7.513:540
7.513:527
7.517:520
7.533:530
7.533:542
7.533:543
7.533:542
7.533:536
7.533:537
7.533:511
7.537:488
7.537:485
7.537:479
7.537:466
7.537:462
7.537:458
7.537:474
7.538:500
7.538:503
7.542:517
7.542:539
7.542:541
7.542:545
7.542:563
7.542:558
7.542:555
7.542:540
7.542:541
7.542:526
7.545:492
7.545:491
7.546:500
7.546:508
7.562:508
7.562:515
7.562:494
7.562:477
7.562:475
7.562:490
7.567:504
7.567:518
7.567:524
7.567:518
7.567:514
7.567:505
7.568:508
7.568:502
7.568:493
7.571:489
7.571:495
7.571:487
7.571:496
7.571:508
7.571:524
7.572:527
7.572:522
7.572:518
7.572:511
7.575:507
7.575:510
7.575:507
7.575:503
7.575:509
7.590:516
7.590:530
7.595:538
7.595:543
7.595:530
7.595:523
7.595:515
7.595:505
7.595:497
7.595:512
7.595:528
7.596:528
7.599:525
7.599:525
7.599:522
7.599:523
7.599:518
7.599:513
7.600:516
7.600:509
7.600:518
7.600:521
7.603:503
7.603:491
7.603:498
7.603:516
7.604:520
7.604:516
7.604:516
7.604:516
7.619:516
7.619:509
7.623:503
7.623:501
7.623:508
7.623:512
7.623:504
7.623:502
7.623:513
7.623:531
7.623:526
7.628:519
7.628:524
7.628:529
7.628:507
7.628:492
7.628:489
7.628:490
7.628:491
7.628:499
7.628:507
7.632:510
7.632:502
7.632:502
7.632:510
7.632:503
7.632:515
7.632:521
7.632:500
7.632:489
7.652:493
7.652:509
7.652:487
7.652:476
7.652:477
7.652:462
7.652:469
7.652:487
7.657:488
7.657:512
7.657:503
7.657:494
7.657:510
7.657:496
7.657:492
7.657:502
7.657:497
7.661:492
7.661:501
7.661:509
7.661:509
7.661:504
7.661:502
7.661:492
7.661:477
7.661:479
7.661:468
7.665:459
7.665:459
7.665:456
7.681:456
7.681:445
7.681:440
7.681:445
7.681:455
7.681:460
7.681:459
7.685:456
7.685:460
7.685:468
7.685:469
7.685:468
7.685:467
7.685:461
7.685:449
7.685:442
7.685:450
7.688:466
7.688:455
7.689:454
7.689:453
7.689:459
7.689:455
7.689:453
7.689:456
7.689:464
7.693:466
7.693:464
7.693:468
7.694:472
7.710:493
7.710:483
7.710:472
7.710:480
7.713:476
7.713:471
7.713:466
7.713:472
7.713:479
7.713:478
7.713:480
7.713:479
7.714:484
7.718:489
7.718:494
7.718:500
7.718:508
7.718:524
7.718:545
7.718:565
7.718:548
7.718:517
7.718:528
7.722:535
7.722:529
7.722:526
7.722:535
7.722:557
7.722:559
7.722:538
7.737:538
7.738:523
7.738:514
7.743:517
7.744:528
7.744:524
7.744:519
7.744:525
7.744:522
7.744:515
7.745:508
7.745:508
7.746:518
7.746:521
7.746:529
7.746:531
7.746:532
7.746:526
7.746:521
7.746:538
7.746:556
7.746:538
7.751:517
7.751:519
7.751:526
7.751:532
7.751:530
7.751:533
7.751:518
7.751:511
7.771:517
7.771:526
7.772:533
7.772:541
7.772:536
7.772:529
7.772:524
7.772:530
7.772:528
7.775:530
7.775:524
7.775:532
7.775:530
7.775:530
7.775:529
7.775:521
7.775:520
7.775:516
7.775:515
7.780:526
7.780:531
7.780:526
7.780:531
7.780:531
7.780:530
7.780:530
7.780:530
7.780:515
7.783:513
7.783:517
7.799:517
7.799:526
7.799:525
7.800:503
7.800:507
7.800:531
7.800:525
7.800:518
7.804:516
7.804:517
7.804:516
7.804:514
7.804:514
7.804:512
7.804:515
7.804:516
7.804:520
7.804:529
7.808:533
7.808:541
7.808:543
7.808:545
7.808:551
7.808:553
7.808:563
7.808:568
7.808:566
7.812:557
7.812:544
7.812:523
7.827:510
7.828:500
7.828:488
7.828:451
7.828:412
7.833:387
7.833:355
7.833:328
7.833:296
7.833:256
7.833:197
7.833:145
7.833:101
7.833:60
7.833:19
7.837:17
7.837:17
7.837:17
7.837:18
7.837:18
7.837:18
7.837:19
7.837:19
7.837:19
7.837:20
7.837:20
7.837:20
7.841:20
7.841:20
7.841:20
7.857:20
7.857:19
7.857:19
7.857:18
7.857:17
7.857:17
7.860:63
7.860:172
7.860:305
7.860:467
7.860:596
7.860:697
7.860:751
7.860:777
7.860:770
7.866:751
7.866:736
7.866:704
7.866:674
7.866:647
7.866:631
7.866:628
7.866:633
7.866:637
7.867:631
7.869:613
7.869:616
7.869:631
7.869:630
7.869:624
7.885:613
7.890:615
7.890:614
7.890:607
7.890:608
7.890:599
7.890:599
7.890:589
7.890:583
7.890:598
7.890:611
7.894:606
7.894:605
7.894:610
7.894:623
7.894:617
7.894:624
7.894:622
7.894:601
7.894:606
7.898:612
7.898:605
7.898:602
7.898:603
7.898:606
7.898:611
7.898:624
7.898:622
7.898:613
7.898:600
7.919:600
7.919:591
7.919:594
7.919:608
7.919:596
7.919:593
7.919:583
7.919:575
7.919:588
7.919:595
7.923:592
7.923:582
7.923:573
7.923:562
7.923:571
7.923:583
7.923:594
7.923:592
7.923:559
7.926:562
7.927:571
7.927:574
7.927:572
7.927:569
7.927:568
7.927:566
7.927:559
7.927:547
7.927:546
7.931:546
7.947:545
7.947:546
7.947:554
7.947:572
7.947:555
7.947:536
7.947:537
7.950:549
7.950:553
7.950:541
7.950:530
7.950:527
7.952:525
7.952:533
7.952:538
7.952:540
7.956:525
7.956:518
7.956:518
7.956:523
7.956:525
7.956:523
7.956:515
7.956:517
7.956:514
7.956:509
7.960:508
7.960:514
7.960:507
7.960:509
7.976:509
7.976:506
7.976:503
7.976:508
7.976:506
7.977:488
7.980:482
7.980:479
7.980:480
7.980:488
7.980:497
7.980:508
7.980:514
7.980:495
7.980:486
7.984:487
7.984:486
7.984:482
7.984:476
7.984:472
7.984:481
7.984:492
7.984:504
7.984:503
7.984:487
7.988:469
7.988:464
7.988:470
7.988:471
7.988:467
8.004:464
8.004:462
8.009:470
8.009:466
8.009:461
8.010:450
8.010:444
8.010:448
8.010:450
8.010:453
8.010:449
8.010:448
8.013:454
8.013:453
8.013:449
8.013:445
8.013:441
8.013:440
8.013:447
8.013:445
8.013:441
8.013:444
8.017:435
8.017:433
8.017:430
8.017:425
8.017:427
8.017:432
8.017:415
8.017:416
8.033:416
8.033:424
8.037:419
8.037:407
8.037:397
8.037:399
8.037:405
8.037:410
8.037:411
8.037:404
8.038:403
8.042:401
8.042:406
8.042:408
8.042:399
8.042:394
8.042:397
8.042:393
8.042:395
8.042:407
8.042:404
8.045:400
8.045:405
8.045:409
8.045:406
8.045:411
8.045:408
8.045:401
8.045:403
8.045:408
8.065:420
8.065:413
8.065:400
8.065:395
8.065:400
8.065:400
8.065:401
8.065:401
8.070:407
8.070:408
8.070:416
8.070:428
8.070:433
8.070:431
8.070:425
8.070:426
8.070:435
8.074:445
8.074:444
8.074:436
8.074:428
8.074:435
8.074:455
8.074:460
8.074:458
8.074:466
8.074:475
8.078:483
8.078:483
8.078:482
8.094:482
8.094:486
8.094:482
8.094:491
8.094:498
8.094:505
8.095:513
8.099:523
8.099:529
8.099:538
8.099:536
8.099:536
8.099:543
8.099:552
8.099:551
8.099:552
8.100:554
8.102:560
8.102:567
8.102:563
8.102:557
8.102:562
8.102:567
8.103:572
8.103:581
8.103:588
8.107:590
8.107:591
8.107:591
8.107:589
8.123:595
8.123:609
8.123:620
8.123:621
8.127:603
8.127:586
8.127:581
8.128:584
8.128:593
8.128:601
8.128:605
8.128:609
8.128:602
8.130:598
8.132:599
8.132:599
8.132:597
8.132:605
8.132:603
8.132:608
8.132:618
8.132:621
8.132:611
8.136:604
8.136:599
8.136:596
8.136:592
8.136:595
8.136:594
8.136:589
8.150:589
8.152:586
8.152:606
8.156:609
8.156:587
8.156:579
8.156:586
8.156:602
8.156:610
8.156:605
8.156:587
8.156:570
8.160:566
8.160:585
8.160:594
8.160:585
8.160:589
8.160:595
8.160:590
8.160:585
8.160:586
8.160:591
8.164:587
8.164:582
8.164:571
8.164:569
8.164:570
8.164:570
8.164:564
8.164:575
8.185:585
8.185:595
8.185:594
8.185:585
8.185:577
8.185:578
8.185:581
8.185:574
8.185:568
8.189:572
8.189:573
8.189:569
8.189:568
8.189:565
8.189:569
8.189:568
8.189:563
8.189:557
8.189:560
8.193:572
8.193:556
8.193:546
8.193:555
8.194:549
8.194:545
8.194:547
8.194:539
8.194:534
8.197:532
8.197:532
8.213:532
8.213:534
8.213:536
8.213:537
8.213:542
8.213:543
8.213:541
8.213:536
8.218:536
8.218:536
8.218:543
8.218:538
8.218:540
8.218:537
8.218:531
8.218:524
8.218:518
8.218:519
8.222:533
8.222:539
8.222:534
8.222:530
8.222:517
8.222:513
8.222:513
8.222:522
8.222:515
8.226:513
8.226:520
8.226:528
8.241:534
8.242:536
8.242:530
8.242:522
8.242:504
8.246:501
8.246:510
8.246:501
8.246:497
8.246:494
8.246:499
8.246:510
8.246:518
8.246:526
8.247:525
8.249:520
8.250:510
8.250:506
8.250:500
8.250:494
8.250:500
8.250:495
8.250:493
8.250:498
8.254:507
8.254:505
8.254:503
8.254:499
8.254:505
8.254:509
8.270:509
8.270:509
8.270:503
8.270:485
8.275:486
8.275:492
8.275:512
8.275:533
8.276:523
8.276:499
8.276:492
8.276:503
8.276:502
8.276:501
8.279:496
8.279:503
8.279:509
8.279:522
8.279:514
8.279:515
8.279:523
8.279:498
8.279:488
8.283:489
8.283:491
8.283:494
8.283:499
8.283:504
8.283:507
8.283:505
8.299:509
8.303:513
8.303:512
8.304:515
8.304:514
8.304:511
8.304:507
8.304:507
8.304:500
8.304:494
8.304:491
8.307:495
8.307:495
8.307:497
8.307:502
8.307:509
8.308:507
8.308:508
8.308:513
8.308:504
8.312:500
8.312:507
8.312:506
8.312:499
8.312:494
8.312:489
8.312:492
8.312:493
8.312:495
8.312:500
8.332:500
8.332:500
8.332:500
8.332:500
8.332:493
8.332:488
8.332:491
8.332:483
8.332:482
8.332:488
8.335:485
8.335:481
8.335:483
8.335:490
8.335:497
8.336:497
8.336:487
8.336:482
8.336:493
8.341:507
8.341:506
8.341:498
8.341:487
8.341:473
8.341:468
8.341:458
8.341:456
8.341:473
8.341:465
8.344:452
8.360:454
8.360:452
8.360:461
8.360:467
8.361:481
8.361:462
8.365:450
8.365:448
8.365:444
8.365:449
8.365:456
8.365:456
8.365:458
8.365:459
8.365:456
8.365:456
8.369:456
8.369:457
8.369:457
8.369:446
8.369:434
8.369:431
8.369:446
8.369:447
8.369:444
8.369:455
8.373:459
8.373:460
8.373:457
8.373:449
8.389:449
8.389:451
8.389:457
8.389:467
8.389:469
8.389:460
8.393:458
8.393:447
8.393:449
8.393:462
8.393:478
8.393:499
8.393:495
8.394:480
8.394:472
8.398:480
8.398:492
8.398:495
8.398:503
8.398:508
8.398:511
8.398:516
8.398:518
8.399:514
8.399:510
8.401:512
8.401:510
8.401:516
8.401:530
8.402:537
8.418:536
8.418:527
8.422:516
8.422:511
8.423:517
8.423:529
8.423:533
8.423:521
8.423:516
8.424:525
8.424:518
8.424:514
8.425:523
8.426:525
8.426:523
8.426:516
8.426:507
8.426:507
8.426:518
8.426:526
8.426:531
8.431:533
8.431:525
8.431:514
8.431:516
8.431:516
8.431:513
8.431:512
8.431:513
8.431:511
8.446:511
8.446:513
8.450:514
8.450:510
8.450:511
8.451:516
8.451:522
8.451:517
8.451:518
8.451:521
8.451:525
8.455:525
8.455:525
8.455:527
8.455:528
8.455:525
8.455:533
8.455:544
8.455:513
8.455:504
8.455:514
8.459:514
8.459:517
8.459:506
8.459:504
8.459:505
8.459:522
8.459:533
8.459:532
8.459:525
8.479:526
8.479:539
8.479:537
8.479:513
8.479:502
8.479:508
8.479:506
8.479:511
8.483:522
8.483:532
8.483:524
8.483:518
8.483:505
8.484:504
8.484:509
8.484:503
8.484:508
8.487:511
8.487:509
8.488:502
8.488:500
8.488:508
8.488:514
8.488:520
8.488:530
8.488:541
8.488:539
8.492:548
8.492:565
8.493:556
8.507:556
8.507:554
8.507:543
8.508:529
8.508:509
8.508:487
8.508:463
8.512:433
8.512:409
8.512:385
8.512:361
8.512:337
8.512:313
8.512:269
8.512:216
8.512:174
8.516:125
8.516:71
8.516:17
8.516:17
8.516:17
8.516:18
8.516:18
8.516:18
8.516:18
8.516:19
8.516:19
8.516:20
8.520:20
8.520:20
8.536:20
8.536:20
8.536:20
8.536:20
8.536:19
8.541:19
8.541:18
8.541:18
8.541:17
8.541:79
8.541:196
8.541:322
8.541:467
8.542:584
8.542:671
8.545:721
8.545:747
8.545:749
8.545:732
8.545:698
8.545:660
8.545:641
8.545:631
8.545:628
8.545:626
8.549:634
8.549:621
8.549:613
8.549:609
8.549:600
8.565:600
8.565:584
8.565:596
8.570:620
8.570:629
8.570:628
8.570:625
8.570:624
8.570:634
8.570:610
8.570:593
8.570:600
8.574:594
8.574:588
8.574:592
8.574:603
8.574:617
8.574:608
8.574:601
8.574:606
8.574:615
8.574:611
8.578:598
8.578:596
8.578:599
8.578:596
8.578:606
8.578:612
8.578:609
8.578:606
8.598:601
8.598:597
8.598:599
8.598:607
8.598:609
8.598:614
8.598:612
8.598:605
8.598:601
8.603:594
8.603:588
8.603:581
8.603:581
8.603:580
8.603:577
8.603:585
8.603:591
8.603:583
8.603:571
8.607:567
8.607:575
8.607:569
8.607:574
8.607:577
8.607:571
8.607:567
8.607:559
8.607:554
8.610:557
8.610:563
8.627:563
8.627:558
8.627:553
8.627:543
8.627:539
8.627:549
8.627:554
8.628:549
8.631:548
8.631:555
8.631:553
8.631:550
8.631:534
8.631:533
8.631:549
8.631:542
8.631:524
8.631:523
8.635:530
8.635:533
8.635:531
8.635:524
8.635:520
8.635:519
8.635:517
8.635:512
8.635:514
8.639:513
8.639:508
8.639:504
8.655:503
8.655:504
8.655:508
8.655:509
8.655:522
8.660:523
8.660:532
8.660:529
8.660:513
8.660:505
8.660:500
8.660:484
8.660:474
8.660:477
8.660:473
8.663:468
8.663:472
8.663:477
8.663:489
8.663:486
8.663:486
8.663:493
8.663:489
8.663:493
8.668:477
8.668:471
8.668:473
8.668:481
8.668:491
8.668:484
8.683:484
8.684:484
8.684:486
8.684:487
8.689:479
8.689:479
8.689:477
8.689:480
8.689:481
8.689:473
8.690:468
8.690:468
8.690:462
8.690:460
8.693:452
8.693:446
8.693:439
8.693:438
8.693:435
8.693:429
8.693:428
8.693:427
8.693:425
8.697:432
8.697:428
8.697:427
8.697:428
8.697:421
8.697:408
8.698:408
8.712:415
8.717:431
8.717:436
8.717:429
8.717:430
8.717:430
8.717:415
8.717:396
8.717:393
8.717:391
8.717:399
8.720:403
8.720:406
8.720:405
8.720:409
8.720:407
8.720:395
8.720:391
8.720:396
8.720:400
8.725:407
8.725:402
8.725:391
8.725:392
8.726:394
8.726:394
8.726:398
8.726:401
8.726:409
8.726:406
8.746:406
8.746:407
8.746:410
8.746:411
8.746:409
8.746:417
8.746:423
8.746:413
8.746:394
8.746:387
8.749:400
8.750:405
8.750:404
8.750:410
8.750:417
8.750:422
8.750:420
8.750:423
8.750:436
8.754:439
8.754:452
8.754:461
8.754:453
8.754:451
8.754:454
8.754:455
8.754:458
8.754:469
8.754:478
8.758:486
8.774:493
8.774:491
8.774:492
8.774:493
8.774:494
8.774:493
8.779:490
8.779:492
8.779:507
8.779:518
8.779:522
8.779:529
8.779:544
8.779:541
8.779:534
8.779:540
8.782:549
8.783:551
8.783:545
8.783:548
8.783:553
8.783:562
8.783:565
8.783:573
8.783:576
8.784:573
8.786:556
8.786:553
8.786:558
8.786:564
8.802:564
8.803:580
8.803:587
8.803:592
8.803:588
8.803:590
8.807:599
8.807:609
8.807:604
8.807:597
8.808:589
8.808:590
8.808:594
8.808:603
8.808:607
8.811:612
8.812:607
8.812:597
8.812:594
8.812:595
8.812:600
8.812:604
8.812:605
8.812:612
8.813:609
8.815:619
8.815:621
8.815:617
8.816:606
8.816:607
8.830:602
8.830:589
8.836:590
8.836:589
8.836:594
8.836:590
8.836:585
8.836:581
8.836:580
8.836:573
8.836:574
8.836:579
8.840:586
8.840:590
8.840:591
8.840:584
8.840:579
8.840:580
8.840:580
8.840:579
8.840:582
8.844:588
8.844:593
8.844:585
8.844:573
8.844:578
8.844:581
8.844:573
8.844:577
8.844:580
8.859:580
8.865:577
8.865:560
8.865:557
8.865:565
8.865:565
8.865:561
8.865:563
8.865:568
8.865:565
8.865:567
8.869:581
8.869:581
8.869:576
8.869:568
8.869:563
8.869:554
8.869:539
8.869:528
8.869:534
8.869:544
8.872:554
8.872:557
8.872:555
8.872:557
8.872:561
8.872:557
8.872:545
8.872:534
8.872:529
8.893:541
8.893:548
8.893:539
8.893:535
8.893:542
8.893:544
8.893:548
8.893:547
8.897:543
8.897:547
8.897:544
8.897:526
8.897:524
8.897:530
8.897:536
8.898:539
8.898:540
8.901:536
8.902:536
8.902:534
8.902:518
8.902:508
8.902:505
8.902:510
8.902:513
8.902:511
8.902:509
8.905:517
8.905:527
8.905:532
8.921:532
8.921:530
8.921:522
8.921:525
8.922:525
8.922:521
8.922:517
8.925:513
8.926:510
8.926:513
8.926:507
8.926:504
8.926:502
8.926:499
8.926:501
8.926:494
8.930:497
8.930:504
8.930:513
8.930:521
8.930:513
8.930:509
8.930:504
8.930:499
8.930:505
8.930:509
8.933:512
8.934:509
8.934:508
8.934:513
8.950:513
8.950:506
8.950:501
8.950:503
8.954:493
8.954:497
8.954:509
8.954:515
8.954:506
8.954:506
8.954:513
8.954:503
8.954:499
8.959:500
8.959:497
8.959:491
8.959:488
8.959:500
8.960:505
8.960:504
8.960:506
8.960:516
8.960:518
8.963:509
8.963:500
8.963:501
8.963:500
8.963:507
8.963:513
8.963:514
8.978:514
8.978:513
8.978:504
8.983:486
8.983:491
8.983:486
8.983:487
8.983:487
8.983:486
8.983:494
8.983:499
8.983:496
8.987:497
8.987:500
8.987:502
8.987:501
8.987:509
8.987:506
8.987:497
8.987:493
8.987:496
8.987:497
8.992:499
8.992:504
8.993:501
8.993:501
8.993:498
8.993:493
8.993:491
8.993:493
9.011:499
9.011:493
9.012:487
9.012:479
9.012:473
9.012:480
9.012:487
9.012:482
9.012:487
9.016:491
9.016:479
9.016:479
9.016:484
9.016:482
9.016:480
9.016:481
9.016:481
9.016:480
9.016:490
9.019:485
9.019:488
9.019:493
9.019:494
9.020:492
9.020:488
9.020:479
9.020:471
9.020:470
9.023:474
9.023:476
9.040:476
9.040:472
9.040:464
9.040:460
9.040:463
9.040:463
9.040:463
9.040:457
9.045:455
9.045:448
9.045:444
9.045:439
9.045:442
9.045:437
9.045:432
9.045:440
9.045:452
9.045:458
9.049:469
9.049:462
9.049:460
9.049:453
9.049:454
9.049:456
9.049:450
9.049:448
9.049:452
9.053:456
9.053:467
9.053:472
9.068:480
9.069:493
9.069:497
9.069:484
9.069:474
9.073:472
9.073:473
9.073:468
9.073:475
9.073:493
9.073:497
9.073:484
9.074:474
9.074:469
9.074:479
9.077:497
9.077:507
9.077:513
9.077:521
9.077:514
9.077:503
9.077:510
9.078:517
9.078:514
9.082:506
9.082:506
9.082:505
9.082:510
9.082:508
9.082:513
9.097:513
9.097:511
9.097:513
9.097:516
9.102:516
9.102:521
9.102:521
9.102:510
9.102:510
9.102:507
9.102:506
9.102:504
9.102:501
9.102:506
9.106:516
9.106:521
9.106:520
9.106:515
9.106:509
9.106:508
9.106:509
9.106:504
9.106:507
9.109:515
9.109:519
9.109:521
9.109:514
9.110:521
9.110:524
9.110:524
9.125:514
9.131:514
9.131:519
9.131:517
9.131:515
9.131:508
9.131:505
9.131:513
9.131:524
9.131:522
9.135:518
9.135:516
9.135:506
9.135:503
9.135:512
9.135:529
9.135:523
9.135:525
9.135:522
9.135:531
9.139:522
9.139:515
9.139:508
9.139:514
9.139:514
9.139:513
9.139:517
9.139:511
9.139:514
9.139:525
9.159:525
9.159:524
9.159:524
9.159:524
9.159:518
9.159:514
9.159:510
9.159:505
9.159:509
9.159:502
9.163:497
9.163:498
9.163:494
9.163:499
9.163:508
9.163:507
9.163:505
9.163:516
9.163:537
9.168:538
9.168:531
9.168:526
9.168:528
9.168:538
9.168:544
9.168:547
9.168:553
9.168:537
9.168:523
9.171:511
9.187:496
9.187:473
9.187:446
9.187:428
9.187:407
9.187:383
9.192:352
9.192:331
9.192:305
9.192:265
9.192:215
9.192:166
9.193:121
9.193:73
9.193:19
9.193:17
9.193:17
9.196:17
9.196:18
9.196:18
9.196:18
9.196:18
9.196:19
9.196:19
9.196:20
9.196:19
9.196:19
9.196:19
9.196:19
9.199:19
9.215:19
9.216:18
9.216:18
9.216:18
9.216:17
9.216:17
9.216:105
9.221:216
9.221:332
9.221:471
9.221:586
9.221:659
9.221:692
9.221:711
9.221:712
9.221:687
9.225:665
9.225:641
9.225:623
9.225:622
9.225:633
9.225:639
9.225:639
9.225:639
9.225:628
9.225:614
9.229:604
9.229:603
9.229:601
9.229:597
9.244:590
9.245:594
9.250:589
9.250:586
9.250:586
9.250:584
9.250:579
9.250:586
9.250:588
9.250:589
9.250:590
9.250:597
9.253:607
9.253:603
9.253:602
9.253:611
9.253:607
9.253:600
9.253:601
9.253:594
9.253:606
9.258:612
9.258:603
9.258:595
9.258:594
9.258:602
9.258:603
9.258:602
9.258:602
9.258:592
9.273:592
9.278:594
9.278:591
9.278:590
9.278:590
9.278:586
9.278:589
9.278:593
9.278:593
9.278:580
9.278:566
9.282:554
9.282:545
9.282:554
9.282:574
9.282:577
9.282:578
9.282:568
9.282:562
9.283:562
9.286:564
9.286:566
9.286:568
9.286:562
9.286:554
9.286:556
9.286:555
9.286:549
9.287:557
9.287:559
9.306:557
9.307:552
9.307:546
9.307:539
9.307:541
9.307:544
9.307:541
9.307:537
9.311:532
9.311:528
9.311:531
9.311:536
9.311:527
9.311:512
9.311:521
9.312:525
9.312:528
9.315:510
9.315:497
9.315:513
9.315:526
9.315:520
9.315:523
9.315:525
9.315:527
9.315:519
9.316:523
9.319:528
9.319:517
9.319:508
9.335:508
9.335:503
9.335:503
9.335:492
9.335:478
9.335:490
9.335:502
9.340:496
9.340:487
9.340:471
9.340:473
9.340:480
9.340:495
9.340:497
9.340:497
9.341:508
9.343:506
9.343:506
9.343:499
9.343:488
9.344:481
9.344:479
9.344:478
9.344:476
9.344:477
9.344:487
9.348:483
9.348:476
9.348:478
9.348:480
9.363:477
9.363:473
9.363:473
9.364:469
9.368:464
9.368:463
9.368:464
9.368:456
9.368:451
9.368:445
9.368:444
9.368:452
9.368:463
9.372:457
9.372:444
9.372:441
9.372:445
9.372:449
9.373:445
9.373:443
9.373:437
9.373:437
9.373:442
9.375:436
9.375:432
9.376:429
9.376:428
9.376:434
9.376:436
9.376:429
9.392:429
9.392:421
9.392:411
9.397:407
9.397:418
9.397:428
9.397:414
9.397:417
9.397:417
9.397:402
9.397:401
9.397:405
9.401:409
9.401:412
9.401:410
9.401:400
9.401:393
9.401:400
9.401:400
9.401:398
9.401:401
9.401:407
9.405:404
9.405:401
9.405:406
9.405:412
9.405:411
9.405:406
9.405:410
9.405:414
9.425:417
9.425:422
9.425:421
9.425:419
9.425:419
9.425:417
9.425:416
9.425:419
9.425:418
9.430:424
9.430:427
9.430:427
9.430:429
9.430:430
9.430:435
9.430:435
9.430:439
9.430:445
9.430:448
9.433:458
9.433:452
9.433:450
9.433:453
9.433:457
9.433:472
9.433:479
9.433:492
9.433:494
9.437:485
9.437:484
9.453:484
9.454:480
9.454:490
9.454:502
9.454:511
9.454:516
9.454:516
9.454:523
9.458:525
9.458:520
9.458:526
9.458:532
9.458:536
9.458:543
9.458:547
9.458:545
9.459:560
9.459:554
9.462:549
9.462:554
9.462:569
9.462:573
9.462:567
