431
444
454
461
470
462
457
457
454
453
449
439
438
440
441
443
439
425
422
432
440
442
429
418
415
422
430
439
447
450
462
465
450
431
436
444
443
435
433
424
419
432
437
442
447
451
460
458
451
447
442
437
449
453
452
454
454
453
443
433
432
442
449
463
469
458
449
449
460
463
475
481
492
505
505
495
491
495
502
508
512
504
482
467
451
444
455
473
485
495
496
485
469
447
441
452
469
482
481
469
465
479
481
483
480
469
461
455
447
454
466
484
507
519
520
504
491
490
485
489
487
496
494
486
472
460
451
462
480
489
508
522
521
495
464
456
464
472
488
500
496
484
471
465
468
484
498
503
507
513
518
516
515
513
520
530
537
538
540
533
539
524
480
467
467
478
500
518
515
502
505
501
493
496
515
527
538
539
538
521
521
539
544
556
567
566
550
529
514
511
508
493
498
510
520
502
488
489
500
486
463
463
453
452
460
462
467
469
473
463
445
433
438
432
421
432
442
459
466
448
454
486
493
478
454
445
443
453
459
452
455
459
457
449
460
488
491
474
450
440
445
456
449
454
460
465
470
475
492
496
480
467
454
433
431
444
458
456
447
442
436
424
419
430
430
429
427
439
453
481
501
490
484
491
491
474
455
443
434
431
431
430
416
424
428
427
436
450
467
473
452
434
449
476
480
493
504
524
539
554
595
635
653
674
714
757
798
834
871
896
919
951
990
989
989
988
987
987
987
986
986
986
986
987
987
988
989
986
899
825
761
680
574
453
356
293
251
231
226
240
260
287
312
325
318
319
341
362
369
366
363
362
377
388
388
376
369
373
385
385
368
383
398
413
430
435
434
414
385
373
372
376
384
386
386
387
384
382
380
380
389
390
375
361
349
358
369
401
427
431
425
420
431
426
421
424
426
419
419
441
444
444
436
432
426
409
397
411
419
418
405
402
417
436
444
458
461
447
438
451
463
469
467
467
467
474
466
441
435
453
473
471
465
466
471
467
460
457
467
475
483
493
494
484
485
472
460
451
468
479
482
498
517
517
501
479
471
484
497
498
489
483
479
484
496
518
528
515
506
505
509
507
497
498
498
496
516
527
527
532
542
541
539
539
533
535
539
544
538
527
526
527
513
514
524
524
517
524
538
541
542
543
537
537
531
529
530
520
508
498
497
500
525
534
526
508
494
491
478
457
453
456
471
490
502
506
513
506
500
485
472
469
470
469
468
474
467
466
478
479
472
469
457
448
451
460
458
454
456
460
465
464
461
444
437
448
443
443
444
453
463
469
475
483
472
463
464
458
455
448
447
457
463
472
469
459
440
440
444
435
415
394
395
409
423
426
434
438
430
426
429
435
448
458
467
465
447
433
428
417
411
414
410
413
427
427
421
422
432
437
442
451
461
462
453
442
444
450
451
459
471
479
480
476
469
451
449
459
472
492
489
471
456
453
455
454
453
458
470
472
466
464
480
490
486
479
482
487
488
495
491
484
482
481
474
469
457
457
461
435
434
452
466
459
458
461
464
469
475
478
481
489
494
495
497
494
481
480
489
489
488
476
455
443
450
456
456
458
466
476
476
476
479
483
482
472
466
470
477
484
502
508
502
491
477
467
470
477
497
510
508
513
511
504
500
489
472
465
471
474
487
500
490
482
479
471
477
485
493
507
499
489
489
493
496
497
498
499
497
496
501
491
486
491
499
504
499
494
500
509
515
524
519
514
514
514
515
520
526
538
557
554
548
547
544
547
552
543
528
517
504
511
521
513
508
512
545
548
516
514
522
524
534
540
538
544
547
546
531
507
474
455
446
455
458
453
450
448
457
469
468
450
438
439
452
462
465
476
476
464
450
460
469
481
488
499
496
494
482
473
476
464
447
442
447
443
444
453
462
474
476
475
475
476
470
466
466
472
478
477
471
476
473
467
465
468
472
478
476
464
468
486
498
500
496
487
479
459
434
421
426
431
444
449
451
460
481
485
483
482
480
484
479
474
474
471
462
459
458
454
465
478
492
508
522
536
555
566
580
599
613
639
667
701
743
779
817
864
894
922
952
975
990
989
989
988
988
987
987
987
987
987
988
988
989
990
916
838
772
722
659
568
472
380
313
267
245
249
269
302
307
316
323
337
342
355
374
394
409
416
416
402
390
381
377
384
396
410
413
411
395
383
375
372
384
396
403
408
403
405
420
427
441
457
470
460
436
429
428
425
417
421
431
432
430
431
441
451
450
450
447
435
430
428
433
448
456
450
446
437
436
464
479
477
470
472
476
476
467
463
466
473
476
479
487
494
505
505
494
488
473
465
471
475
468
467
467
479
488
487
490
492
498
502
507
507
505
508
508
511
518
529
540
544
529
514
506
509
504
509
521
515
511
517
515
510
512
505
504
518
518
513
505
510
521
530
530
530
533
539
547
552
558
561
557
540
524
528
546
552
554
565
581
584
571
573
580
573
570
571
573
567
554
541
535
542
550
565
581
583
573
573
572
580
580
585
589
582
581
574
562
557
553
554
551
556
565
571
573
562
541
531
536
536
526
514
505
493
489
491
505
503
506
510
506
499
497
502
506
505
498
507
512
507
500
498
497
496
499
507
517
512
496
482
482
486
488
497
503
497
485
481
483
498
496
491
482
467
459
470
475
472
465
457
456
457
463
469
468
469
469
479
498
504
495
486
485
490
488
484
489
490
490
487
493
501
497
485
464
456
459
467
476
481
477
471
468
464
462
456
458
461
462
466
473
478
487
493
497
496
493
489
491
489
487
487
495
492
487
493
497
497
498
502
504
507
518
520
517
509
503
510
512
502
505
505
501
502
507
522
529
533
528
529
515
496
496
499
501
508
518
522
524
535
539
535
526
523
527
532
532
534
540
546
555
567
558
535
511
487
477
480
485
489
488
492
501
514
525
527
526
529
524
513
509
522
529
525
516
519
518
526
534
537
540
543
550
556
558
557
555
552
556
562
560
561
569
567
561
545
523
504
496
507
515
528
536
545
552
544
533
541
553
555
543
540
555
564
568
578
587
579
569
569
567
572
566
561
556
557
562
565
560
562
564
568
568
563
565
563
559
546
532
530
539
537
530
529
541
557
559
542
524
517
508
501
500
488
484
488
486
481
473
469
477
483
484
484
485
486
486
486
488
489
488
482
483
492
499
499
498
499
505
527
542
547
546
538
531
522
500
490
488
497
499
501
508
513
507
500
493
477
476
480
487
495
495
491
487
487
479
478
482
486
488
488
492
494
500
504
522
541
540
521
497
481
482
491
497
492
479
473
472
488
508
519
526
525
533
530
527
531
540
540
543
560
572
580
600
626
640
656
676
708
763
807
839
868
906
935
958
980
990
989
989
988
988
987
987
987
988
988
989
990
946
885
831
771
710
648
589
516
420
339
311
306
300
303
291
298
309
324
341
354
383
399
405
414
421
420
425
437
451
450
441
427
425
421
415
419
416
421
439
449
450
449
449
448
450
453
446
439
438
448
457
460
463
460
456
463
465
466
466
460
457
449
447
451
452
444
454
458
456
465
478
475
472
476
472
478
479
477
470
469
464
459
464
466
459
446
457
470
483
493
491
489
488
487
492
503
499
499
495
485
482
478
478
479
487
490
491
485
486
492
498
513
527
533
534
541
542
528
517
513
523
536
544
547
545
530
518
506
500
506
513
517
524
537
539
537
536
549
555
553
562
565
555
543
542
549
571
586
587
580
577
571
566
555
536
528
533
534
537
543
543
541
545
549
548
549
557
557
555
553
550
559
567
574
575
577
573
571
565
559
554
549
538
538
537
529
538
545
538
524
520
514
505
497
507
523
528
527
528
533
535
538
542
537
531
518
504
499
521
517
497
486
494
500
491
482
459
451
461
468
478
485
484
484
481
477
480
470
455
450
448
452
459
464
468
481
472
463
453
447
458
461
458
452
455
450
449
442
441
432
419
419
429
436
435
432
430
431
433
440
447
446
436
438
447
435
428
432
446
458
445
424
415
410
416
422
413
415
421
431
437
440
441
440
445
447
457
449
450
463
471
474
473
464
451
450
439
436
441
440
435
429
421
428
448
469
468
460
460
474
485
489
487
482
475
478
475
470
466
456
443
433
422
420
433
439
442
447
460
461
460
467
471
470
474
480
475
484
488
490
484
482
486
490
486
481
488
488
474
447
448
452
449
443
438
453
464
470
476
477
474
478
488
497
506
499
492
491
493
484
474
471
476
481
482
500
524
533
521
501
493
493
495
483
475
471
475
476
470
456
459
474
481
485
482
496
503
504
501
502
515
524
519
517
511
502
497
497
500
500
496
493
489
484
479
477
480
484
495
508
511
524
527
521
512
503
503
502
500
500
494
494
502
499
488
481
474
464
460
454
445
442
443
436
436
435
439
434
430
429
434
439
442
445
445
454
459
459
458
452
443
438
431
424
419
417
425
433
435
438
450
474
479
488
479
468
464
470
470
457
444
430
420
411
409
416
435
435
429
430
430
433
438
440
434
425
418
426
436
434
426
425
425
427
415
409
416
427
436
436
433
429
433
433
426
425
420
421
425
430
435
432
436
440
437
431
431
431
420
410
405
417
433
444
458
470
487
506
527
548
581
590
605
632
661
684
720
760
798
831
854
881
918
955
975
979
986
990
989
989
989
989
990
951
892
832
777
722
674
641
599
540
474
405
336
300
286
282
275
263
265
263
265
261
258
260
283
298
299
311
325
336
348
362
372
368
363
371
381
378
372
376
394
404
398
383
369
358
347
348
355
355
355
368
377
382
373
376
380
396
420
428
416
403
382
367
372
386
405
412
409
408
404
400
397
387
390
400
403
404
403
405
408
407
403
406
415
427
429
427
436
437
426
419
417
412
402
406
418
437
457
466
466
461
446
442
437
439
443
439
432
420
407
413
419
412
412
414
417
417
424
437
446
440
445
456
460
462
457
456
458
456
454
449
447
444
439
445
458
464
473
476
481
475
459
471
488
484
480
482
490
494
483
479
495
506
503
496
488
483
480
483
488
494
503
520
522
505
497
493
488
499
508
510
512
505
494
489
489
495
510
526
523
512
498
493
481
479
482
480
486
496
496
485
472
455
443
445
453
454
447
441
444
439
431
431
441
457
474
471
465
459
464
468
469
459
446
435
433
429
431
433
429
426
421
432
443
444
434
434
428
415
416
413
407
393
388
391
391
400
412
410
403
392
389
390
387
382
374
378
382
384
378
375
386
385
381
398
409
412
414
416
415
408
394
393
386
387
393
400
399
396
396
391
385
382
383
386
384
372
363
367
377
390
393
396
398
406
421
417
417
415
414
414
431
436
435
429
413
407
403
396
392
384
370
382
390
388
385
383
381
386
395
403
406
403
408
419
429
432
434
432
436
431
413
412
412
407
403
412
416
413
419
430
444
427
422
429
441
448
448
447
446
436
429
443
451
452
446
433
423
422
423
421
424
422
426
434
437
442
446
448
452
456
454
454
450
455
454
448
446
444
436
440
456
457
466
474
477
483
484
485
480
478
467
470
470
459
450
464
473
479
466
462
456
445
448
444
443
451
471
481
491
499
495
493
483
472
472
464
462
457
463
486
504
497
556
546
547
565
565
555
4
487
491
496
491
501
510
513
517
524
502
500
498
504
512
515
516
528
536
553
556
546
547
565
565
555
529
7
491
496
491
501
510
513
517
524
502
500
498
504
512
515
516
528
536
553
556
546
547
565
565
555
529
528
519
523
540
543
552
535
539
523
535
551
579
608
628
636
618
600
589
572
555
550
555
567
566
576
562
573
596
609
606
623
629
619
607
591
573
546
516
521
515
506
518
548
563
571
579
539
527
545
586
608
609
592
585
582
571
566
573
571
567
566
558
562
556
556
553
536
542
554
554
556
552
555
554
556
557
572
580
588
565
513
489
506
495
502
530
552
551
538
522
517
517
516
518
516
516
509
502
501
499
509
526
524
527
497
452
462
477
494
490
474
469
470
476
489
475
447
440
460
486
491
457
423
416
429
436
436
438
437
452
465
474
490
485
479
457
428
397
391
415
453
488
500
513
520
507
455
416
442
449
410
386
383
405
420
414
419
428
439
445
451
453
444
438
443
448
455
434
421
420
427
431
439
445
466
477
476
460
459
458
461
459
465
489
492
472
466
472
474
452
446
437
445
452
457
474
477
475
471
452
439
457
478
481
474
478
477
471
486
496
490
486
496
486
509
502
513
523
519
529
541
550
552
529
508
496
487
485
485
482
494
512
518
521
507
497
496
512
496
496
488
501
516
515
524
527
535
528
531
545
557
559
551
545
544
548
546
514
479
473
472
486
492
485
485
489
481
468
443
423
433
455
495
519
518
507
474
472
446
438
439
445
455
463
476
473
482
468
459
459
452
449
454
459
472
469
457
460
463
461
466
468
468
469
477
479
475
462
436
424
442
447
460
462
456
451
464
464
456
453
459
451
437
438
438
448
469
474
465
452
437
434
452
454
452
452
443
433
427
417
433
458
458
474
488
470
451
464
487
475
463
455
462
460
451
442
428
428
417
409
399
410
429
456
474
492
509
519
542
549
548
555
575
598
634
665
681
728
777
834
899
945
987
987
980
990
989
988
988
988
988
987
987
988
989
977
901
841
800
744
695
634
565
494
397
290
231
194
188
196
219
252
271
272
290
290
289
313
335
335
343
358
384
397
401
401
387
382
403
404
386
371
346
346
363
399
408
417
419
414
426
435
439
448
448
408
366
363
395
395
388
386
391
412
444
443
425
424
393
356
334
345
373
382
383
391
404
404
419
422
423
419
413
416
414
428
440
441
439
450
464
461
468
473
480
476
445
417
413
420
429
442
453
459
447
449
442
449
458
473
478
476
463
456
453
468
481
480
452
427
418
449
494
510
523
519
482
445
448
479
501
502
506
493
476
489
510
520
514
502
496
490
483
494
520
538
547
541
533
529
540
537
528
514
495
485
489
495
512
506
474
441
460
498
515
522
523
525
531
533
522
518
517
519
530
535
532
529
526
517
511
516
537
541
538
528
517
505
503
523
530
546
539
518
506
504
495
472
468
468
475
489
501
517
528
534
525
510
515
530
528
521
489
482
492
494
490
477
449
386
351
371
374
389
406
409
408
409
412
408
414
416
423
423
429
433
436
439
441
438
412
401
403
398
396
396
394
402
393
365
362
370
386
401
412
419
393
363
366
393
409
421
423
390
369
378
397
406
380
358
380
410
413
403
401
401
397
416
433
439
447
444
446
455
452
439
423
411
402
387
380
373
357
364
395
433
446
440
421
383
357
389
428
442
432
423
433
437
407
398
410
420
434
442
448
436
397
381
387
424
451
455
443
427
428
429
440
444
444
462
469
477
494
482
457
451
446
444
447
448
456
462
458
455
438
440
479
516
521
495
474
473
481
487
463
430
422
445
467
473
469
475
490
490
483
471
474
484
487
494
488
461
480
502
516
508
493
496
504
519
511
512
520
516
505
485
485
494
504
512
516
511
495
489
496
502
495
486
471
452
437
444
463
469
455
450
444
428
440
442
432
422
429
448
449
457
442
442
465
480
475
463
442
408
376
379
410
426
423
419
407
399
406
414
424
442
445
430
409
399
409
404
400
401
405
404
419
426
430
440
437
429
433
448
467
473
450
396
385
431
443
432
423
424
428
421
414
405
401
417
440
457
463
464
471
464
425
394
391
384
388
413
424
437
429
410
399
408
429
459
490
504
504
525
567
587
603
623
655
702
748
791
835
868
886
905
954
990
989
988
988
987
987
987
986
987
987
988
988
989
990
918
812
735
696
659
582
500
392
276
189
140
144
167
217
280
306
327
333
347
349
342
330
333
336
330
328
326
326
340
345
333
341
330
311
305
311
336
349
357
351
349
358
380
391
389
383
375
365
359
371
393
406
417
421
408
400
402
415
407
397
387
336
299
291
331
373
388
392
392
388
395
398
399
411
413
409
423
439
444
445
437
422
407
396
387
404
410
424
428
419
421
429
447
457
453
439
436
449
464
476
482
473
464
437
423
457
471
465
458
452
448
448
438
429
433
438
462
460
462
465
456
443
431
438
452
458
463
478
500
518
520
480
451
466
501
509
506
495
481
481
474
480
496
492
474
469
477
487
489
497
504
496
499
518
523
518
518
525
519
522
530
526
522
510
496
501
520
517
504
507
509
524
531
525
518
523
536
544
527
509
502
502
492
505
539
539
519
504
500
510
526
533
510
491
499
513
502
495
487
482
479
461
435
426
427
441
453
460
464
468
449
422
417
437
446
449
439
424
424
434
415
407
413
417
428
424
417
413
418
412
414
426
438
459
454
432
396
394
403
411
422
434
451
443
425
411
420
429
434
424
421
395
378
387
394
402
398
409
404
416
434
431
425
423
439
444
440
451
444
403
382
392
413
432
396
372
385
408
417
419
391
377
390
413
413
409
404
405
408
423
435
419
400
402
398
407
426
447
445
436
448
461
462
445
457
460
440
446
444
405
398
432
451
464
467
466
466
459
426
409
419
445
460
455
456
456
461
469
480
479
487
493
487
473
458
461
469
454
445
447
447
449
470
469
464
459
470
484
485
492
493
500
503
522
523
499
494
490
472
451
459
479
478
487
493
483
483
501
516
518
487
474
481
498
491
505
519
522
527
530
525
526
523
492
474
479
484
478
468
476
481
484
493
509
505
505
501
497
493
509
508
503
499
489
481
482
508
522
511
485
474
455
434
430
438
451
460
458
443
438
432
436
428
427
436
434
427
424
417
411
421
435
436
430
439
440
439
427
414
426
435
447
442
441
435
421
424
424
427
436
433
441
448
440
433
437
457
460
472
483
482
483
491
482
469
455
433
439
454
460
455
433
405
347
314
348
408
443
430
424
439
460
469
474
470
447
435
450
455
445
430
424
435
457
472
459
466
490
513
538
562
579
598
627
677
743
799
844
895
939
981
990
989
989
988
987
987
986
986
986
985
986
986
987
988
989
990
935
874
795
720
628
537
416
298
226
194
185
194
226
252
278
297
297
292
285
294
339
353
348
344
335
336
352
372
366
366
368
352
355
356
354
344
342
345
343
338
339
349
363
365
391
396
383
366
353
362
372
360
351
357
377
382
384
389
385
381
385
376
391
405
415
430
414
388
368
369
393
408
420
435
435
424
429
441
449
474
483
449
433
439
428
411
414
425
420
411
411
404
394
413
438
434
418
403
426
445
453
441
435
441
444
445
426
419
437
441
445
460
480
460
439
432
452
472
480
491
498
497
494
497
495
499
493
488
481
494
522
521
477
463
496
505
505
480
450
452
492
514
538
535
518
525
542
526
505
510
536
529
527
526
531
529
517
510
513
506
500
500
513
516
488
494
511
528
523
515
514
527
527
514
510
506
503
513
515
516
514
528
547
555
555
545
524
514
488
476
487
495
504
497
506
506
499
495
485
468
464
443
440
441
430
428
431
465
476
459
449
451
453
459
461
463
476
478
468
459
448
434
424
415
411
422
427
443
445
444
446
434
445
448
440
437
447
429
406
405
419
434
440
423
406
395
384
398
433
442
452
469
471
460
457
456
457
438
416
398
387
407
419
429
430
421
416
421
409
408
426
432
425
427
431
419
418
423
428
440
430
416
405
413
432
458
451
454
457
466
466
440
437
449
465
471
466
436
407
400
412
429
435
430
435
449
469
487
504
474
431
422
446
466
481
470
471
489
486
475
474
476
487
492
474
443
416
426
450
473
478
492
475
447
435
446
479
497
497
482
466
469
495
506
494
461
449
460
465
486
497
480
478
482
491
505
496
493
495
510
528
529
519
508
484
473
459
467
473
478
502
518
513
493
478
462
472
506
512
504
501
517
520
525
534
537
537
537
530
530
525
518
501
507
511
485
466
481
476
472
492
527
557
560
554
553
548
543
559
575
548
528
497
479
480
491
487
487
493
497
483
473
467
460
471
486
476
464
451
438
432
452
458
436
420
423
428
433
441
442
458
463
464
455
455
463
476
475
463
454
450
453
458
452
434
436
444
450
446
450
451
436
428
432
446
460
457
460
458
441
421
420
435
436
444
460
482
492
473
434
418
422
428
438
452
462
465
455
459
459
434
434
455
473
471
465
428
421
449
458
440
410
403
406
414
425
437
461
497
528
540
550
572
595
591
592
627
672
691
734
782
829
875
931
985
989
989
988
988
987
986
986
986
985
985
985
985
986
987
988
988
989
971
885
791
703
604
483
361
277
217
180
167
175
193
235
245
255
274
307
322
335
352
362
370
367
364
360
361
358
346
336
368
386
394
400
384
394
404
385
333
302
313
343
369
367
364
373
390
406
412
409
384
355
342
370
395
400
419
431
442
453
395
344
344
392
416
411
403
399
401
395
404
422
423
426
434
439
431
406
387
396
403
408
422
432
434
433
448
465
476
469
470
481
487
482
469
446
429
433
415
397
393
411
435
442
446
456
456
458
457
451
462
471
473
482
485
496
504
513
506
514
520
518
510
508
496
483
476
491
497
496
501
514
512
511
511
504
499
493
489
491
487
498
525
506
492
498
518
522
527
518
523
535
552
552
562
581
585
566
524
509
509
523
526
517
528
537
544
539
532
526
514
517
506
511
516
517
520
526
521
522
541
548
541
535
513
489
491
496
499
492
495
495
493
497
505
510
508
502
494
486
503
522
539
524
498
465
449
458
466
467
461
453
453
461
479
473
466
466
458
448
454
464
464
458
465
457
439
428
434
427
425
431
438
442
448
429
441
445
433
438
422
386
385
413
424
435
426
414
445
459
451
439
436
437
432
420
401
396
396
406
432
463
469
451
420
394
410
428
424
421
431
430
422
420
419
421
421
430
442
453
452
460
472
477
477
443
418
415
427
446
459
457
463
463
462
460
470
468
471
457
447
469
497
521
504
476
461
481
468
433
421
430
429
423
425
434
442
450
457
456
447
448
446
459
473
481
481
476
472
465
458
472
476
451
442
464
486
493
495
495
482
456
447
459
477
472
461
465
482
493
489
478
472
479
496
485
470
452
446
465
487
490
482
488
493
489
485
483
488
495
493
485
501
505
512
504
492
476
478
490
496
503
502
502
505
508
503
496
495
493
492
489
476
451
472
497
492
496
506
515
484
451
463
501
516
507
498
486
491
506
509
507
510
510
512
511
516
507
525
542
547
551
544
517
496
496
506
512
519
526
531
530
535
548
547
531
516
511
509
514
513
515
527
518
515
511
499
497
490
482
478
476
485
496
491
478
450
427
430
455
484
487
470
459
465
469
463
464
473
492
494
479
462
448
463
465
449
433
426
438
440
450
441
440
440
436
423
422
431
444
464
463
464
471
466
450
427
433
430
431
444
449
454
465
473
467
465
459
457
469
481
489
492
495
505
490
471
460
462
435
402
378
370
392
412
431
438
428
434
433
418
402
410
422
463
504
533
562
573
580
597
621
640
659
689
726
779
817
864
918
976
990
990
989
988
987
987
987
986
985
985
985
985
985
985
986
987
988
989
972
887
799
711
602
477
368
284
227
211
212
217
244
269
280
295
304
307
307
319
295
292
318
358
373
385
389
380
381
389
376
382
373
360
355
353
344
340
353
345
355
368
363
366
378
380
378
366
359
370
380
383
381
370
365
371
376
383
392
388
387
394
397
407
413
420
423
407
396
396
372
373
385
401
421
429
430
428
437
442
415
399
414
427
434
444
464
457
435
418
409
427
455
453
450
457
460
461
473
470
466
468
445
457
470
476
482
483
492
488
475
470
492
487
468
463
473
493
508
526
520
515
507
513
521
521
520
515
515
524
530
543
535
527
526
527
510
489
458
446
469
493
500
501
474
468
495
507
517
519
515
513
520
527
528
535
542
545
551
541
532
521
515
523
538
542
542
538
534
537
543
542
543
542
538
523
510
510
517
517
520
517
518
536
545
545
537
506
477
467
480
515
545
543
526
521
515
512
499
478
477
485
497
496
474
467
501
525
520
505
481
484
497
485
476
471
490
495
482
475
454
413
399
392
411
425
450
447
447
440
431
431
431
435
438
449
454
439
436
446
447
442
440
447
450
460
468
468
455
444
429
417
426
440
444
435
433
426
420
418
422
427
446
460
450
461
481
474
460
438
431
425
425
448
449
431
418
423
434
447
456
460
434
410
391
401
420
433
428
424
432
442
440
439
448
455
452
452
451
450
457
469
478
470
461
464
456
453
459
470
467
476
481
477
465
471
473
473
469
470
483
477
472
465
466
466
481
496
484
463
470
483
485
485
500
507
475
449
441
451
479
489
484
469
476
496
520
514
505
500
499
501
495
505
515
524
528
514
499
474
456
429
446
474
492
488
467
446
449
445
449
466
471
477
485
495
501
503
499
489
481
483
493
483
471
442
449
438
445
472
501
515
486
478
471
486
499
499
498
482
474
469
487
493
482
485
489
469
471
496
525
520
512
525
538
548
545
546
538
522
491
467
489
506
511
515
518
521
525
516
530
535
548
553
543
542
538
529
532
540
533
515
512
514
523
526
526
512
501
483
472
484
487
485
480
475
474
473
468
459
456
456
456
459
462
464
462
452
451
445
443
454
455
448
430
436
443
462
467
470
462
461
463
468
484
492
484
475
472
472
480
495
496
482
464
459
475
477
432
401
413
430
443
438
439
438
446
449
450
459
466
465
457
464
472
464
451
440
420
418
430
447
454
451
455
453
457
462
484
499
477
446
446
444
402
377
402
445
468
485
492
489
497
505
508
518
551
589
628
656
674
704
734
764
806
849
897
940
988
990
989
989
988
988
987
987
987
986
985
986
986
987
987
988
989
965
876
789
717
644
563
448
336
257
217
204
194
199
211
226
239
256
278
289
305
320
326
340
367
389
395
402
407
371
317
317
350
384
407
408
406
394
396
400
411
413
398
390
378
374
379
387
380
371
383
376
362
380
399
417
422
416
400
409
417
414
416
419
428
435
431
437
443
425
408
408
425
437
414
391
398
420
446
453
454
450
429
414
410
432
457
471
469
458
448
439
449
466
469
471
473
464
450
447
457
472
479
474
470
477
476
484
485
463
453
446
467
491
504
506
509
500
498
504
503
494
496
493
502
523
536
539
533
524
517
507
509
519
514
518
523
521
524
531
530
532
515
498
503
533
543
531
512
515
534
531
550
559
556
556
556
543
548
542
539
552
556
563
559
552
539
531
538
548
557
563
555
549
540
528
523
520
531
539
546
547
533
519
522
539
538
540
532
515
511
508
499
490
469
465
481
505
532
520
504
493
475
470
482
494
483
488
494
494
477
477
479
495
493
504
503
495
472
439
414
399
421
447
458
464
466
471
464
467
475
483
473
472
469
461
444
436
440
436
431
429
420
421
427
425
416
419
429
438
436
424
420
423
427
442
454
453
452
447
441
433
421
416
419
429
418
431
431
411
398
418
429
411
386
391
423
442
444
441
441
428
398
396
408
409
410
423
439
451
446
435
426
431
438
435
433
439
444
450
464
472
474
476
460
416
393
411
436
463
474
474
468
469
457
462
460
472
479
491
491
484
472
466
477
477
461
467
485
488
480
472
455
451
451
445
453
449
454
462
472
465
471
479
474
454
457
482
491
464
446
437
451
457
474
483
490
489
480
465
478
489
476
450
441
452
464
485
502
510
502
483
452
453
449
452
485
495
503
499
502
504
511
514
517
507
492
491
504
524
525
539
546
527
511
502
511
504
493
511
516
520
526
529
523
520
521
525
523
518
513
499
499
517
546
540
542
522
504
487
495
527
529
518
519
514
516
523
528
518
507
495
488
491
493
496
504
490
476
459
453
456
450
451
459
458
438
424
426
443
453
455
458
462
471
467
461
457
455
455
464
457
466
467
479
481
473
468
471
466
456
436
425
461
454
440
444
447
452
443
423
416
431
446
470
496
498
458
423
437
468
473
483
476
458
446
429
431
444
456
461
457
454
450
452
476
502
517
503
502
476
433
403
412
426
451
453
451
454
461
458
476
479
476
482
481
474
484
497
511
538
571
610
636
665
689
712
746
783
835
883
928
972
990
989
989
988
988
988
987
987
986
986
987
987
988
990
949
872
818
758
699
650
569
474
373
297
240
212
212
225
250
258
262
258
278
293
313
317
312
326
349
371
373
392
386
379
384
382
380
377
376
378
386
396
395
401
416
424
412
390
381
388
381
379
381
403
410
421
421
413
424
431
433
433
430
437
442
439
436
436
433
435
430
427
424
429
430
422
424
430
438
439
433
426
435
429
423
425
429
426
442
458
470
472
453
447
451
451
447
449
464
468
478
477
475
465
479
491
482
458
448
435
433
458
481
504
507
499
497
488
485
489
501
520
533
531
505
458
449
471
490
506
504
521
549
557
558
560
528
507
515
528
529
524
536
531
535
539
544
538
519
502
511
524
531
539
548
548
546
537
538
546
557
558
566
568
574
575
576
572
567
560
552
537
532
540
551
560
562
546
548
546
542
534
536
529
528
505
497
526
540
546
556
552
532
523
523
539
555
561
545
523
515
525
517
480
480
488
488
488
496
503
515
520
519
520
517
501
476
471
480
514
496
470
462
445
432
434
445
438
445
460
463
462
457
451
452
454
451
458
461
469
472
455
444
417
388
392
403
412
415
429
432
419
396
384
397
412
412
415
430
448
439
418
408
406
411
410
405
403
417
426
434
432
423
424
420
429
432
423
427
439
442
426
432
430
423
404
411
415
405
409
422
427
428
429
441
471
479
462
457
421
377
385
419
430
448
486
455
439
449
449
440
404
401
429
450
456
458
455
445
442
446
457
477
468
455
457
470
483
473
467
479
478
453
453
467
490
494
490
482
456
447
463
478
461
442
443
461
478
481
480
478
474
479
481
478
479
484
485
481
480
485
491
493
492
492
500
499
497
498
505
504
501
500
501
503
502
513
505
499
490
499
497
491
482
477
480
485
495
500
510
515
518
508
481
438
440
488
518
531
535
530
538
538
545
540
533
530
521
515
501
468
405
412
460
496
530
538
539
532
518
499
490
507
520
519
516
536
553
535
513
489
495
503
509
512
507
504
497
496
491
490
492
495
493
492
487
480
459
461
470
479
479
484
465
441
430
428
456
473
474
474
469
457
439
435
437
438
445
442
444
436
412
412
429
450
466
471
470
448
412
432
454
459
459
437
444
451
459
456
466
444
440
449
457
460
461
456
446
439
445
462
463
458
446
445
456
447
438
442
456
456
447
445
444
458
475
487
478
452
439
448
475
479
476
469
459
465
479
495
508
513
494
496
527
563
596
620
641
690
708
739
786
831
870
914
980
989
989
989
988
988
988
988
987
986
986
987
987
988
989
990
921
839
785
710
638
571
493
380
280
226
202
190
213
230
230
245
269
297
320
344
355
360
374
385
392
410
410
405
390
379
366
360
357
374
405
403
354
311
320
349
380
382
383
386
390
395
404
416
417
404
386
360
337
359
402
433
446
423
400
400
418
427
428
426
429
429
433
429
414
403
419
421
426
430
451
456
454
454
459
470
481
458
442
449
444
440
429
416
412
413
403
405
428
457
474
464
459
449
451
453
460
456
468
480
480
486
482
486
479
473
479
474
458
472
496
500
492
488
489
489
494
498
495
501
491
491
499
504
512
509
491
490
515
516
507
512
508
473
462
469
483
504
506
512
516
520
521
512
510
527
550
566
565
544
485
454
475
516
549
564
567
549
524
523
525
529
537
544
557
568
567
565
572
573
561
539
495
477
507
545
547
531
538
538
533
523
515
507
502
499
494
500
506
518
516
517
507
475
473
488
500
500
502
506
502
494
472
463
479
506
521
507
485
465
443
436
448
466
485
491
497
483
471
445
423
416
424
434
422
409
397
411
423
438
443
438
453
470
461
442
438
443
427
432
429
438
443
441
435
432
436
450
454
445
435
425
422
421
416
423
394
358
367
385
417
428
426
414
422
423
423
419
427
420
418
420
422
425
436
450
454
453
450
437
420
432
439
439
425
414
422
443
456
465
467
472
468
466
456
461
467
482
483
461
437
430
442
455
463
452
453
458
472
471
441
439
453
457
462
471
473
469
464
475
462
465
474
485
468
465
479
493
491
480
469
461
451
444
455
467
465
465
462
456
466
465
449
436
453
473
498
492
484
488
490
486
484
489
496
497
499
494
482
478
477
479
472
464
462
466
475
473
483
499
498
498
511
517
486
444
451
487
502
504
511
514
514
512
507
499
489
477
457
463
476
485
499
501
500
492
487
484
503
515
522
533
521
494
482
481
506
509
516
538
544
549
560
554
538
524
502
516
543
549
539
527
511
521
526
518
523
532
534
533
544
554
534
511
492
493
495
496
498
492
483
478
471
468
471
455
457
443
441
444
435
435
456
470
439
419
404
420
439
465
466
443
420
429
455
472
466
460
447
436
445
471
472
465
470
479
475
478
471
468
474
480
482
480
470
465
479
476
469
453
446
447
449
454
451
453
461
462
432
442
465
476
487
481
465
467
479
487
473
452
442
427
405
405
423
446
440
428
420
414
393
407
435
434
425
426
459
490
507
521
528
539
564
589
612
631
649
674
712
766
799
829
870
927
990
989
988
988
988
988
986
986
985
985
985
985
985
986
986
987
988
989
934
848
765
668
568
432
306
236
212
211
210
218
237
249
264
290
314
324
332
347
352
365
379
383
381
371
361
354
346
363
364
366
365
375
359
341
353
365
341
335
348
349
352
355
360
363
380
389
397
407
403
376
342
321
332
362
384
400
407
408
405
403
403
392
400
395
386
380
377
392
413
428
422
406
391
403
403
404
416
430
445
445
433
415
425
435
442
457
471
488
483
459
442
427
414
418
425
450
437
419
426
452
460
470
478
472
465
460
473
492
492
472
464
457
449
459
483
498
484
467
462
458
459
466
469
468
474
477
483
481
479
475
481
487
490
485
494
511
516
517
523
543
543
521
491
489
501
510
517
519
514
502
513
535
541
544
542
541
538
522
502
491
487
511
544
573
577
577
556
521
503
524
531
531
539
544
536
523
528
538
544
551
540
529
515
521
526
528
521
500
467
448
456
456
441
449
468
486
492
498
505
513
505
502
495
490
502
499
494
491
456
437
425
422
437
458
480
468
414
376
376
408
423
428
454
463
466
463
461
452
442
436
433
444
448
448
440
434
440
442
438
424
416
421
432
430
422
426
422
424
443
441
444
432
430
421
425
432
433
428
430
423
407
403
409
425
432
437
437
452
457
446
424
402
417
427
428
418
425
434
450
459
452
446
431
418
409
411
436
459
453
448
454
446
435
431
440
459
458
467
467
451
454
470
496
469
441
441
454
466
468
463
467
464
470
471
464
463
469
472
471
466
460
456
454
436
444
471
483
477
467
474
493
494
479
465
485
511
532
498
464
460
474
499
498
496
488
483
490
485
481
484
490
483
469
453
451
465
489
493
474
457
458
475
480
475
474
472
478
480
488
505
527
512
474
442
436
448
465
470
474
469
457
459
465
473
472
472
473
470
475
495
505
510
498
481
461
461
487
496
499
485
479
490
504
515
519
513
499
483
475
485
502
507
523
529
530
526
505
497
499
506
522
538
546
557
538
521
532
542
516
507
516
503
510
525
547
544
538
534
535
528
525
528
517
485
480
491
509
511
513
507
501
489
493
504
506
493
489
493
492
485
472
457
433
423
434
441
434
426
432
438
447
459
467
476
459
456
455
456
456
461
473
474
467
453
453
450
447
453
467
470
469
474
470
451
452
457
457
447
441
434
443
447
450
458
457
449
453
469
478
469
430
415
409
412
433
458
457
455
457
458
458
463
459
463
459
453
452
447
463
458
448
447
446
445
442
429
433
421
411
424
458
475
481
493
516
546
577
600
605
618
648
686
736
786
824
868
917
951
987
990
989
988
987
987
987
986
985
985
985
985
985
986
986
987
988
989
976
883
784
673
562
433
318
248
211
200
206
231
255
257
268
280
299
321
341
353
353
364
370
356
359
350
344
349
358
363
363
354
358
366
365
361
370
385
397
402
385
376
350
344
347
342
349
347
346
348
371
379
375
356
329
321
348
374
394
393
404
409
407
390
377
383
392
406
416
423
431
432
429
427
433
436
438
437
425
416
415
426
428
408
397
403
418
434
441
434
430
428
424
424
435
449
461
471
466
465
457
461
475
480
474
465
453
450
452
455
466
465
453
459
470
466
470
479
479
467
451
445
456
463
486
499
526
539
511
490
478
496
499
481
474
471
480
483
487
493
497
495
497
501
512
506
508
500
495
492
499
517
519
546
552
556
546
528
533
542
542
542
547
550
549
531
531
523
521
531
542
530
503
494
522
549
547
524
505
498
510
519
527
520
529
537
541
542
538
539
538
513
477
459
442
455
479
484
489
493
482
488
483
467
474
480
490
491
483
469
453
444
447
457
465
473
474
469
471
460
474
476
473
460
463
460
454
453
460
465
468
472
467
460
434
426
409
386
379
379
391
408
419
430
437
433
434
421
411
405
412
430
432
427
413
416
412
398
408
418
428
434
431
428
429
422
420
426
434
435
432
428
427
427
410
405
409
424
445
460
458
448
441
448
442
415
403
413
432
439
441
451
461
464
455
464
480
470
457
435
414
413
435
448
459
477
470
465
460
455
469
482
494
499
500
488
468
458
446
450
447
462
465
469
472
477
478
475
481
491
500
495
476
463
438
442
435
432
443
443
453
466
458
438
442
464
477
483
487
495
492
486
494
496
467
460
469
481
486
483
474
463
469
453
451
457
468
485
498
484
462
450
436
441
451
476
494
491
481
478
472
482
485
477
491
508
522
522
513
490
470
484
486
495
487
486
492
495
477
470
474
475
483
482
482
482
480
465
444
459
485
503
511
511
489
450
453
484
505
497
476
467
477
480
500
510
513
506
508
507
524
527
525
523
506
503
492
493
496
504
502
498
477
443
455
488
522
530
520
514
515
513
517
537
544
522
528
540
547
540
528
529
525
523
536
548
539
526
525
525
532
532
534
528
510
497
512
514
510
507
505
494
490
491
508
504
495
472
456
451
463
476
486
490
459
420
417
438
459
470
478
474
464
459
463
465
467
461
457
458
456
462
454
448
448
459
451
416
414
434
466
480
474
469
454
446
439
453
476
491
486
477
474
460
463
466
475
471
471
470
471
482
471
463
462
451
457
457
439
455
486
490
497
497
471
445
460
480
480
457
436
437
444
441
443
438
449
467
494
515
517
517
537
563
587
617
644
676
723
764
809
846
886
944
976
990
989
988
987
987
986
986
986
985
985
985
985
985
986
986
987
988
989
980
883
786
670
550
424
327
275
241
229
229
257
293
319
324
312
270
243
259
295
323
356
370
371
374
388
402
378
371
371
368
370
373
382
377
374
370
367
368
356
355
365
375
372
360
367
376
390
400
399
399
396
395
375
368
377
389
406
413
413
422
428
422
414
412
415
418
408
413
419
440
459
466
462
455
448
450
452
464
462
469
465
431
404
412
424
431
451
468
488
480
475
479
476
471
468
461
459
479
480
484
481
478
488
487
480
481
493
495
490
487
479
467
476
476
482
491
504
518
534
552
542
531
522
528
544
531
498
485
487
479
492
502
507
509
515
520
528
533
510
513
539
536
532
542
558
567
568
565
566
559
547
545
544
536
542
566
578
566
563
576
563
545
527
524
542
547
548
556
570
558
555
558
556
544
543
555
567
573
572
548
537
540
541
556
558
551
542
550
564
550
542
547
551
542
526
537
541
552
544
532
509
498
511
524
517
505
505
518
522
509
495
483
489
493
495
502
498
500
496
490
484
463
460
466
475
491
491
489
480
478
476
478
472
472
475
482
459
438
438
455
487
502
478
468
455
453
460
455
456
465
465
472
463
449
445
456
476
465
452
449
451
455
454
456
464
470
472
477
480
468
463
464
471
477
488
483
489
495
490
488
484
475
467
475
478
464
470
479
479
477
464
468
463
468
469
470
474
483
482
493
496
502
507
516
529
501
468
448
483
494
499
523
521
509
511
506
502
520
532
524
518
517
522
527
527
533
540
543
528
516
504
498
504
508
494
479
491
515
518
505
485
476
470
480
506
521
532
538
536
529
518
511
515
496
493
493
497
508
508
503
503
504
513
514
513
518
504
491
503
532
528
497
488
499
513
534
533
534
528
526
519
521
525
521
522
524
517
498
499
512
533
536
536
551
562
536
491
487
524
551
558
538
492
476
491
510
524
525
521
540
541
543
552
556
563
565
555
558
570
563
562
558
540
514
492
494
506
512
508
494
493
505
522
528
536
548
560
559
570
573
559
553
557
567
582
584
580
569
548
547
556
558
556
555
568
585
585
570
550
527
533
555
575
560
556
553
547
546
541
537
534
537
539
545
544
534
540
544
540
515
498
500
504
493
492
486
483
474
444
433
458
499
521
522
523
522
504
473
469
481
497
505
506
510
513
512
502
508
516
533
517
496
504
508
509
514
520
504
476
451
477
501
513
519
524
516
518
525
515
515
511
512
505
495
472
470
482
494
490
478
487
494
515
520
512
479
460
483
475
476
490
493
491
471
466
465
453
469
474
459
455
468
483
497
504
516
536
573
599
632
655
674
697
704
714
738
764
792
832
892
961
990
989
989
988
988
988
987
986
986
985
985
985
985
986
987
988
989
990
932
844
773
699
589
457
339
264
219
207
230
261
264
267
288
305
334
342
336
345
347
348
365
387
401
411
404
403
417
411
411
419
435
445
441
429
437
429
414
413
408
416
418
424
428
427
419
428
457
471
479
478
458
430
408
411
409
415
428
449
436
435
443
454
468
472
455
442
439
439
437
448
462
474
483
482
480
474
467
472
460
456
466
461
448
439
442
448
469
479
485
480
485
500
501
501
508
510
498
502
506
485
455
464
493
518
529
541
538
512
491
497
505
503
506
510
514
516
514
520
532
545
538
529
524
507
496
508
529
541
547
566
563
547
532
545
556
554
545
553
543
536
539
542
548
565
568
574
576
571
567
579
589
593
592
575
577
575
574
591
590
568
550
546
551
552
559
582
608
602
583
578
587
598
599
586
574
571
557
542
534
536
554
565
559
561
575
579
580
563
531
524
536
546
551
545
556
526
489
494
505
506
502
508
517
528
529
504
469
461
465
466
476
478
491
486
479
461
453
471
481
477
479
481
482
480
474
473
475
466
453
440
443
449
444
444
450
464
476
463
454
458
446
438
439
419
409
413
426
441
445
436
436
448
466
469
469
470
456
436
438
440
447
444
442
444
445
435
437
460
473
466
450
448
443
447
453
449
428
422
423
436
444
438
435
432
425
429
423
423
417
420
424
424
424
444
461
468
462
449
436
419
422
447
456
468
473
468
470
466
455
449
450
457
467
465
465
459
440
448
458
484
487
473
463
453
454
461
462
475
487
485
475
483
469
469
475
468
476
485
483
487
503
491
451
432
448
475
486
486
485
499
501
501
503
487
475
483
500
500
496
487
478
468
471
476
473
475
481
480
479
493
502
481
477
485
490
474
480
488
492
473
466
464
475
483
482
474
479
477
491
510
525
534
533
539
528
494
487
488
490
487
496
491
494
499
491
478
469
466
496
493
491
507
511
508
499
492
490
487
491
508
523
522
513
522
534
515
506
514
522
532
535
522
516
522
522
497
498
507
515
522
522
516
517
514
499
502
494
498
510
509
509
499
475
471
467
463
466
473
473
463
454
448
450
442
449
454
436
435
456
442
448
452
452
456
452
458
473
479
469
469
465
459
449
443
446
446
444
444
455
472
470
461
453
448
431
421
419
403
398
396
429
461
451
431
427
436
438
436
443
458
452
445
438
428
420
413
437
450
456
463
467
456
443
448
440
443
459
472
476
460
418
399
422
445
441
434
463
482
461
456
451
460
479
500
519
536
549
566
587
609
624
625
633
669
720
768
823
870
911
952
990
990
989
989
989
989
988
987
987
987
987
987
988
989
990
952
857
766
710
655
593
526
435
316
227
191
174
173
189
219
236
257
277
286
285
278
280
292
308
311
318
337
352
364
378
376
380
391
391
394
399
389
380
378
387
391
393
391
389
387
387
373
360
355
350
363
367
365
370
371
381
386
410
419
414
404
412
422
406
389
380
386
411
425
434
437
435
428
412
415
425
418
416
430
432
430
432
422
424
406
416
421
416
421
431
439
447
443
436
438
436
444
465
480
479
468
461
455
444
431
442
472
494
505
478
442
423
413
431
451
463
469
474
475
481
478
481
480
465
450
452
466
483
489
501
503
493
487
496
502
496
492
495
506
511
496
491
493
512
517
519
511
506
510
526
528
527
534
547
547
546
564
566
564
562
543
517
489
493
509
514
522
529
520
508
508
512
532
533
514
505
515
536
540
515
503
497
484
489
495
502
515
524
530
528
508
486
477
486
505
501
494
490
491
494
488
476
484
491
487
476
462
462
460
464
473
470
466
461
454
443
437
441
435
428
439
434
441
457
462
447
446
443
425
400
393
409
403
409
419
417
407
405
416
421
422
417
395
367
350
362
379
391
401
407
401
403
407
403
403
399
398
402
416
422
421
415
419
418
410
401
399
404
405
407
402
392
383
388
380
372
350
346
378
384
393
395
399
400
391
401
388
382
387
404
416
410
410
413
414
420
413
414
427
433
431
425
436
430
412
408
416
420
419
437
439
430
423
421
427
447
448
435
430
414
409
420
437
447
447
451
463
460
445
431
428
438
443
442
432
419
424
432
436
435
440
452
450
432
434
438
446
458
463
466
432
384
361
389
439
456
457
460
458
448
442
447
454
457
458
457
469
472
461
465
476
481
478
475
465
452
434
420
444
463
484
473
466
469
464
445
436
442
457
463
461
466
477
488
474
466
488
489
465
454
445
440
449
463
471
463
470
479
487
493
480
462
466
462
450
454
444
437
441
449
455
456
463
470
484
492
482
472
476
497
498
491
484
494
508
518
525
529
505
483
490
507
517
501
495
474
464
450
458
478
482
481
483
482
481
476
472
470
470
467
473
466
469
472
468
460
468
471
472
466
454
437
427
424
425
432
450
453
443
424
429
444
457
451
421
412
413
427
436
446
444
449
445
429
424
429
431
435
441
432
426
422
398
373
350
384
420
436
447
464
465
462
432
408
414
426
436
439
438
432
418
398
399
406
412
423
429
425
401
388
409
437
457
449
438
436
445
432
435
430
433
440
414
410
420
419
402
393
401
410
399
421
451
482
502
516
534
544
561
580
617
658
678
719
772
815
854
901
943
982
990
989
989
988
987
987
986
986
986
986
985
986
987
987
988
989
914
803
721
671
590
477
349
232
190
175
178
192
217
249
266
274
282
285
294
306
313
309
302
326
358
373
372
361
361
369
373
370
367
337
320
331
348
363
361
361
364
375
377
369
339
342
342
319
319
322
326
329
340
350
350
350
354
360
364
365
367
368
382
390
382
382
388
400
403
416
423
418
417
402
386
364
355
369
377
377
376
384
387
393
398
404
418
425
428
436
432
425
424
436
436
443
444
432
416
406
406
418
433
436
446
466
463
436
417
430
438
435
439
438
439
442
446
442
440
442
452
457
469
471
476
478
479
463
449
452
464
476
478
491
504
500
494
486
479
478
499
510
514
504
494
486
477
476
487
487
480
476
486
494
496
501
513
508
507
501
495
497
513
509
509
512
526
532
517
512
521
523
519
536
550
551
533
489
471
492
509
509
501
489
493
507
498
464
447
449
461
492
505
514
497
494
497
501
489
470
461
466
465
469
470
472
461
461
475
475
456
432
427
424
429
444
442
432
424
427
450
472
474
449
433
415
409
417
422
412
411
425
424
429
439
442
429
413
425
425
436
453
462
463
456
420
370
346
371
396
396
397
403
410
411
425
426
413
398
390
387
393
407
422
424
416
418
411
399
393
398
412
423
441
449
449
437
414
394
405
428
435
431
446
451
439
434
441
443
448
449
452
452
427
418
424
441
459
485
506
502
494
469
446
438
421
414
404
408
424
424
402
401
422
427
431
452
451
449
447
436
431
444
447
455
466
462
439
433
436
447
454
451
451
453
463
469
466
470
466
465
473
483
466
465
466
468
478
480
479
475
454
419
437
472
483
485
471
471
473
468
467
462
464
465
460
456
456
457
464
468
475
469
466
467
475
475
464
460
462
461
469
470
468
475
491
500
498
504
514
513
493
465
466
480
497
490
487
475
464
473
489
503
496
481
461
445
436
448
462
472
477
470
476
481
487
499
493
475
475
476
483
486
487
496
493
492
497
515
530
535
517
510
513
512
511
514
526
524
525
511
472
469
483
508
522
532
544
543
537
520
519
526
532
537
531
530
525
523
520
517
517
532
526
507
489
466
462
444
441
443
431
424
432
437
432
426
418
435
438
451
449
459
464
472
483
471
460
455
450
449
459
447
446
449
449
456
460
454
460
466
465
465
452
438
436
439
448
451
448
445
435
443
464
474
468
451
409
397
417
437
456
469
464
455
461
464
465
444
432
422
424
436
454
468
461
455
445
443
435
428
445
464
456
451
462
456
440
440
440
441
428
418
409
413
421
437
472
481
495
512
526
546
558
587
622
656
697
740
783
826
861
907
961
990
989
989
988
988
987
987
986
985
985
985
984
984
985
986
987
988
989
990
915
809
720
629
513
392
288
224
205
208
215
249
264
285
297
332
337
320
330
353
362
370
371
375
366
338
322
323
334
338
340
335
338
345
333
326
341
346
342
356
365
363
340
319
321
332
347
338
347
357
373
376
380
384
377
386
404
414
408
402
380
359
359
385
396
397
394
397
405
408
398
389
396
412
418
420
430
426
394
391
398
415
413
408
410
408
404
409
416
421
430
435
440
442
450
468
474
455
431
433
440
450
454
458
474
477
482
478
461
449
451
450
449
454
446
429
433
440
437
442
453
468
475
476
470
474
477
485
490
496
497
499
505
501
507
518
519
504
482
479
491
511
521
522
525
534
539
533
521
496
498
501
512
525
534
536
539
533
496
475
475
506
524
522
529
536
540
536
534
533
530
526
523
526
525
529
534
538
533
539
532
525
525
516
498
499
494
488
496
508
511
498
502
516
520
518
507
511
510
501
501
504
493
488
494
499
481
448
441
454
474
477
466
472
469
474
454
446
435
456
467
440
411
401
399
417
430
429
432
420
423
423
413
409
413
432
448
446
429
420
425
426
396
378
389
398
417
422
430
426
425
428
429
414
408
412
433
449
445
435
427
435
440
432
425
432
423
401
385
393
410
429
447
457
467
457
443
432
429
428
428
428
428
437
451
453
452
451
460
457
451
455
451
435
416
429
446
458
464
459
453
457
465
457
464
476
484
482
485
483
477
475
467
438
436
434
438
442
446
447
452
467
468
459
453
463
477
491
508
501
485
473
467
466
459
450
455
464
467
482
489
488
472
471
465
476
483
487
478
471
457
456
471
503
512
477
466
472
479
492
495
508
526
523
489
476
474
478
478
479
487
480
475
481
468
455
448
464
474
491
496
488
470
469
478
475
472
475
488
477
472
466
460
462
466
472
478
492
495
491
472
462
471
487
491
494
492
494
482
469
469
461
468
479
488
506
517
500
473
472
507
522
478
445
439
454
485
504
493
486
488
483
494
501
506
508
506
506
513
520
521
524
524
529
527
517
529
542
555
547
528
521
530
534
536
541
543
550
550
550
555
556
584
583
568
559
547
524
519
519
508
513
534
541
534
498
467
466
489
494
473
457
441
432
438
423
411
418
443
454
466
474
468
454
451
444
449
441
437
429
433
457
479
475
457
450
439
447
446
445
446
455
466
480
476
467
470
474
472
460
445
442
453
462
467
472
476
450
443
457
474
473
467
474
485
492
496
475
467
453
444
443
451
464
464
460
449
427
423
441
455
455
461
461
458
452
450
453
460
470
467
465
450
431
422
436
458
476
484
486
494
522
542
558
565
564
591
638
691
734
778
818
845
887
952
990
989
989
988
987
987
986
986
985
985
985
985
984
985
985
986
987
989
990
904
806
707
619
468
341
272
225
178
162
177
214
248
279
296
316
328
341
342
345
369
391
391
386
378
377
383
393
400
387
372
360
347
346
344
334
321
322
328
338
342
320
313
331
350
349
349
360
369
367
360
373
386
383
379
384
385
379
390
398
399
380
374
386
397
417
421
420
421
427
414
400
373
370
410
431
432
411
385
392
423
439
436
437
430
424
423
429
443
477
480
457
467
458
423
390
398
436
454
449
421
435
442
457
462
471
482
493
508
495
482
465
458
465
473
477
486
479
465
452
440
455
471
475
480
472
482
488
490
492
489
491
510
524
539
539
522
520
510
502
496
503
496
502
505
516
499
489
512
537
543
532
518
520
538
541
544
544
539
524
520
527
536
549
558
551
539
540
544
558
570
557
542
543
542
531
518
523
532
535
524
523
525
535
539
536
529
524
520
499
489
488
488
477
463
468
481
474
463
461
464
468
482
494
485
483
484
477
471
467
464
456
458
458
460
470
477
471
460
452
464
467
463
460
459
439
430
439
444
459
465
462
453
439
428
425
435
437
423
413
424
427
433
434
423
409
407
410
416
433
441
442
441
441
441
430
420
416
435
449
441
439
432
439
428
420
430
449
462
468
446
433
430
437
435
419
413
412
411
424
445
458
447
420
419
430
443
449
460
456
451
441
432
428
444
453
455
451
459
464
462
463
463
468
457
447
451
460
464
463
464
459
460
449
434
431
439
458
459
449
452
458
473
480
464
456
459
467
468
464
469
486
496
493
483
475
473
466
464
474
487
495
482
479
475
476
477
484
467
472
487
498
497
484
484
479
473
469
466
470
473
481
474
469
472
469
478
490
492
502
510
477
447
442
464
488
486
494
505
503
500
474
433
424
434
451
482
509
510
502
492
477
475
492
503
510
520
510
477
476
488
489
494
478
488
491
485
454
443
453
477
492
496
486
486
496
505
509
510
503
504
513
532
538
530
513
509
494
473
460
457
454
451
463
475
487
506
508
471
454
476
495
511
508
498
501
502
503
501
511
530
529
527
528
538
548
559
554
549
550
553
553
529
496
483
497
513
525
525
525
532
538
531
518
508
509
516
520
520
517
504
493
507
511
501
483
487
504
500
493
484
479
478
454
428
441
467
468
467
448
433
439
440
445
457
449
449
448
447
455
457
448
427
432
461
505
514
482
466
465
449
450
459
458
459
468
482
480
458
453
451
440
419
426
445
457
459
461
455
459
475
478
462
449
452
477
477
436
406
428
461
490
484
463
459
453
454
456
447
447
442
432
441
445
446
447
448
439
441
454
459
458
464
506
542
567
581
582
582
606
646
686
718
737
776
820
876
930
989
989
989
989
988
987
987
986
986
985
985
985
984
984
985
985
987
988
989
959
852
778
684
557
405
305
242
204
186
183
184
218
238
262
298
307
314
332
342
359
377
389
389
387
380
360
352
345
341
334
327
326
340
346
343
341
337
352
367
370
374
381
382
381
373
378
369
359
362
370
390
410
397
401
401
382
359
361
373
388
399
406
413
393
373
378
386
394
390
388
401
398
387
407
433
448
461
456
451
439
445
450
455
456
450
445
427
421
424
427
433
446
453
452
446
438
429
442
442
436
436
442
449
461
469
484
486
491
494
498
493
481
457
458
487
492
485
472
463
470
492
518
527
510
500
505
497
486
486
476
463
469
485
483
474
469
474
491
504
520
531
535
526
499
491
503
530
536
533
527
540
555
556
529
525
519
516
514
517
524
531
538
547
552
544
532
538
549
550
551
540
520
520
525
535
523
520
531
540
530
525
523
530
532
534
530
513
480
476
499
530
538
522
518
530
530
508
501
501
509
512
509
504
505
494
493
495
493
497
483
472
472
478
482
477
461
451
460
458
446
446
449
451
428
414
422
436
441
430
422
428
434
446
451
439
422
424
445
463
475
457
441
444
449
436
426
426
422
418
419
413
401
406
399
415
422
427
433
436
438
436
443
445
438
423
421
420
408
402
403
417
433
445
451
448
432
431
438
447
450
455
460
456
446
441
444
445
436
435
440
457
469
468
469
475
453
412
394
414
447
455
465
461
465
479
492
496
498
475
460
474
482
472
469
458
443
435
437
448
461
453
455
459
462
458
454
468
477
469
460
458
457
469
475
479
474
473
481
487
484
476
463
464
478
485
500
511
520
533
534
509
510
503
479
467
493
484
475
451
433
428
440
461
467
477
486
484
481
477
471
473
470
471
479
486
485
473
477
496
518
534
520
496
480
485
491
484
489
492
488
471
475
482
482
477
482
489
496
497
500
501
504
504
503
509
509
488
470
482
488
487
505
495
471
455
459
488
501
494
480
472
479
480
474
483
484
487
500
514
506
480
476
479
488
496
511
524
521
510
520
519
525
529
519
526
533
533
543
556
559
548
517
506
520
527
533
540
546
554
561
560
555
545
540
522
507
499
509
524
521
526
502
492
495
506
511
515
505
491
489
500
508
497
494
496
494
497
503
512
492
457
449
446
418
389
388
415
418
421
439
440
440
452
456
449
445
459
466
462
444
447
458
457
473
467
460
463
458
449
451
454
454
451
447
454
462
467
467
470
477
477
461
441
430
433
453
477
486
476
483
485
479
472
474
494
482
448
442
453
462
462
454
449
455
453
461
472
455
435
399
372
379
415
436
449
476
486
489
497
508
530
551
576
603
624
647
667
712
752
772
805
853
910
964
990
989
988
988
988
987
987
986
986
986
985
985
986
986
987
988
989
960
863
763
703
621
537
423
317
243
205
185
190
213
234
267
293
300
300
298
297
298
328
357
366
351
337
334
364
374
381
381
379
380
376
371
372
385
392
396
383
354
347
358
364
355
369
363
379
400
409
396
395
405
406
409
410
401
405
402
403
416
420
421
429
429
427
416
407
389
392
406
438
458
456
459
473
471
474
480
486
484
481
463
446
438
452
453
443
446
442
436
439
456
460
454
451
450
458
464
465
468
478
477
472
457
448
453
471
478
477
475
478
491
482
450
434
422
438
462
482
514
518
516
487
498
510
512
518
525
527
526
518
518
515
526
524
528
521
519
538
541
538
531
526
521
520
527
535
543
547
555
556
572
577
583
586
571
551
547
550
549
529
513
522
530
538
543
550
551
549
549
552
551
541
549
560
568
569
572
579
580
577
558
536
536
537
527
528
536
550
533
513
501
498
504
504
510
514
517
517
518
512
489
482
478
484
507
519
515
510
513
498
487
482
480
473
471
461
453
470
469
466
457
460
470
467
464
457
443
425
432
445
451
448
449
453
455
445
446
445
442
441
444
454
457
451
448
433
419
413
426
429
418
413
413
418
428
438
442
443
446
432
420
406
413
421
411
412
406
408
411
423
426
410
397
386
390
414
424
427
419
414
419
432
436
426
427
434
433
435
441
450
440
440
446
451
452
435
429
437
443
441
439
463
475
453
430
417
436
461
477
486
486
456
445
449
468
476
470
482
489
455
432
429
445
454
464
467
454
446
442
484
496
481
469
474
481
483
473
459
455
464
471
464
454
450
459
478
492
496
486
489
496
509
520
509
464
443
455
469
472
459
462
464
467
474
480
478
476
470
452
464
488
505
493
471
466
484
505
511
502
494
494
493
496
494
487
492
503
512
485
457
469
496
488
494
489
472
473
488
501
499
502
496
501
498
472
457
475
504
520
515
517
511
515
535
549
562
563
533
537
540
530
489
486
508
537
543
531
530
533
542
540
535
541
543
527
531
542
547
551
522
523
529
525
504
493
488
493
488
497
530
532
525
525
510
501
491
483
474
475
481
479
446
422
429
436
445
445
438
439
445
438
431
442
456
458
460
459
453
455
462
473
464
452
464
448
419
428
435
449
466
472
473
471
471
468
456
459
472
479
477
482
480
468
467
471
466
436
405
408
447
472
480
478
473
467
475
479
471
464
459
465
461
462
439
425
424
413
405
421
440
458
468
465
471
481
469
459
460
462
462
460
460
477
491
500
512
531
533
535
560
578
602
629
643
666
694
731
777
824
870
918
961
990
989
989
989
988
988
987
986
986
986
986
987
988
989
989
983
911
843
781
725
665
585
484
372
273
232
210
208
207
204
226
255
267
290
313
316
298
298
316
326
357
395
396
377
392
407
392
362
348
364
383
388
386
379
384
409
423
402
375
365
368
385
389
382
367
371
392
402
391
387
403
444
438
431
424
413
408
415
431
446
430
416
422
450
456
455
439
405
401
430
446
431
431
445
466
466
454
441
452
464
480
492
476
453
464
490
499
506
493
484
475
484
493
494
469
457
465
479
496
509
509
499
511
495
460
449
437
440
468
472
465
475
487
504
510
510
491
472
468
474
489
492
490
485
490
499
509
521
516
509
506
519
529
534
527
517
524
519
522
527
532
541
522
504
516
542
565
576
567
562
577
563
547
546
538
550
557
552
563
561
560
560
571
561
556
549
544
548
566
574
565
565
561
550
551
557
550
544
542
547
549
548
530
544
566
572
567
557
546
542
551
563
558
549
552
538
512
489
486
496
498
496
485
467
461
474
485
486
479
477
466
463
471
489
497
507
495
460
452
481
469
451
446
456
454
431
418
409
388
387
399
404
423
429
431
437
434
428
430
427
428
441
443
414
396
390
393
399
407
410
418
420
425
427
427
419
417
412
421
425
418
418
427
423
417
416
417
429
429
428
436
434
418
404
405
422
437
433
426
424
418
429
448
444
448
439
427
431
443
439
423
418
441
444
407
394
401
406
413
422
436
437
438
435
435
441
450
454
464
469
463
463
468
469
468
476
462
459
461
467
463
454
437
432
441
447
456
449
448
447
449
461
469
452
447
460
476
482
474
459
452
466
483
491
484
464
450
454
469
481
487
473
470
475
483
493
493
510
499
486
485
488
490
491
500
495
497
495
505
494
480
479
484
491
483
456
456
468
478
480
485
492
503
508
507
503
504
504
494
487
484
474
491
500
513
516
492
464
447
469
497
503
509
511
509
494
492
491
497
502
507
507
502
497
506
516
529
547
551
542
542
540
535
526
529
526
507
481
487
499
514
512
516
526
520
510
498
499
503
508
530
536
518
506
503
474
468
460
455
467
476
466
455
454
474
494
497
504
500
497
474
457
450
439
447
450
458
435
425
423
423
432
420
419
415
420
430
439
430
422
432
447
459
459
468
480
481
454
446
453
457
436
423
430
442
449
446
464
466
460
455
444
439
451
465
470
484
468
452
443
452
453
443
435
453
450
420
433
435
439
454
453
450
455
460
463
465
441
435
428
429
431
437
446
454
467
478
493
505
522
547
566
591
615
630
645
670
679
731
783
827
882
948
990
989
989
989
989
988
987
987
986
987
986
986
986
987
988
989
990
960
883
807
743
662
570
445
341
261
213
198
192
208
218
251
286
305
303
286
276
278
289
308
321
329
352
367
378
375
369
368
368
370
372
381
394
386
378
376
369
352
357
356
362
363
369
368
386
399
390
385
378
386
393
394
397
400
392
394
392
396
408
417
418
412
421
437
463
473
460
401
370
385
416
435
420
414
414
418
422
427
441
448
454
458
445
436
438
438
436
439
447
436
451
452
457
459
450
463
476
479
479
487
484
476
448
438
444
452
463
483
475
459
465
472
477
482
478
481
481
484
490
495
492
485
468
471
479
467
461
469
475
491
522
527
495
459
459
496
517
527
534
519
518
531
534
528
513
512
527
545
546
531
519
531
541
532
513
521
540
545
523
499
501
511
524
544
553
546
536
535
537
551
561
557
547
547
540
533
532
529
534
534
531
530
499
480
493
509
513
511
506
502
492
497
491
495
494
493
482
487
488
479
477
480
479
472
469
466
475
479
482
483
472
461
459
458
460
465
469
462
437
433
441
476
483
460
444
422
422
426
438
443
451
452
460
466
460
451
452
454
460
463
460
461
457
453
453
454
455
451
422
401
384
380
400
432
444
433
410
384
380
392
401
394
389
401
423
431
439
411
403
399
405
415
432
442
447
446
430
418
419
426
439
448
428
395
395
414
432
434
427
417
435
456
454
454
456
445
439
436
438
446
438
434
437
452
462
462
457
457
445
444
449
459
471
469
466
461
453
454
465
476
481
481
472
459
455
456
456
454
456
470
439
417
443
478
498
484
476
480
495
502
501
490
474
455
464
474
475
483
481
478
480
488
500
495
488
484
483
485
478
455
457
476
492
499
494
493
488
479
465
456
467
469
462
449
456
468
481
475
467
466
462
481
514
499
456
430
454
477
477
479
483
493
499
500
503
505
497
496
498
497
500
495
479
480
497
510
514
501
493
500
500
497
504
507
506
513
508
502
508
516
527
531
520
514
508
507
510
531
555
565
570
564
549
508
482
489
507
502
508
509
523
538
541
542
550
527
514
497
475
493
513
519
518
510
503
496
488
476
455
459
480
484
451
449
450
449
434
434
454
453
445
442
452
449
437
413
420
440
450
463
469
472
452
444
454
453
456
448
446
464
476
483
482
474
466
464
464
466
473
471
473
475
474
474
478
479
472
466
468
460
441
426
420
420
425
422
422
436
424
425
418
423
429
425
436
437
449
455
460
463
472
471
471
456
446
438
431
429
427
433
445
443
436
454
472
470
457
471
499
518
539
569
616
637
666
704
752
788
829
857
891
945
990
989
989
988
987
987
986
986
985
985
985
985
985
985
986
987
988
989
948
851
764
687
592
471
366
298
248
229
226
229
252
273
303
317
312
306
326
331
327
320
312
336
338
338
341
351
357
364
365
354
347
347
327
333
343
356
362
355
358
362
363
381
383
376
377
362
337
321
332
363
375
356
342
350
375
392
399
402
388
378
366
369
370
381
390
375
361
361
395
409
416
417
418
413
408
407
411
416
425
429
427
426
426
415
408
419
432
445
438
409
396
404
434
459
461
456
445
432
429
445
474
480
467
460
467
470
473
470
448
431
440
434
418
419
421
435
448
447
451
474
496
512
516
510
495
485
476
476
479
482
484
476
480
483
480
482
487
500
501
497
510
504
498
494
484
481
495
522
537
543
556
551
532
531
538
544
546
554
541
536
535
542
537
537
538
542
552
535
528
532
544
546
523
491
487
518
535
536
516
498
496
504
512
501
494
492
498
504
499
490
496
492
490
503
511
507
505
517
515
494
470
462
470
477
476
473
454
449
447
439
432
427
445
457
456
446
437
433
441
449
450
450
435
403
404
421
434
439
439
451
455
443
429
421
407
398
401
419
436
440
440
435
434
423
422
432
444
437
443
443
459
462
460
463
453
435
427
413
396
392
403
421
426
424
422
417
418
419
422
423
428
431
439
441
443
434
424
420
445
442
430
433
451
455
450
459
439
420
426
433
437
429
419
438
448
453
456
452
455
455
437
428
430
453
472
468
467
470
462
458
447
455
439
440
444
447
446
449
445
446
456
468
474
462
468
480
484
483
467
456
449
457
448
448
470
496
500
482
475
471
469
475
478
479
488
492
492
472
461
476
478
474
469
474
476
478
477
476
484
467
457
435
440
459
490
499
491
481
480
477
476
477
473
475
483
488
489
471
453
449
464
486
494
474
453
444
457
479
481
484
485
489
488
501
499
495
483
471
476
480
493
487
484
485
470
474
476
475
483
494
490
487
467
468
481
500
523
516
514
510
511
511
507
520
528
517
492
493
482
473
459
462
474
486
513
524
526
517
500
496
505
491
490
501
498
497
508
523
547
552
556
525
502
505
511
525
533
540
543
535
539
535
536
542
547
519
486
476
487
489
476
477
471
472
481
473
472
477
482
465
469
469
458
460
466
464
452
454
467
476
454
451
454
453
454
464
458
441
439
425
434
451
454
458
456
457
457
470
473
477
472
477
481
480
471
468
461
446
440
425
435
446
455
461
455
440
435
442
458
477
483
471
463
448
432
442
448
461
462
460
460
458
456
447
448
457
449
428
421
421
426
445
456
451
442
438
443
444
436
431
446
441
391
342
360
414
474
503
524
540
540
557
591
626
669
713
756
780
799
815
847
897
948
990
989
989
988
987
987
986
985
985
985
984
984
984
985
986
987
988
989
990
891
804
702
580
446
340
274
237
205
201
221
241
262
279
305
319
316
312
328
327
337
353
379
369
330
317
319
336
335
332
333
327
326
338
353
353
347
346
358
357
335
322
331
353
361
367
364
364
360
365
362
360
371
368
357
350
356
379
387
361
355
361
366
375
389
392
398
395
399
404
404
388
396
407
411
410
393
382
407
409
404
408
414
421
429
434
428
437
431
434
442
423
411
418
431
442
448
452
457
444
442
445
446
437
438
440
443
452
453
452
464
464
459
459
457
458
457
464
468
467
469
471
477
481
475
462
457
463
474
474
491
497
480
473
487
503
506
498
507
512
510
518
532
534
515
527
547
547
514
493
504
523
543
554
547
534
530
515
502
503
505
511
508
517
524
523
538
543
532
515
511
519
536
544
536
509
488
493
509
509
506
503
517
507
502
506
498
492
487
487
493
498
509
519
519
526
515
507
501
483
483
485
482
485
486
492
486
477
458
436
434
427
429
439
453
464
457
436
437
445
425
401
401
409
420
434
436
437
449
458
454
429
413
412
424
431
430
448
449
437
434
435
412
400
406
408
409
411
416
425
430
428
419
426
430
435
432
435
433
430
413
403
427
437
422
425
412
395
398
410
421
431
430
418
417
429
432
439
435
437
446
444
438
427
419
430
436
441
435
428
429
440
446
454
461
465
463
460
453
444
432
417
411
426
444
457
465
458
444
439
447
458
450
454
460
462
461
463
467
467
462
436
420
438
462
472
471
460
458
455
456
475
477
472
468
468
470
477
474
477
469
468
473
475
470
461
463
464
467
473
475
474
475
480
488
490
486
480
482
483
488
486
476
465
476
475
469
463
465
473
477
476
474
477
479
477
478
480
473
469
476
482
480
482
487
478
473
474
475
481
481
471
476
471
469
475
479
482
487
495
497
495
495
479
464
461
465
472
472
472
479
492
495
493
487
501
507
480
448
435
428
438
468
457
442
432
439
454
472
459
448
460
474
463
446
467
497
523
527
509
492
484
471
459
456
466
487
492
493
495
493
491
486
500
505
507
500
500
495
492
496
508
508
495
496
508
518
518
524
531
533
527
515
510
514
517
510
525
541
529
522
511
497
492
502
511
517
524
516
516
524
528
523
535
533
521
494
489
471
452
452
459
481
486
490
486
477
446
410
421
445
474
487
486
480
471
466
460
462
461
469
460
449
460
464
457
463
463
456
457
461
463
465
461
462
462
458
470
462
453
451
447
445
450
461
478
474
446
448
469
478
467
466
451
420
419
432
442
455
456
461
468
446
418
409
428
437
431
432
435
447
458
458
467
464
469
457
445
447
460
462
445
424
424
444
435
426
421
416
415
424
436
447
459
476
483
502
535
563
589
612
642
668
709
747
771
816
864
907
957
990
989
989
988
988
987
986
985
985
985
985
985
985
985
985
986
987
988
990
928
847
763
665
538
401
300
246
202
184
196
228
254
269
287
296
310
317
312
317
336
359
342
342
342
334
324
328
350
363
355
346
347
352
355
360
365
371
369
353
335
337
349
360
365
362
364
364
364
371
387
394
393
393
388
384
398
402
392
392
394
398
407
405
380
361
370
387
397
394
387
385
393
403
408
401
391
397
406
414
418
429
428
427
427
435
436
433
439
433
402
382
380
394
425
445
446
459
473
473
441
426
437
449
427
421
435
438
467
471
461
457
456
470
485
478
478
467
466
467
458
454
462
479
488
480
486
496
505
501
499
507
521
507
495
508
522
517
497
497
502
525
534
506
489
493
500
515
522
527
526
514
508
496
499
512
525
532
532
533
544
552
545
536
556
566
531
486
467
492
530
557
548
533
521
517
510
509
508
511
507
504
504
501
501
498
493
480
482
488
496
504
510
517
520
509
497
504
494
477
476
474
472
472
468
474
479
479
478
469
457
466
474
456
439
449
440
428
435
453
467
466
461
444
424
423
437
441
455
461
464
464
452
443
449
459
478
464
432
416
406
417
419
428
419
397
387
396
415
427
425
436
451
462
466
452
416
387
375
385
400
406
408
422
433
440
443
438
436
431
426
437
448
455
455
430
432
426
428
434
436
431
436
439
440
445
446
450
451
445
442
442
427
424
446
462
453
445
431
435
437
446
453
454
453
447
445
445
453
459
465
469
462
454
459
461
479
480
485
478
471
468
465
478
490
498
499
495
482
467
457
481
482
472
464
460
463
447
455
465
475
487
480
459
454
464
458
468
468
480
475
460
465
474
465
465
481
473
459
455
462
466
486
488
479
485
489
496
478
464
455
466
477
501
483
444
455
485
509
504
498
490
498
501
495
494
494
492
487
481
473
467
476
486
485
491
488
484
493
493
481
475
470
477
476
476
484
493
502
498
492
487
485
483
489
482
477
475
473
476
475
478
485
485
480
479
482
487
488
495
501
487
474
490
491
490
483
473
471
473
485
493
508
506
499
501
485
493
500
503
502
496
487
474
483
494
502
504
515
512
491
472
494
515
513
492
480
501
515
531
540
540
528
526
519
526
533
497
470
478
505
506
503
510
522
505
481
491
512
536
533
525
533
546
560
554
531
519
521
530
542
543
509
470
456
457
467
487
498
491
481
474
466
464
466
462
465
464
458
454
452
444
454
464
447
435
442
470
489
480
468
469
470
466
460
466
476
471
476
483
468
458
464
475
480
469
457
464
465
470
486
485
484
477
470
431
383
393
447
476
479
456
443
449
462
470
464
464
459
454
461
459
463
468
470
470
471
461
461
462
469
480
473
468
483
468
443
439
466
474
456
434
430
435
437
438
435
428
430
450
480
494
514
540
560
575
577
601
600
612
663
730
778
823
867
913
974
989
989
989
988
987
987
987
986
986
985
985
985
985
986
987
987
988
989
989
889
769
644
531
418
326
257
216
196
203
226
243
266
294
311
314
307
331
359
352
313
285
304
339
363
384
381
369
351
334
334
342
355
364
365
370
375
386
402
408
404
388
380
376
377
353
339
343
357
365
365
382
399
398
403
407
403
403
404
405
443
450
422
406
402
406
421
425
428
428
423
423
428
438
427
432
440
434
429
432
431
401
415
443
468
454
439
437
448
460
456
456
452
445
443
444
453
463
451
448
460
454
463
475
484
498
503
492
487
485
490
508
508
483
461
458
464
472
475
466
469
469
481
489
504
514
510
516
517
509
517
521
520
507
494
494
506
508
500
487
493
511
528
542
536
532
534
532
533
553
552
554
561
568
561
537
523
514
514
527
541
533
527
531
540
551
555
562
568
568
550
543
515
497
517
514
535
546
545
542
532
535
544
551
553
535
528
538
536
528
525
531
542
555
556
547
544
531
492
481
495
496
506
514
508
503
498
491
495
497
487
487
494
477
457
452
442
445
456
452
452
460
453
462
449
447
433
433
440
444
438
438
433
442
451
464
471
467
450
405
389
371
393
433
439
429
424
428
420
420
419
417
422
436
443
441
442
443
453
459
452
420
392
377
365
379
395
416
438
439
435
438
418
401
404
414
406
413
426
439
461
456
452
444
442
461
455
448
461
470
456
460
446
422
423
441
453
439
426
441
446
439
440
443
446
452
445
434
425
426
431
430
446
447
437
443
460
459
464
470
463
455
449
442
452
462
468
482
491
488
483
469
468
484
484
468
467
476
455
447
447
451
453
450
453
443
451
460
459
454
476
489
481
479
477
490
506
497
487
480
480
473
479
488
492
487
493
497
493
482
471
478
485
493
495
478
488
512
526
527
549
518
448
415
425
450
468
482
471
467
477
481
478
481
479
486
473
449
470
494
504
512
516
517
522
520
498
494
497
502
504
496
500
523
526
522
526
512
501
499
505
512
522
525
513
520
534
547
552
546
550
541
546
560
544
520
511
521
525
527
518
529
529
519
508
511
515
530
545
552
560
554
534
515
499
507
493
478
474
474
460
448
439
442
445
441
428
429
434
448
445
440
424
429
449
469
496
478
446
451
456
450
446
447
445
446
431
449
467
474
486
454
435
436
457
457
451
449
450
453
447
455
478
481
470
464
454
435
426
423
411
406
411
448
481
492
477
459
458
449
436
439
458
460
466
471
471
469
483
480
469
454
451
456
452
455
458
460
472
455
445
457
464
474
476
468
474
496
511
510
525
536
539
549
576
574
568
581
611
635
672
726
770
802
846
888
914
952
990
989
989
988
988
988
987
986
986
986
987
987
988
989
990
915
849
784
724
672
612
524
420
325
259
232
231
244
254
256
270
292
306
311
300
313
313
320
336
339
359
382
416
427
427
413
408
418
415
408
395
385
378
399
407
385
360
351
357
372
392
399
401
388
381
377
392
387
358
370
394
407
399
395
400
404
403
409
417
431
438
426
441
444
439
434
437
442
443
444
440
450
449
456
446
429
422
437
462
485
485
473
465
460
467
462
457
459
466
472
479
494
491
494
495
488
482
478
493
504
505
504
501
479
471
463
470
472
488
486
481
477
465
463
477
487
485
487
490
508
495
489
505
508
507
507
508
515
509
508
516
524
520
520
525
538
561
559
568
544
524
526
551
550
537
534
527
531
540
553
567
572
567
569
568
567
565
568
573
566
582
588
581
554
549
557
570
570
575
589
586
576
565
566
573
572
560
555
544
536
531
532
545
546
542
530
527
537
550
558
563
562
550
539
522
493
463
454
480
493
519
506
489
488
491
492
492
492
483
466
467
476
469
471
463
458
465
457
447
451
449
436
433
437
440
439
428
412
418
435
444
443
435
449
450
436
418
411
409
408
411
416
431
441
446
448
429
421
428
433
436
447
467
472
452
414
389
371
377
388
382
377
407
419
418
418
410
404
399
404
405
404
396
387
388
402
407
407
417
433
419
402
394
382
378
408
426
423
413
414
419
432
447
457
460
450
452
451
441
438
443
446
450
460
460
452
448
439
428
417
431
457
467
462
421
405
418
441
461
468
463
461
472
474
471
461
466
478
483
475
472
468
460
461
470
472
465
456
462
474
464
467
474
456
445
467
483
489
496
501
505
507
498
488
496
498
500
502
493
457
432
438
450
458
472
483
481
468
456
458
460
466
484
515
529
512
487
469
486
508
531
549
544
532
515
510
491
486
487
487
484
482
480
478
480
497
502
494
502
506
508
512
504
506
517
520
534
536
536
527
519
526
531
537
514
486
490
508
532
526
505
516
521
526
528
522
523
514
510
509
515
519
508
504
494
494
499
503
500
503
497
480
465
464
479
491
485
470
456
436
441
450
447
463
488
481
469
468
469
470
477
462
454
445
440
441
440
449
446
437
446
458
458
443
427
442
446
452
456
457
455
464
464
460
456
444
445
452
462
467
461
451
447
455
454
448
445
448
460
457
436
439
446
461
462
460
469
470
454
441
442
443
444
460
452
445
457
466
472
470
466
488
491
465
442
435
433
433
432
421
436
450
458
465
477
494
508
509
510
520
536
559
588
609
635
668
709
740
773
812
870
916
960
990
990
989
989
989
988
987
987
986
986
986
986
987
988
989
990
956
884
814
738
654
558
462
354
274
238
228
219
227
239
260
276
291
291
298
314
335
337
351
376
388
387
395
393
380
370
346
331
348
369
379
379
377
378
379
373
352
336
329
338
359
393
400
392
395
404
403
407
416
412
407
408
408
400
400
403
409
392
388
395
411
426
426
427
419
416
423
430
447
449
434
424
430
438
445
455
469
476
480
489
484
471
451
439
422
402
404
412
430
436
440
439
442
463
465
459
452
453
450
446
448
457
459
477
473
471
464
459
460
451
449
457
478
490
497
503
499
497
491
485
495
501
496
504
506
509
503
489
500
514
508
494
492
501
507
499
505
522
531
533
526
507
508
523
527
527
535
535
542
532
521
523
532
546
557
559
562
562
560
553
541
539
543
539
548
559
559
549
557
563
566
580
582
573
557
548
540
523
513
516
523
524
513
508
501
497
494
487
496
508
513
508
504
509
513
508
507
512
501
505
510
508
514
506
488
482
481
474
482
474
452
434
427
424
426
426
443
457
453
436
426
420
418
425
432
446
453
456
461
458
449
421
407
433
455
454
443
451
441
431
430
427
433
439
438
434
435
434
434
411
406
411
429
439
426
424
431
438
425
429
436
437
435
416
405
402
401
382
385
387
380
398
407
412
425
435
434
419
405
408
415
425
437
442
432
450
443
437
428
424
441
443
429
432
436
446
451
452
454
448
436
424
431
452
472
471
446
439
444
444
450
446
447
451
458
445
439
447
456
457
463
469
472
466
463
458
453
451
462
475
488
494
496
496
487
471
473
476
467
460
467
480
483
486
501
486
468
462
452
454
448
436
442
457
479
482
472
479
476
479
483
467
467
472
481
484
491
498
505
503
486
466
458
468
469
474
469
471
487
509
506
501
492
484
490
493
489
485
484
476
464
463
448
434
454
482
502
498
482
484
496
509
512
506
498
500
496
486
485
498
519
515
507
503
494
510
525
531
528
543
543
540
525
509
499
512
514
514
524
524
523
508
489
493
523
552
545
536
532
525
521
521
507
502
483
491
510
512
514
506
504
487
484
496
501
506
507
485
468
460
458
450
443
449
464
466
463
444
441
452
471
484
480
462
474
484
452
424
420
432
448
454
457
457
454
453
456
456
457
457
453
457
455
452
446
454
463
468
464
469
467
453
432
426
445
446
444
446
460
459
446
445
437
443
453
459
467
471
471
473
472
475
478
476
469
443
419
410
411
439
468
485
487
484
468
461
464
473
475
463
439
416
424
428
429
420
423
441
476
485
505
515
547
571
603
598
585
584
641
738
791
829
871
908
942
988
989
989
988
987
987
986
986
986
986
985
985
985
986
986
987
988
990
930
854
764
673
565
444
346
292
249
224
222
243
271
291
318
332
342
341
342
348
339
349
360
364
362
342
328
341
347
345
346
349
344
340
341
343
351
362
377
375
376
372
366
365
366
371
373
363
372
384
380
364
344
344
336
337
365
383
384
395
417
412
390
364
382
397
413
422
416
400
390
392
403
412
397
370
387
417
433
428
428
406
388
379
392
412
421
431
413
410
420
427
443
440
434
440
449
458
434
409
425
448
455
452
453
445
437
433
446
472
487
501
490
488
477
457
448
446
455
456
446
440
463
467
468
466
467
480
487
483
480
488
493
477
479
479
485
502
509
508
505
502
511
525
541
548
532
515
511
521
508
491
491
502
505
512
507
514
514
506
488
491
506
523
541
546
549
553
557
552
535
523
531
540
543
541
524
504
501
518
521
523
520
519
527
535
529
530
531
539
546
535
514
512
507
499
498
490
485
483
464
451
456
457
463
461
467
470
454
451
453
458
466
463
457
461
464
455
448
456
463
466
467
457
454
440
448
438
430
446
437
416
402
411
423
427
421
409
407
416
440
453
457
451
454
428
400
368
347
367
399
403
415
416
418
424
445
454
446
423
419
411
414
410
409
415
405
420
424
420
431
441
438
446
443
425
423
425
434
432
430
438
434
424
438
452
467
450
432
427
443
472
473
481
478
471
474
478
484
481
474
469
459
454
462
459
467
465
462
456
450
445
441
440
432
440
455
475
493
493
463
435
432
429
432
419
431
446
454
461
476
488
514
530
518
494
461
452
472
500
488
448
431
443
463
461
446
444
456
471
480
480
474
489
480
472
460
448
457
493
504
485
477
479
481
478
474
472
478
481
479
487
491
493
490
493
486
480
488
498
484
482
476
468
479
492
494
484
489
497
490
470
448
461
486
469
463
478
467
470
483
487
496
501
503
505
495
486
503
517
513
482
455
447
444
446
459
474
502
519
506
502
510
503
502
504
506
511
522
523
518
525
514
505
490
494
504
504
499
495
504
508
500
506
499
501
526
536
533
514
508
509
512
521
526
525
531
539
530
543
543
533
527
504
509
510
506
495
493
496
493
491
497
511
500
482
474
460
461
470
458
467
473
472
474
472
466
467
467
467
462
449
453
465
462
464
471
457
440
441
446
448
459
467
473
468
470
476
463
451
441
457
459
463
468
471
470
475
482
473
472
462
434
435
452
465
444
424
421
422
427
431
441
464
473
478
478
479
475
462
436
422
436
444
451
450
453
456
458
463
461
468
472
468
460
463
450
462
466
449
430
431
443
441
430
420
415
428
450
468
475
484
495
535
566
612
642
664
709
758
811
857
910
955
990
990
989
988
988
987
986
986
985
985
985
985
985
984
985
986
987
988
989
990
887
790
698
593
456
363
294
246
213
216
230
274
303
326
311
287
311
331
355
357
361
364
358
353
344
345
338
333
326
322
334
356
361
357
356
351
348
342
338
347
365
369
355
346
350
361
358
351
351
362
363
366
369
374
370
374
360
349
360
378
389
377
384
390
397
407
407
369
366
387
391
403
412
400
397
399
399
390
386
405
418
420
420
420
422
424
420
415
420
437
446
455
445
448
439
415
391
403
440
441
432
447
454
450
440
446
452
461
468
476
472
473
470
464
466
470
481
491
491
488
514
514
501
479
461
465
481
490
498
500
495
493
524
520
504
505
502
496
505
523
535
525
501
476
459
447
457
477
482
488
497
501
509
505
485
466
473
500
523
539
542
532
518
513
526
541
549
546
544
531
512
509
510
515
523
516
521
510
506
531
540
543
537
518
511
511
509
504
516
523
516
510
511
508
510
511
500
485
470
484
496
492
475
459
468
481
484
480
473
478
466
458
465
458
464
465
477
485
449
428
422
433
442
438
439
441
440
441
440
448
452
434
432
429
424
435
446
452
444
402
395
411
436
456
454
437
419
413
418
411
410
419
416
409
411
404
403
409
409
416
408
409
410
406
412
435
429
410
409
403
407
422
424
428
434
443
452
463
451
433
431
427
427
432
442
438
430
432
450
458
452
450
448
457
465
474
492
467
431
425
413
420
445
454
465
469
459
446
453
458
472
466
462
475
478
468
464
467
474
494
504
519
524
496
440
413
419
430
443
449
449
451
452
460
451
451
453
441
442
445
446
442
440
437
447
468
491
492
496
492
486
467
467
478
479
477
472
470
474
484
490
486
483
478
472
479
482
478
479
472
473
478
478
480
478
472
478
474
466
480
490
478
450
459
470
481
492
503
507
517
515
506
478
482
468
464
484
493
494
485
466
467
482
495
504
503
508
506
500
487
478
474
469
468
470
469
477
480
472
460
449
457
462
479
494
484
474
463
456
445
456
479
495
498
486
480
479
491
493
497
489
477
479
485
479
473
472
467
471
484
494
501
509
507
511
506
505
532
529
528
519
508
496
477
483
503
521
541
550
543
545
547
544
552
555
560
554
545
551
559
561
540
523
513
510
511
514
512
512
496
488
488
491
494
487
487
484
470
465
470
467
461
464
473
459
455
467
467
469
461
452
446
458
463
454
458
457
448
440
433
434
431
430
433
453
474
476
469
477
480
473
454
420
419
426
449
464
466
451
452
457
447
439
438
440
451
450
439
448
461
460
458
425
419
448
459
458
460
452
450
448
459
478
485
480
475
471
472
482
481
470
456
444
445
476
489
479
466
454
456
451
434
403
378
379
400
416
446
476
500
520
544
552
578
613
642
653
660
702
755
796
835
885
938
986
989
989
988
988
987
986
986
985
985
985
985
985
985
985
985
986
987
989
977
862
775
672
547
416
307
237
196
199
221
245
261
289
306
306
306
304
319
323
307
321
336
351
354
353
332
326
340
357
390
390
376
367
351
342
347
355
351
345
345
348
342
337
345
354
350
359
369
370
375
383
396
384
363
364
373
372
373
369
371
394
398
385
384
403
427
437
430
409
384
373
390
404
411
400
401
407
417
430
428
420
427
428
401
394
409
423
416
404
415
433
447
444
443
442
456
470
486
496
492
443
404
384
383
410
436
460
465
460
467
473
477
479
476
459
470
474
478
477
491
497
491
484
484
490
485
482
491
473
466
473
459
459
477
497
515
515
516
526
517
521
505
503
523
550
546
530
519
536
530
527
543
565
559
534
531
531
540
546
540
512
475
489
497
511
517
528
533
532
532
539
536
536
536
527
525
520
519
517
516
513
506
502
494
513
521
528
527
519
512
495
489
499
510
509
507
497
488
492
498
495
496
491
500
497
495
485
479
473
470
459
441
426
434
434
439
453
449
459
462
465
466
457
453
462
460
468
476
476
475
460
437
415
421
412
414
406
401
393
408
426
445
449
449
440
432
427
426
437
431
416
420
427
427
427
427
431
434
432
425
404
407
423
436
444
434
438
446
453
453
456
470
474
470
439
418
427
436
444
440
427
422
424
432
434
418
408
398
401
409
434
452
459
453
450
461
467
470
470
469
473
481
472
446
437
435
445
463
472
461
432
435
451
470
481
495
484
454
433
441
464
475
480
475
469
462
465
474
484
491
491
490
487
486
489
506
512
500
462
452
479
488
487
483
489
487
483
479
479
484
482
484
497
484
481
490
488
487
484
488
488
486
476
480
502
501
498
502
502
508
513
498
485
483
493
499
495
489
490
486
486
496
502
497
487
474
476
491
497
495
469
467
481
486
487
488
478
484
499
509
512
495
487
509
544
546
531
503
488
515
519
515
502
493
489
488
480
479
479
490
501
513
514
502
503
493
490
488
494
513
500
482
458
448
461
497
512
515
514
522
516
515
499
495
498
496
505
520
524
523
515
493
490
517
525
538
551
544
539
540
538
550
544
523
522
542
567
553
524
523
558
570
569
562
561
559
558
556
559
568
567
572
579
581
572
556
549
539
547
543
516
503
495
494
509
523
523
526
521
515
502
485
470
473
481
495
484
478
487
500
501
499
497
474
459
470
479
495
507
500
520
528
515
495
487
476
479
472
466
465
461
481
487
486
491
502
505
506
512
506
486
477
456
444
438
454
492
500
490
500
493
488
486
472
479
491
485
478
489
503
515
515
499
489
483
477
478
483
477
487
502
502
500
478
467
474
495
502
506
512
511
498
476
468
462
459
461
465
460
459
485
519
552
591
608
601
614
643
671
686
712
767
828
877
923
985
989
989
989
988
987
987
986
986
985
984
984
984
984
984
984
985
985
987
987
989
971
875
790
690
541
411
328
259
231
240
263
285
303
319
329
312
277
265
278
312
345
379
392
388
386
381
390
405
406
385
369
366
371
388
403
408
409
403
398
394
409
426
427
400
391
403
408
400
405
408
403
395
403
406
423
442
456
457
452
448
425
397
400
430
455
476
464
441
446
457
462
465
456
455
458
466
468
466
458
453
454
458
467
477
494
503
503
497
484
467
453
453
478
491
500
510
499
485
484
493
500
503
515
531
515
498
509
518
523
535
545
546
534
528
526
511
521
535
534
521
503
497
511
525
536
539
547
544
556
561
578
598
593
600
608
588
517
496
517
534
548
567
566
564
575
574
577
575
567
555
543
540
550
564
567
575
587
588
593
577
586
609
601
620
630
628
617
588
577
582
597
596
582
575
569
560
562
580
582
568
551
553
573
603
596
597
600
594
568
552
552
559
558
550
531
522
530
546
545
545
540
540
539
546
553
544
532
527
536
526
521
516
508
508
503
508
504
510
515
506
498
515
521
510
497
475
472
473
496
517
523
518
507
502
508
503
486
479
471
469
467
480
497
516
519
509
505
494
494
496
488
493
487
460
432
439
469
498
484
471
465
471
485
501
507
502
486
470
472
476
489
488
486
487
494
496
498
476
463
466
475
482
483
471
477
468
458
465
506
521
509
500
504
509
507
496
486
492
484
482
490
506
521
524
526
533
540
537
531
525
523
505
496
500
511
527
532
536
539
543
528
499
488
480
483
490
500
510
524
523
510
499
499
518
536
543
540
532
523
525
523
517
520
509
512
530
538
534
541
555
553
539
529
526
529
525
517
529
534
526
511
515
519
524
535
535
536
537
535
543
551
549
542
535
513
506
514
538
541
537
527
526
530
526
521
529
527
531
529
542
541
528
519
527
533
534
532
537
540
544
533
521
516
507
508
523
514
497
513
520
515
529
524
521
520
519
522
519
506
510
521
534
537
539
543
539
541
533
537
534
531
526
503
488
491
500
516
535
540
538
540
527
522
526
526
558
564
543
530
508
502
515
538
569
562
529
526
540
541
542
550
546
542
544
548
552
562
566
580
582
582
596
580
561
567
561
562
575
569
557
555
554
557
547
557
570
561
550
555
550
542
543
531
528
539
539
532
538
537
524
513
513
517
508
506
504
490
483
500
515
502
493
483
486
497
497
504
525
522
501
475
461
452
467
483
496
469
465
484
500
500
497
479
459
454
464
477
479
478
473
474
465
467
481
497
491
473
458
480
494
488
482
493
501
508
498
464
458
460
454
458
480
491
480
473
469
463
469
487
491
490
486
480
490
502
484
469
463
444
439
434
433
448
463
463
458
449
440
438
446
461
470
500
518
534
553
563
583
594
635
677
716
753
792
824
855
893
944
990
989
989
989
989
988
988
986
986
985
985
985
985
985
985
986
987
987
989
967
875
786
690
581
455
341
261
195
177
191
198
216
240
252
267
296
314
314
315
322
343
362
371
365
362
361
360
349
344
350
362
363
340
343
356
353
349
364
370
356
354
354
350
353
359
372
387
394
371
348
337
337
371
385
382
384
384
390
403
387
385
391
402
410
400
384
395
408
424
434
433
413
396
378
391
409
416
419
431
433
442
449
458
433
424
418
400
394
403
411
422
431
443
454
448
427
421
424
424
423
415
406
408
440
462
462
454
456
452
451
442
434
441
464
470
476
486
487
485
487
482
476
457
449
473
445
429
446
458
464
473
491
494
486
481
487
468
451
448
446
463
485
500
506
518
517
517
518
518
527
536
529
512
514
515
512
515
512
505
493
489
495
503
499
490
490
498
507
505
500
496
494
497
506
510
499
499
499
497
493
503
512
518
499
453
439
470
498
515
503
467
459
464
454
444
454
487
479
466
462
455
453
446
449
456
472
477
463
462
463
445
427
406
405
409
420
435
445
450
425
401
401
410
409
403
398
393
387
400
413
405
401
401
402
404
404
422
443
444
440
424
404
389
384
376
386
401
423
409
387
384
372
344
345
344
347
351
363
370
378
393
378
385
385
373
361
330
332
363
388
395
397
396
403
411
416
425
401
370
369
375
386
402
404
395
400
409
391
374
377
385
395
413
419
416
410
408
405
399
400
402
396
412
415
404
415
423
427
425
401
392
393
399
407
409
406
419
429
429
432
433
430
430
431
437
438
434
427
437
431
438
437
451
458
454
444
442
421
390
391
413
445
454
447
424
410
411
413
411
401
396
406
406
436
441
432
426
418
415
413
420
427
444
447
441
426
429
446
436
426
432
443
445
445
446
437
414
410
415
443
460
455
444
442
441
435
434
441
450
442
430
437
437
432
437
434
436
443
449
452
444
440
445
447
448
445
435
418
425
432
448
463
458
447
458
468
454
436
431
435
423
420
418
417
427
438
437
435
441
444
442
441
439
434
433
435
441
440
435
442
453
463
474
479
472
464
468
478
490
498
491
489
490
493
498
493
488
495
489
483
476
472
477
486
492
505
508
494
493
483
473
477
478
481
483
473
454
457
445
444
437
440
441
437
425
419
419
415
413
405
414
418
428
428
416
396
400
403
393
409
422
435
448
447
435
412
399
395
393
420
438
441
444
446
430
432
435
435
424
378
344
370
406
427
437
436
423
409
414
421
447
439
428
432
442
434
431
429
415
413
413
426
427
437
441
419
400
400
407
422
420
425
418
417
416
425
429
436
414
412
418
428
438
435
435
435
421
412
410
392
386
374
379
392
406
437
461
487
510
544
568
594
609
641
683
718
762
804
850
885
927
971
990
990
989
988
988
987
987
986
985
986
986
986
987
987
988
989
975
863
764
685
599
480
338
224
175
144
119
120
156
192
219
231
230
236
248
268
289
291
306
324
333
335
326
313
311
314
304
316
335
346
361
365
364
361
373
378
379
354
332
317
315
323
324
327
336
356
349
332
320
352
387
389
380
372
372
357
342
331
335
350
368
377
381
391
383
387
382
383
379
375
379
388
387
381
383
392
411
420
427
429
433
430
422
417
419
406
401
402
405
409
403
400
409
421
436
437
437
425
435
454
442
459
464
462
462
468
454
441
436
434
422
393
366
385
439
480
500
493
487
511
524
515
500
490
479
471
468
480
483
477
478
462
472
478
469
476
472
470
478
487
492
492
498
526
545
553
543
541
522
522
514
522
522
504
488
491
526
556
568
577
590
582
562
563
564
563
541
524
538
539
524
516
499
498
518
544
577
588
566
536
508
479
463
474
477
473
468
463
472
488
490
469
465
469
464
473
489
490
493
489
471
455
428
423
426
441
465
496
510
505
491
454
413
414
433
445
439
432
433
448
448
451
434
430
432
427
403
399
411
423
414
399
403
397
411
426
418
403
384
392
412
428
416
395
364
325
332
369
403
433
434
430
407
381
368
342
336
335
363
403
427
456
448
414
381
354
350
381
419
428
428
407
388
375
367
397
423
426
414
414
403
392
393
381
390
374
345
352
375
411
430
427
410
409
423
430
460
451
437
423
415
395
382
381
387
380
371
383
414
450
492
497
481
480
483
488
495
485
466
467
457
423
390
380
385
409
433
458
489
485
468
469
465
447
441
455
457
434
412
385
371
407
432
412
414
441
439
412
404
429
456
452
425
433
443
423
419
441
448
445
442
469
505
492
479
446
427
454
493
484
496
495
486
461
464
494
504
485
461
442
451
469
479
460
464
457
432
436
473
490
486
453
450
451
430
426
463
481
489
500
479
447
412
387
409
485
541
582
600
583
556
537
511
486
488
491
475
462
491
499
491
517
530
531
517
520
520
500
479
494
509
516
508
510
506
490
473
467
497
518
499
468
449
460
508
532
522
511
489
451
469
487
483
487
452
423
414
409
400
369
348
396
456
500
516
512
508
490
468
455
439
444
446
456
454
448
420
407
428
445
436
450
472
475
460
412
398
410
438
460
477
477
461
468
445
435
455
450
438
416
399
394
403
462
529
516
491
469
465
476
460
420
371
344
373
416
428
438
457
443
435
441
433
445
466
474
469
467
471
477
468
448
436
426
414
402
390
390
429
465
471
459
440
452
473
489
517
542
565
562
528
514
548
591
611
663
723
762
802
861
908
942
980
990
990
990
989
989
987
987
986
986
986
987
987
988
989
988
936
887
824
760
687
627
564
476
365
275
208
174
162
182
193
224
260
267
282
284
267
273
290
319
344
366
389
374
351
340
323
334
404
447
435
422
427
437
440
444
424
417
425
434
424
417
419
382
353
328
336
357
370
385
396
404
433
430
446
431
418
405
389
398
402
380
376
377
402
423
442
431
423
430
439
421
419
426
449
441
429
416
429
453
473
479
447
443
452
455
455
467
465
480
497
501
465
460
472
485
490
481
485
527
560
456
406
402
406
424
422
448
477
482
484
487
497
496
484
499
519
518
496
498
509
509
503
495
492
499
506
509
503
507
523
516
513
510
507
511
523
528
531
524
526
552
571
568
559
547
537
538
546
529
516
539
562
559
550
552
558
550
550
558
575
578
595
589
560
535
558
575
576
567
576
575
570
578
562
542
533
530
549
580
581
581
570
569
574
553
558
568
579
579
567
544
542
534
534
521
505
503
514
513
505
491
484
463
454
463
479
511
526
516
515
518
508
480
464
471
489
467
448
440
423
400
389
392
409
418
437
451
464
494
483
458
425
399
390
403
417
411
411
424
421
400
405
426
429
420
410
405
402
388
386
421
433
418
417
424
423
425
423
392
359
353
362
381
387
402
433
453
458
460
449
427
419
419
418
436
448
455
443
432
398
373
382
404
414
424
423
416
418
416
417
434
457
468
451
445
462
472
467
430
402
403
413
405
396
409
439
441
416
398
413
455
485
491
479
463
453
456
471
480
483
469
458
454
473
466
465
471
466
465
475
484
484
479
470
469
461
450
450
452
458
474
440
421
421
440
467
491
498
491
507
509
504
499
487
448
436
459
492
527
539
533
522
490
474
488
511
508
494
490
493
486
482
499
501
493
488
507
501
497
507
519
533
530
533
503
494
503
517
530
537
542
517
509
489
469
463
503
551
571
558
536
538
539
549
557
555
552
537
527
522
506
481
456
439
461
492
507
500
499
494
506
509
493
503
498
483
473
480
497
488
483
480
481
464
459
462
456
444
456
478
478
494
469
467
470
464
459
437
438
461
476
474
464
455
432
421
424
412
422
439
451
448
441
468
484
495
499
479
460
449
453
456
460
451
457
469
476
469
460
462
457
434
398
399
415
416
414
425
440
458
452
437
445
456
467
474
482
493
502
504
495
481
455
443
439
417
430
445
462
477
476
465
454
441
434
421
414
430
456
483
500
526
535
540
559
576
578
587
611
638
666
702
731
755
802
838
870
906
954
990
989
989
989
988
988
988
987
986
987
987
988
989
989
954
901
839
766
705
644
557
481
373
278
242
215
216
211
176
168
217
264
293
319
347
355
338
319
326
342
353
358
363
363
375
397
425
417
386
373
389
411
413
398
392
384
391
402
394
367
349
360
386
398
413
418
421
424
435
437
433
440
451
460
441
421
424
436
441
434
437
435
438
436
440
452
458
451
427
423
422
415
408
425
433
445
448
446
446
430
421
437
460
459
470
467
466
467
467
472
490
507
519
521
506
485
485
463
433
446
441
441
428
429
453
484
500
511
528
541
534
506
485
502
503
486
499
505
495
488
497
517
528
512
527
531
535
533
522
509
507
496
499
499
508
510
515
522
534
537
539
526
528
534
540
533
532
531
535
539
561
551
531
528
531
548
557
547
556
562
563
562
567
564
579
587
590
591
596
585
588
590
595
595
586
572
582
582
554
541
536
520
525
523
511
509
512
508
504
498
504
526
517
507
492
476
494
509
499
495
487
484
468
440
447
464
482
489
473
464
478
482
457
436
452
482
503
512
501
459
432
424
423
436
469
478
451
439
429
437
430
420
417
420
400
409
423
438
430
433
421
421
419
425
432
436
438
434
432
429
432
436
440
446
436
439
447
444
443
435
440
446
425
417
417
415
418
432
445
448
452
456
415
370
372
399
433
449
434
437
444
436
414
411
423
434
440
448
448
445
452
462
448
449
453
459
459
468
474
492
486
479
474
444
449
462
479
496
503
507
500
487
438
406
421
434
430
430
442
455
464
471
481
470
463
479
478
470
455
437
432
453
479
484
480
480
481
484
490
490
482
493
469
461
467
463
453
452
479
496
493
489
462
469
478
482
480
488
491
499
512
520
526
519
516
492
480
481
486
478
486
510
519
517
515
515
518
520
511
521
517
515
512
512
525
532
527
522
502
494
505
529
534
536
541
553
549
519
498
497
508
525
535
547
560
551
543
548
552
547
544
538
523
517
504
500
504
515
514
508
514
517
510
489
474
483
476
464
474
486
484
479
487
495
489
490
501
517
536
521
454
422
432
443
462
463
463
466
461
455
448
451
456
453
444
438
445
449
445
454
476
484
470
458
456
440
437
449
458
463
444
446
458
458
477
488
475
443
433
446
452
469
471
455
431
448
459
472
476
484
482
464
450
461
479
482
449
461
465
474
471
465
463
466
463
465
446
439
461
484
488
483
442
390
374
417
450
453
462
474
498
529
544
568
598
612
645
680
714
758
802
850
889
937
990
989
989
989
988
987
987
986
986
986
986
986
985
985
985
986
987
988
989
979
896
796
690
601
499
386
294
233
207
207
232
256
257
267
282
313
328
333
358
377
385
367
353
352
361
364
360
355
353
355
365
373
379
376
370
377
378
389
383
380
369
355
351
361
361
367
362
356
351
370
387
378
368
364
383
393
382
379
379
384
398
418
411
404
402
405
412
417
418
428
435
441
435
424
419
410
404
419
430
448
441
441
410
406
418
421
431
438
412
391
412
433
425
420
428
440
453
469
456
438
421
431
456
475
485
478
461
459
463
444
444
473
508
500
480
476
476
478
477
477
489
494
484
487
497
506
509
509
500
501
497
499
515
525
523
526
501
483
499
503
502
502
512
525
525
522
527
526
522
530
548
560
547
518
513
528
545
545
547
532
520
536
553
536
532
538
553
571
570
560
559
551
537
529
528
520
532
550
556
550
564
565
554
535
512
512
509
509
523
521
484
479
484
484
491
499
510
506
511
522
519
518
514
502
491
489
485
470
455
467
483
485
482
465
458
461
460
468
463
452
455
464
449
450
455
451
434
434
439
432
433
458
440
421
407
403
428
439
431
423
428
436
432
429
420
421
442
464
460
430
420
419
385
364
353
375
413
437
445
436
431
425
429
429
428
425
435
441
432
437
439
435
432
430
433
440
450
447
443
427
431
441
448
452
450
452
474
482
479
456
441
439
460
468
454
447
437
443
453
449
453
456
452
455
468
474
481
473
464
470
488
491
487
474
471
477
460
455
475
488
493
483
467
451
434
448
464
460
457
468
485
476
480
480
463
476
495
497
489
485
473
479
495
506
507
488
464
449
465
502
513
500
500
507
504
485
475
479
476
451
449
480
489
488
495
497
503
520
526
503
501
504
504
505
504
507
523
518
506
506
509
506
496
494
505
490
475
478
492
509
541
543
543
541
523
520
525
519
524
523
508
503
516
526
543
547
531
528
538
542
542
553
554
556
555
555
527
494
496
504
514
515
514
513
514
513
511
518
516
519
511
500
483
482
493
489
478
480
474
461
464
458
460
468
481
478
469
483
473
463
449
451
456
467
470
474
484
480
477
467
474
479
471
448
427
438
465
481
495
502
481
465
475
487
458
435
448
469
487
459
439
436
444
443
460
465
435
413
409
405
421
441
447
438
430
423
440
465
481
488
487
480
460
449
436
446
454
450
444
449
446
444
443
448
443
444
439
429
432
426
419
418
426
436
459
486
508
531
543
556
577
613
643
662
686
731
790
833
884
936
990
990
989
988
988
987
987
986
985
985
984
984
984
983
983
985
986
986
987
989
990
891
787
678
552
432
346
289
231
206
206
228
243
246
273
290
305
310
331
342
346
357
369
359
355
336
323
324
342
355
351
341
347
358
353
347
343
345
360
363
350
345
347
348
357
376
370
360
335
312
305
326
356
381
378
366
353
353
372
381
396
403
400
385
392
400
407
420
420
390
340
323
354
403
423
430
414
404
415
419
419
433
440
437
432
429
426
431
433
451
447
441
430
437
441
432
438
445
451
442
444
445
445
445
462
468
466
456
441
446
456
453
451
458
473
508
508
477
486
493
486
477
462
460
486
514
530
527
495
452
430
464
508
532
512
490
488
503
517
520
536
548
549
552
547
524
513
527
543
562
557
557
548
534
529
532
540
545
537
529
527
535
536
542
540
555
545
526
494
489
507
523
526
528
533
536
529
506
508
525
538
543
544
537
534
517
521
530
532
537
536
531
517
506
503
498
494
451
435
450
473
481
485
484
483
481
501
512
497
467
431
430
432
440
442
436
438
441
446
429
424
418
418
424
437
448
465
456
429
432
447
457
467
454
427
399
424
425
438
444
441
448
451
445
437
435
434
436
435
439
440
438
438
446
442
438
426
423
425
411
406
401
406
415
428
431
438
447
447
431
387
380
408
437
451
449
430
399
383
406
427
457
465
440
424
422
413
416
427
449
447
435
439
453
455
454
450
442
441
443
456
463
471
488
473
460
444
440
445
460
474
475
473
465
469
467
466
470
482
486
482
469
446
450
466
475
472
474
485
499
491
485
482
474
467
471
467
454
452
450
464
476
475
484
510
517
513
518
508
494
491
492
490
480
476
474
476
473
477
478
471
470
478
468
457
464
472
493
495
491
494
502
499
504
508
509
504
507
499
490
493
504
505
488
489
495
520
537
516
512
499
501
509
530
526
523
532
537
549
552
554
543
526
514
522
532
536
541
521
522
542
550
535
508
486
484
482
501
512
523
522
499
471
482
522
531
526
519
513
510
507
508
508
518
507
498
490
490
500
493
484
491
482
469
458
450
454
464
462
465
474
469
448
449
454
463
463
460
457
440
438
452
450
454
467
463
457
458
457
459
458
459
466
472
464
455
448
452
459
445
441
443
440
433
433
444
455
451
447
459
474
475
460
442
430
399
397
410
417
434
428
429
449
458
456
453
447
457
460
467
469
465
469
464
459
458
463
461
453
432
416
413
413
428
425
431
430
431
472
484
495
534
546
542
564
596
623
646
685
740
806
871
910
934
963
990
989
989
988
987
987
986
985
984
984
984
984
984
984
985
986
987
989
990
932
849
762
662
529
396
299
228
199
194
207
232
252
256
281
304
311
322
334
335
328
328
318
314
306
314
322
333
346
340
338
336
322
322
343
358
379
383
371
373
364
352
321
311
313
328
342
353
374
377
381
373
379
386
393
399
411
422
405
400
390
363
372
378
381
388
391
399
399
403
402
410
416
423
428
420
413
418
419
413
415
429
433
433
434
438
432
416
407
417
419
418
426
429
425
419
432
432
435
451
451
450
458
465
479
475
457
435
422
417
414
428
453
468
471
462
456
458
477
483
491
499
495
491
493
496
491
484
483
488
506
517
511
523
523
498
507
513
511
521
543
542
530
525
517
524
555
561
547
548
542
531
541
531
526
526
538
538
524
522
538
550
562
564
545
534
538
532
537
541
541
539
524
524
528
531
531
535
529
522
532
531
534
521
513
504
498
492
491
482
485
487
492
505
519
515
500
476
483
489
477
476
446
443
460
468
469
479
459
444
458
464
470
477
485
482
478
478
486
486
473
456
447
429
404
402
402
405
410
416
424
430
433
454
443
434
435
432
426
420
425
420
410
405
410
417
436
438
432
426
425
426
422
430
421
392
387
408
427
447
457
443
431
420
427
427
430
432
431
435
438
423
411
419
429
442
458
452
454
441
395
384
396
428
443
445
459
458
444
427
429
436
442
453
459
447
445
456
463
461
457
453
451
453
465
467
452
444
454
468
471
461
470
469
476
474
483
485
481
471
464
464
459
461
472
467
461
462
475
490
495
494
496
484
481
467
449
452
471
466
454
448
456
479
485
483
475
461
454
457
464
466
465
468
466
466
469
464
469
487
502
492
475
455
465
472
475
483
490
495
499
503
509
510
496
498
507
499
480
481
501
486
461
441
464
510
538
533
512
512
500
485
483
493
494
492
490
488
489
492
494
498
503
508
516
521
533
533
511
508
510
516
529
529
508
508
529
543
550
551
559
568
574
574
560
543
535
524
512
516
534
530
529
531
525
520
518
528
520
516
510
491
486
470
478
491
478
465
468
480
487
481
482
478
457
449
449
440
440
444
461
459
452
438
433
438
450
451
444
435
440
440
439
447
456
459
461
462
467
466
470
460
458
454
460
460
449
446
448
462
474
475
463
434
424
443
452
446
442
461
453
458
464
452
451
439
445
445
447
441
454
474
484
497
487
477
474
470
469
469
468
458
446
438
445
439
432
436
443
459
453
440
428
430
440
427
413
434
450
456
451
467
491
525
556
572
591
613
644
677
719
766
811
859
912
972
990
989
988
988
987
987
986
986
985
984
984
984
984
985
985
987
987
989
990
908
827
730
622
497
361
276
234
201
202
221
250
270
280
276
283
281
292
323
336
331
317
327
348
362
371
363
364
356
363
359
350
336
318
328
350
355
352
351
350
356
365
361
372
369
366
372
365
358
363
352
336
336
354
363
375
388
398
412
400
374
362
372
379
395
393
399
399
377
371
381
403
412
408
406
415
426
425
427
436
435
432
439
447
464
458
429
424
421
427
447
433
429
443
453
459
471
471
467
447
450
460
458
461
460
438
436
442
440
455
469
478
479
469
472
467
457
456
467
476
478
479
478
492
501
507
510
500
486
473
469
476
494
507
516
499
480
475
485
482
487
505
522
529
523
511
518
535
540
536
521
521
519
521
520
525
538
538
526
525
540
548
538
529
524
515
520
546
564
555
537
535
536
548
543
551
534
526
529
540
543
551
554
557
554
556
560
560
543
518
479
470
484
505
506
493
470
458
461
467
470
479
492
470
461
466
474
473
461
465
468
459
445
460
457
448
459
455
460
454
439
435
443
441
434
446
462
449
443
446
448
442
453
435
414
415
414
410
417
414
421
429
427
421
414
415
433
438
420
401
398
428
448
453
443
426
414
408
439
466
459
449
442
436
440
442
439
439
445
448
461
448
445
445
423
412
407
420
428
419
412
409
416
420
430
431
431
440
441
451
451
444
442
451
454
453
450
446
435
421
420
442
461
451
434
429
449
457
463
460
460
459
458
455
454
457
465
455
452
443
451
466
483
477
470
479
490
483
466
446
454
470
466
462
457
466
480
484
492
488
485
487
485
480
486
488
482
486
468
471
473
473
467
458
467
484
501
505
508
492
490
476
493
496
488
486
480
479
473
478
469
463
473
483
481
468
469
464
475
478
493
503
504
493
473
466
471
484
493
501
504
496
486
479
463
460
467
468
475
471
479
474
478
478
486
493
501
502
508
508
502
496
494
480
472
481
504
533
552
553
520
492
482
487
493
501
510
514
519
524
528
526
514
528
533
540
551
557
549
546
551
559
559
531
519
512
520
529
517
514
509
498
507
510
508
503
494
497
510
510
502
482
463
459
473
477
460
457
439
425
432
449
462
464
461
468
457
461
450
451
457
449
445
442
446
458
464
445
433
428
438
454
467
457
442
441
445
457
468
460
443
441
450
462
453
455
467
471
457
454
458
456
466
468
465
464
473
472
476
462
447
437
435
438
444
455
455
473
459
434
437
454
472
468
455
466
464
455
460
479
473
483
471
444
427
434
436
441
443
457
454
458
471
496
508
523
544
567
593
609
635
674
714
748
787
826
862
906
951
990
989
989
989
988
988
987
986
985
985
985
985
985
985
986
987
988
989
951
854
778
692
595
464
321
224
178
173
193
216
229
249
273
291
296
288
295
298
303
319
338
349
341
338
335
342
354
367
380
381
374
363
357
367
375
378
376
392
400
384
356
343
351
372
380
373
372
375
370
374
371
393
409
403
387
378
378
377
396
409
431
420
399
398
400
386
373
388
410
440
463
457
414
401
402
403
411
422
436
439
437
434
440
444
448
453
447
435
430
440
448
455
458
450
454
477
473
463
453
454
464
482
482
480
477
470
465
461
458
459
454
463
472
485
496
499
513
514
508
508
529
534
532
532
511
466
444
466
498
532
511
493
500
487
468
469
481
503
505
506
515
518
527
531
532
515
504
519
526
541
543
545
544
547
549
556
560
554
540
543
545
548
548
547
540
533
537
540
535
540
543
543
541
543
531
529
542
557
557
549
544
543
542
527
521
512
513
519
528
526
521
519
508
505
504
506
507
505
504
513
526
538
518
488
466
469
473
473
495
505
490
488
472
445
431
443
447
459
468
473
474
461
463
454
461
448
426
428
449
457
460
467
478
466
431
402
381
375
392
415
425
429
422
422
432
419
416
426
434
437
431
439
443
433
430
416
403
405
412
416
419
416
413
416
410
410
414
409
415
418
425
430
427
427
439
441
440
445
436
426
418
428
446
454
454
454
458
458
454
452
456
450
439
431
436
448
455
451
439
432
448
457
459
466
470
450
448
464
467
455
447
452
468
492
493
482
466
455
461
457
481
460
446
446
453
458
453
459
471
476
482
499
484
428
382
389
441
480
490
488
484
482
479
478
474
472
477
475
478
460
445
448
454
458
468
473
477
485
481
482
476
467
467
481
518
506
506
503
502
504
508
508
508
505
494
497
487
488
481
481
481
483
486
480
474
486
498
500
502
500
495
498
502
514
523
532
526
516
521
513
503
487
489
504
519
525
518
529
535
539
526
513
527
531
528
534
531
533
547
548
542
546
541
500
482
482
497
507
515
509
515
526
535
510
476
467
469
477
475
491
499
481
464
455
446
441
447
461
471
458
463
473
472
463
460
451
437
414
414
429
437
439
441
447
451
457
461
461
459
458
440
428
441
460
473
466
453
455
457
456
460
464
463
464
467
464
456
454
445
438
441
452
474
479
472
475
463
453
450
440
448
461
455
446
440
444
456
460
457
453
458
451
458
466
450
432
439
443
444
450
457
468
466
451
439
427
446
467
463
472
483
476
453
449
461
499
540
575
587
587
610
658
705
750
786
819
858
899
936
979
990
989
989
988
988
987
987
986
986
986
986
987
988
989
989
951
881
823
762
710
623
526
416
308
238
212
208
221
246
267
274
284
298
305
301
307
309
311
339
352
351
360
371
360
373
384
371
362
371
387
393
396
395
389
379
373
387
398
399
395
392
383
383
388
386
399
410
417
413
421
415
399
392
393
394
383
393
411
418
403
400
414
405
392
403
420
431
440
440
447
443
445
423
410
412
405
399
400
417
436
453
465
476
474
460
453
448
454
456
458
467
479
486
494
482
478
472
464
478
478
487
482
482
485
493
495
506
522
511
511
518
510
499
489
476
482
482
483
487
480
495
514
506
502
497
498
502
514
509
511
519
513
510
521
523
512
517
521
528
523
523
527
537
559
552
531
529
531
529
541
542
527
537
548
553
554
558
565
579
574
563
568
559
535
509
518
553
551
538
540
545
551
555
554
549
554
552
546
548
540
548
565
571
553
539
540
542
530
506
510
521
530
536
527
506
498
499
493
497
492
494
507
505
498
501
501
503
487
469
468
467
461
459
462
449
436
422
437
456
462
469
474
456
436
428
425
434
438
437
441
444
435
420
417
432
441
438
444
450
446
436
423
423
419
420
421
420
426
407
379
386
405
431
459
456
457
454
451
470
462
434
382
374
374
369
375
401
411
403
396
383
386
394
398
408
411
405
398
406
408
406
412
416
427
434
442
447
458
462
460
457
442
441
446
405
385
406
419
426
424
429
442
449
447
438
435
443
453
441
438
429
426
437
449
457
473
475
484
487
470
463
465
450
447
461
472
476
470
455
454
457
454
460
450
448
458
474
482
492
481
492
489
470
463
461
469
473
482
482
479
480
497
504
505
504
470
453
463
469
459
463
497
486
473
483
489
487
489
493
470
464
487
511
515
519
531
520
506
496
491
498
511
510
510
521
529
528
521
515
519
525
524
525
510
507
510
522
530
546
542
522
506
489
477
474
480
493
489
494
530
532
511
508
513
504
504
521
519
513
511
499
489
493
501
498
492
485
485
480
478
464
452
441
444
442
448
457
459
465
457
458
482
472
461
458
455
454
432
405
425
435
454
459
450
445
446
447
449
456
449
446
457
464
467
464
462
461
458
457
465
472
480
468
465
464
467
457
438
411
406
436
452
451
443
435
442
448
439
443
452
468
469
467
467
446
433
435
440
443
436
442
442
459
463
464
473
493
462
443
454
463
456
463
474
471
464
460
456
462
477
505
526
525
505
519
538
538
524
529
580
632
682
725
766
799
843
888
929
977
990
989
989
988
988
988
987
987
986
986
987
987
988
989
984
900
848
800
743
680
598
519
412
307
244
212
200
207
209
217
248
269
280
306
330
319
300
296
317
343
356
368
377
385
381
379
384
390
386
384
394
398
389
365
359
364
375
384
383
394
387
380
383
380
373
385
403
420
432
431
417
395
395
407
418
429
432
417
418
428
419
403
400
406
415
424
414
389
379
390
418
440
449
447
447
447
450
460
473
463
447
446
451
450
452
454
453
461
473
446
442
457
471
478
478
479
477
481
487
479
465
471
471
470
477
486
475
460
473
471
466
477
492
484
491
513
517
504
501
499
486
494
491
494
500
512
518
523
524
517
511
512
520
529
544
556
567
570
535
511
516
531
540
536
522
520
526
545
552
538
537
549
554
560
556
547
518
518
526
558
547
539
551
562
562
561
560
562
551
540
540
554
564
556
536
531
539
542
531
536
526
520
524
528
529
531
522
522
526
526
530
530
535
522
520
521
520
505
492
485
482
478
475
483
483
484
470
467
462
449
454
459
454
460
452
462
461
445
424
440
439
442
462
442
421
421
432
448
441
430
439
449
454
452
454
440
425
418
420
429
416
414
414
418
428
435
445
447
448
456
453
434
406
405
402
398
405
419
415
428
422
411
400
399
411
420
431
431
434
426
428
419
416
417
412
411
412
402
390
399
408
424
428
418
415
429
432
431
424
420
424
431
444
443
434
418
418
446
479
469
427
408
412
429
441
453
455
451
447
431
432
446
453
460
464
466
478
478
469
458
471
502
484
460
447
444
448
451
434
433
464
490
483
480
486
484
481
479
506
480
429
437
468
474
452
457
468
475
480
470
457
462
477
472
458
472
488
499
504
502
497
488
480
481
485
489
492
492
496
504
508
503
506
514
530
543
543
537
516
488
483
483
479
476
475
465
453
457
467
495
524
507
500
490
491
497
505
509
514
521
529
531
524
536
547
513
482
493
516
513
507
514
526
532
537
535
520
514
524
546
559
560
530
502
491
485
466
462
477
474
469
466
461
471
472
485
489
488
489
499
479
466
465
468
471
472
470
475
480
475
481
474
454
440
449
449
441
433
423
425
437
464
474
467
457
444
434
441
447
448
466
464
446
429
422
427
446
456
459
476
475
464
453
450
443
444
436
422
418
424
438
444
446
457
462
465
470
468
454
445
444
454
459
471
475
465
447
439
448
459
463
470
459
441
431
434
441
454
471
470
455
436
419
409
420
445
459
474
479
484
517
542
552
574
598
618
644
681
712
728
769
814
888
955
990
989
989
989
988
988
987
986
986
986
985
985
986
986
986
987
988
989
964
872
776
682
564
456
356
276
226
191
191
202
211
226
250
271
281
295
316
331
345
349
343
355
367
367
360
348
355
346
341
345
351
358
360
359
360
363
363
364
368
366
372
372
373
379
390
392
375
368
383
403
407
400
383
382
389
389
377
360
347
352
387
410
403
413
422
429
426
427
417
404
390
388
394
403
414
426
429
422
416
418
420
424
438
443
445
447
456
462
454
464
458
438
419
407
414
432
445
455
459
445
440
452
447
439
436
441
447
454
463
465
462
463
461
475
479
486
479
479
478
489
499
505
502
494
494
501
506
514
507
502
500
499
481
453
467
499
492
506
503
494
500
496
492
501
495
494
509
525
521
514
510
525
519
506
517
536
546
544
544
544
549
548
532
523
519
529
557
551
553
568
585
585
589
575
558
538
520
506
499
503
514
516
531
530
517
509
511
494
478
480
486
487
492
501
509
487
467
474
481
485
488
487
493
494
487
484
485
483
470
463
458
474
488
494
478
464
444
418
391
386
415
441
439
429
437
441
442
442
448
447
453
443
431
434
440
424
418
409
411
414
419
424
417
421
431
430
433
440
436
429
427
427
431
426
420
420
405
397
411
424
429
430
433
435
419
416
424
443
451
456
443
430
433
418
401
424
433
450
447
424
410
415
427
446
450
448
448
441
437
445
459
465
464
459
455
440
440
435
430
432
434
440
446
449
443
435
443
452
466
466
478
469
459
462
461
459
464
475
492
468
453
455
463
469
477
465
461
463
449
444
439
445
455
467
481
483
479
489
477
471
469
471
484
471
464
472
476
474
463
462
472
476
463
441
447
463
473
480
469
468
459
462
468
487
489
490
485
486
485
480
478
477
487
489
492
489
476
480
496
503
507
498
493
495
479
467
464
466
464
456
454
471
496
503
511
500
488
485
499
504
496
495
505
508
508
501
494
493
490
499
506
503
520
518
532
514
477
476
505
507
506
510
522
521
523
523
527
541
549
533
514
512
518
514
523
526
521
522
525
537
533
512
496
497
500
497
498
500
499
496
491
490
493
487
478
479
488
492
489
489
495
498
487
474
463
457
458
459
451
436
433
438
440
437
436
430
434
448
463
468
463
451
446
441
429
427
444
445
455
468
461
445
463
466
461
451
457
463
471
475
483
469
469
471
462
453
434
425
431
446
453
448
436
446
435
426
442
466
472
449
420
428
445
450
439
445
445
449
452
446
446
448
444
435
433
438
431
406
397
425
445
433
445
442
448
496
524
542
562
581
589
597
614
652
691
734
775
826
871
924
977
990
989
989
988
988
987
986
986
985
985
985
985
984
985
985
986
987
988
989
940
834
731
641
532
415
319
255
212
201
214
241
260
276
286
289
294
315
348
378
381
370
353
353
325
300
314
346
364
353
349
355
341
323
319
323
329
350
342
341
347
352
355
348
330
327
336
350
364
368
368
375
380
388
390
397
402
394
389
377
382
388
391
407
406
403
401
373
370
368
372
373
381
397
428
436
437
428
423
420
418
416
418
417
416
428
433
428
429
432
425
425
425
418
435
454
457
448
419
404
416
432
447
448
450
472
490
478
447
437
455
471
471
458
460
461
479
487
479
447
421
438
480
486
476
477
474
479
483
480
477
474
475
473
475
484
491
499
492
490
496
499
504
509
503
498
507
511
516
515
523
529
528
522
534
541
546
548
545
537
530
531
542
554
556
568
564
544
528
526
530
527
525
526
532
538
535
536
543
538
532
528
526
530
527
528
527
519
511
504
496
494
501
508
514
510
507
502
509
521
521
507
513
509
498
494
462
426
406
421
448
479
482
481
470
437
432
435
452
458
439
440
449
459
460
478
460
416
380
390
396
406
417
418
422
427
427
419
420
414
411
420
423
420
412
420
426
439
443
448
451
450
451
456
452
438
429
423
414
406
400
411
423
431
428
417
417
421
420
420
420
430
434
442
445
441
425
430
443
434
421
418
422
437
444
448
447
448
453
451
448
458
470
478
481
451
397
367
382
415
456
482
495
501
483
459
446
459
467
457
447
448
455
470
482
474
484
517
507
449
413
418
448
464
462
468
474
478
470
472
484
487
477
473
458
444
427
415
428
445
459
465
470
465
460
470
479
488
492
488
464
460
476
477
485
484
470
463
467
472
470
473
480
492
490
471
462
472
468
475
493
502
501
484
468
466
464
450
443
441
447
464
490
514
513
509
505
514
497
500
502
509
507
477
451
453
461
456
444
439
455
489
486
472
470
476
474
488
506
503
476
454
444
460
502
503
496
507
486
475
486
497
497
491
449
434
452
468
480
482
480
484
492
489
494
495
488
485
487
496
510
521
517
503
495
491
496
504
509
505
497
493
477
464
501
524
522
519
519
519
526
529
527
522
515
518
513
525
532
532
528
526
513
511
532
540
534
529
526
527
521
519
516
519
505
497
489
488
495
501
496
507
502
505
486
467
460
456
473
477
457
449
453
458
463
469
475
469
456
446
448
466
479
478
472
471
469
469
475
477
463
450
459
474
471
477
468
437
420
426
442
456
450
457
475
463
443
425
422
435
456
477
467
459
462
460
468
485
490
470
464
466
456
435
413
397
410
436
453
451
446
441
458
461
455
457
462
463
466
459
456
460
465
468
473
469
468
465
447
427
426
430
435
429
413
421
446
470
487
503
515
531
553
586
593
602
632
676
725
777
823
872
909
957
990
989
989
988
987
986
986
985
985
984
984
984
984
984
985
985
986
987
989
947
817
701
598
489
383
300
236
197
203
219
251
275
300
318
330
339
322
322
339
358
361
354
344
333
327
332
344
352
348
339
340
316
299
305
323
338
347
345
352
364
359
359
359
355
357
359
351
353
353
366
375
373
377
387
386
372
363
359
369
385
397
408
403
401
385
367
382
408
416
414
398
387
397
411
412
405
404
416
415
388
378
393
423
418
417
431
423
422
412
412
419
415
421
435
436
439
434
428
432
432
432
442
447
443
437
447
461
474
470
472
477
463
442
436
437
449
456
468
480
480
465
456
469
463
461
488
502
493
474
464
481
492
500
504
502
498
494
491
508
519
516
514
504
504
502
501
504
516
523
517
509
501
500
505
510
519
534
546
541
531
526
526
505
506
522
536
550
546
548
552
548
545
555
570
559
551
549
542
530
528
542
521
525
530
539
525
504
510
513
507
499
475
486
500
509
489
484
495
497
502
509
519
509
471
425
415
429
445
459
460
460
457
454
460
457
452
458
460
455
448
437
436
442
441
440
435
423
422
434
449
460
448
437
423
422
430
431
417
407
399
404
426
443
445
440
432
412
392
405
417
435
423
433
448
441
430
413
410
396
397
411
416
415
421
435
455
447
444
456
472
489
472
464
459
423
401
399
410
424
431
432
431
433
433
422
414
417
435
447
438
460
479
483
484
476
445
436
426
401
398
412
426
444
446
447
452
456
458
459
456
466
451
425
421
432
444
457
466
471
472
467
470
469
476
482
473
466
463
472
478
481
483
479
472
466
460
466
465
457
457
458
473
483
483
474
468
468
470
472
467
474
477
482
490
479
468
472
464
451
451
452
478
499
508
510
513
505
499
489
481
476
467
450
443
438
445
468
484
477
481
485
483
495
488
489
491
497
489
476
446
443
447
447
455
474
479
477
475
486
481
467
476
480
486
486
470
467
480
480
487
477
466
464
467
470
471
471
479
486
489
488
485
487
475
465
470
469
476
473
482
490
485
480
478
471
471
476
471
468
479
479
486
487
496
487
481
471
461
469
483
486
484
481
485
486
484
483
484
481
483
473
474
472
493
501
503
497
495
499
493
500
502
506
496
482
484
503
518
507
488
467
478
502
523
527
515
496
497
515
528
529
523
524
533
526
524
531
535
533
532
538
559
566
567
566
568
552
527
514
497
496
489
500
502
503
492
487
512
512
505
515
495
471
447
431
433
450
459
472
462
456
456
458
466
480
479
478
478
459
448
434
436
443
458
457
445
448
452
463
476
480
461
433
422
430
453
466
475
485
477
464
457
448
447
439
445
461
472
468
458
447
431
421
440
464
473
474
459
447
449
452
450
448
467
482
467
456
451
451
455
456
458
468
476
472
474
473
466
448
443
456
468
445
426
422
441
446
443
443
432
411
412
429
448
450
469
496
518
529
534
546
572
604
633
660
712
760
801
838
893
945
990
989
989
988
987
987
986
985
985
985
984
985
984
984
985
986
987
988
989
978
888
784
667
552
435
341
272
222
199
210
237
263
274
284
289
300
312
341
346
334
331
335
330
334
339
343
345
356
358
368
371
349
348
354
338
326
335
338
345
356
354
355
359
371
371
351
341
359
367
376
376
384
380
381
384
385
393
397
392
373
370
369
369
369
371
375
377
377
377
386
409
431
450
408
363
359
389
401
409
423
422
424
419
413
419
432
440
442
432
424
416
417
429
437
440
446
453
461
456
461
456
442
428
441
455
456
455
456
456
456
453
457
462
460
460
454
459
468
472
479
478
471
465
473
485
492
496
507
509
498
479
483
499
502
507
508
507
501
501
508
506
509
521
513
499
505
519
523
510
514
515
501
497
509
536
541
547
556
534
525
548
539
518
510
507
516
519
519
537
549
542
544
556
557
543
539
542
533
528
521
520
517
505
511
512
490
491
515
537
528
505
489
483
483
493
500
502
494
496
489
477
469
469
468
465
471
477
474
480
493
493
483
464
450
450
467
483
469
450
437
430
434
435
444
445
451
460
454
451
447
409
392
405
418
415
409
417
425
431
420
418
427
431
439
440
436
434
435
438
428
427
436
439
436
440
433
433
428
426
426
425
423
429
428
430
431
434
439
423
442
457
471
441
429
434
426
417
425
432
421
432
439
440
443
445
448
446
438
434
444
449
444
438
446
460
450
442
431
418
402
418
445
450
444
432
429
420
424
434
448
454
456
460
461
459
457
465
477
490
482
448
437
456
459
460
460
464
471
475
484
493
482
477
478
479
478
481
467
467
460
448
442
445
464
486
494
479
466
471
496
504
508
504
485
477
484
487
475
463
455
459
467
483
493
493
487
472
457
449
461
477
483
464
456
469
495
516
522
529
514
483
477
470
481
488
486
472
458
444
448
470
483
477
483
484
474
453
443
463
477
492
494
492
493
485
493
503
498
490
494
487
483
483
472
467
457
452
468
487
490
505
493
462
450
440
444
470
486
494
492
478
469
458
461
474
479
487
482
476
460
457
472
477
481
484
477
475
479
476
477
482
492
492
481
468
462
467
475
477
472
455
449
469
487
492
492
493
494
486
484
480
489
499
498
484
487
495
498
492
482
485
487
484
492
497
498
472
460
466
487
490
497
500
503
498
494
509
505
498
493
498
509
520
520
527
512
508
508
515
526
531
532
542
551
556
554
559
547
530
487
470
458
449
464
505
554
558
539
531
532
523
518
510
527
530
523
513
512
522
522
524
514
498
485
479
482
487
471
468
479
481
472
467
470
467
468
473
470
465
440
450
473
465
469
464
458
452
461
469
480
487
493
504
492
476
470
466
458
460
444
448
457
460
447
431
428
444
448
441
447
456
465
471
471
463
465
465
461
449
440
446
444
442
437
432
414
421
443
446
449
464
468
463
466
471
474
462
448
447
463
483
485
484
478
466
455
454
454
421
415
427
428
432
441
432
441
457
466
490
521
538
554
575
605
647
682
721
770
797
832
876
938
990
989
989
988
988
987
987
986
985
985
984
984
984
984
985
986
987
988
989
972
877
784
680
573
445
338
282
243
219
186
197
234
270
276
272
276
275
290
311
324
339
353
346
333
333
335
348
355
353
362
371
360
345
360
373
379
346
334
344
368
367
355
360
380
376
369
356
334
332
359
361
362
362
360
366
379
389
411
413
409
397
386
382
385
391
391
401
408
415
410
401
411
406
402
400
406
410
407
406
407
417
429
441
432
419
424
443
457
450
441
434
434
432
434
443
447
448
461
464
462
461
447
446
457
457
462
465
455
454
467
472
471
468
474
484
481
476
466
462
493
486
484
499
500
484
489
498
510
515
499
490
491
506
516
500
482
479
490
494
497
508
509
503
497
499
506
510
518
525
534
532
526
523
534
544
556
539
524
518
533
546
547
552
550
542
524
538
538
532
536
548
557
556
547
539
538
539
553
556
551
536
516
510
506
502
491
498
502
505
510
521
531
532
533
522
476
456
468
490
496
498
493
497
496
489
484
484
471
480
484
474
471
456
447
453
470
489
482
454
439
446
452
450
442
434
432
444
449
451
450
427
417
422
427
429
430
428
439
456
474
462
444
433
441
449
445
450
437
429
420
418
418
433
434
426
422
420
432
435
442
440
409
396
414
425
426
422
418
421
423
424
417
404
396
402
407
416
421
415
406
412
415
429
435
444
443
436
425
436
448
447
426
409
416
431
448
450
446
439
436
442
442
438
449
451
437
439
443
451
451
455
456
465
465
466
480
477
482
483
479
455
446
434
447
469
483
482
463
445
455
461
463
453
454
462
461
450
465
481
484
479
476
478
486
484
499
501
489
485
482
478
483
483
466
474
476
455
444
456
471
480
479
486
496
504
486
460
447
461
481
492
496
502
492
459
423
413
438
458
476
481
471
469
477
480
478
483
485
486
476
481
487
477
476
477
483
501
500
494
494
497
487
488
489
489
495
503
502
496
491
488
478
481
498
484
467
462
473
479
475
480
489
478
475
479
478
472
466
465
466
488
506
512
512
517
510
476
464
443
413
404
436
466
498
501
490
483
456
449
455
469
467
471
479
484
483
477
482
491
499
495
488
481
482
479
466
467
469
461
464
479
487
480
481
493
496
494
493
494
479
466
474
494
498
497
493
504
489
482
492
502
520
527
526
524
503
496
509
516
516
511
521
522
520
518
534
549
551
544
550
555
555
554
546
528
506
505
517
538
544
548
546
545
542
521
500
496
481
480
489
490
489
496
501
491
483
490
501
473
458
459
447
454
471
475
459
452
446
457
471
483
488
479
465
462
463
464
455
452
461
474
469
465
454
444
440
449
457
460
472
464
454
441
442
444
447
440
447
465
476
473
463
448
452
445
445
455
461
463
455
455
465
479
478
475
454
432
441
463
464
468
469
482
487
491
477
455
455
461
460
460
449
434
429
436
447
450
453
460
448
439
420
412
428
445
462
458
462
482
514
553
580
592
622
641
686
704
707
732
780
834
888
944
990
989
989
988
988
987
987
986
986
985
985
985
985
986
986
987
988
989
960
851
752
661
570
444
327
252
207
172
151
174
208
243
269
293
310
313
307
300
