449
466
464
465
487
519
539
521
501
504
469
463
471
491
532
580
606
590
588
535
453
426
430
408
412
442
470
487
502
517
518
527
543
538
510
483
499
528
543
567
585
579
567
590
619
596
570
526
476
463
454
458
468
497
540
566
552
519
480
446
441
463
494
527
534
533
549
528
538
547
505
450
417
394
393
384
383
423
497
547
559
555
561
572
545
499
467
448
466
488
503
459
409
382
381
398
442
452
453
447
473
497
503
497
501
491
487
466
480
504
489
481
490
492
473
469
473
464
442
408
388
390
396
407
423
447
469
455
468
464
460
478
503
523
545
554
545
518
447
387
342
362
421
470
487
501
499
497
487
490
518
522
505
516
511
497
517
531
548
602
644
629
587
585
599
636
666
685
709
761
850
884
892
942
976
990
990
989
989
988
988
988
987
986
986
987
989
989
986
960
918
841
781
730
633
498
351
247
208
211
193
202
234
302
389
444
455
459
447
400
361
351
371
388
400
396
388
411
418
423
418
406
396
390
364
380
403
422
423
403
404
395
389
396
398
408
396
368
359
370
387
411
422
415
446
482
469
441
422
417
428
423
390
374
376
354
352
370
377
410
419
416
398
353
334
373
420
438
450
430
420
405
418
462
494
473
439
423
428
412
404
417
423
435
476
507
508
506
509
503
501
513
508
500
475
457
476
467
467
476
495
500
523
564
575
555
546
552
561
562
554
546
542
559
581
572
578
599
585
539
488
455
437
438
435
448
451
443
424
404
397
433
461
483
513
537
541
558
574
563
542
542
542
536
530
535
545
537
528
531
515
494
498
526
516
511
558
575
566
544
499
459
437
436
436
462
496
517
539
550
530
530
511
502
492
513
553
568
587
613
583
555
536
517
486
446
417
421
444
462
467
469
445
441
447
449
457
466
483
523
562
574
569
565
533
514
474
402
368
365
366
377
357
332
350
390
414
414
429
452
450
434
430
417
415
428
419
427
462
471
472
457
431
411
399
394
375
376
378
380
378
381
389
402
417
423
416
399
376
392
402
404
406
420
429
442
445
440
444
456
449
442
424
403
395
396
379
352
330
314
309
293
299
338
352
368
401
421
420
441
456
485
490
450
429
445
444
434
421
433
470
482
478
481
492
496
475
452
438
407
373
356
333
305
301
341
369
388
403
409
407
406
439
454
466
463
480
487
472
452
443
436
437
447
456
460
448
443
457
470
464
436
415
387
381
384
398
421
455
477
488
530
541
528
523
519
500
476
478
473
459
450
456
464
472
481
487
498
517
531
518
496
496
508
488
487
490
498
511
507
503
504
493
454
429
420
441
487
480
472
478
496
510
512
496
504
517
518
522
543
526
510
541
573
570
546
535
519
517
517
516
526
515
494
486
488
490
489
484
477
487
502
509
497
480
464
465
478
491
472
469
488
526
538
519
494
492
519
538
535
548
555
564
533
487
465
459
456
460
468
490
501
485
454
422
398
376
364
386
432
493
516
530
552
559
563
556
537
515
500
502
496
489
511
518
509
487
460
453
461
466
460
459
452
448
454
434
408
396
423
452
471
486
493
494
468
446
437
440
445
456
458
463
481
494
502
496
465
441
438
448
465
462
458
460
460
466
487
504
504
492
486
484
501
519
516
499
466
436
435
449
454
458
451
436
433
411
370
372
398
422
474
512
553
600
656
714
754
761
766
770
797
834
881
916
932
957
949
968
982
990
990
989
989
988
988
988
989
989
990
917
845
788
755
729
692
653
611
546
442
342
291
272
266
286
305
323
338
354
364
377
382
380
382
394
397
396
408
426
435
433
438
445
436
431
424
419
418
438
431
419
424
425
436
445
439
452
473
477
489
474
467
471
464
441
428
415
414
422
427
460
479
501
523
514
497
469
424
402
395
396
403
415
436
462
472
465
446
432
438
448
468
491
481
455
444
450
464
483
494
496
496
506
512
505
506
512
518
508
493
492
474
468
471
475
485
490
486
496
503
506
507
518
520
515
512
505
515
532
531
510
496
497
506
516
527
539
533
512
513
516
531
536
532
526
527
531
531
535
542
553
545
551
566
559
564
563
558
556
547
538
537
531
526
547
543
533
545
556
549
550
557
569
567
571
572
568
570
585
599
600
594
576
558
549
541
535
528
536
554
574
577
569
576
564
557
552
548
554
561
566
560
556
552
546
550
557
563
568
580
576
561
548
522
508
515
520
520
511
514
527
538
538
533
525
499
483
487
470
447
440
442
443
453
457
461
462
450
446
455
463
469
469
470
465
454
435
425
421
428
445
453
459
458
456
457
458
464
475
490
495
484
464
455
424
409
408
417
431
423
417
411
400
402
412
411
412
397
397
414
420
432
424
421
423
423
427
430
432
433
443
450
456
458
460
464
460
451
443
431
420
431
436
441
433
424
419
420
430
431
427
418
416
424
444
458
465
466
469
474
472
471
462
456
453
450
455
465
470
469
469
458
450
445
432
422
423
426
447
479
500
513
544
556
540
532
526
509
493
480
473
472
473
475
482
482
470
455
451
464
476
479
486
492
494
506
509
507
496
481
477
475
463
467
470
471
483
492
489
484
490
491
479
467
464
465
470
476
486
493
499
505
521
532
534
530
524
522
519
494
486
499
513
513
512
510
498
497
501
507
511
506
508
512
525
517
522
539
541
535
540
551
562
551
544
550
566
563
537
530
529
522
515
504
494
492
495
501
530
526
505
500
493
494
498
503
517
526
539
545
540
534
511
459
435
444
461
462
423
380
350
329
331
343
382
439
477
485
490
488
483
488
498
501
516
504
486
482
487
484
477
482
486
489
489
487
477
467
473
474
477
477
482
467
467
470
464
468
473
472
478
483
470
460
462
456
459
466
474
473
473
471
457
449
447
454
461
468
474
483
498
493
476
451
426
409
416
439
439
450
476
483
483
491
495
484
467
465
456
457
469
496
506
506
532
560
580
595
592
608
635
664
702
737
786
811
829
891
961
990
990
990
990
989
989
989
989
988
988
988
988
989
989
990
941
881
819
752
695
630
567
502
417
337
284
255
248
263
288
326
338
338
344
355
362
375
383
385
385
386
389
405
419
420
425
437
423
401
410
430
432
426
414
419
420
408
395
396
415
420
412
404
399
391
390
379
382
400
417
416
409
415
419
413
413
429
435
436
439
435
448
468
467
464
446
434
437
442
474
507
522
533
518
472
420
407
420
434
433
438
444
446
465
493
500
495
488
495
496
469
448
454
456
453
460
464
471
485
494
487
499
506
504
498
488
489
488
468
455
473
495
515
523
522
514
514
520
504
501
514
521
514
511
514
516
516
520
541
565
563
553
550
558
566
563
539
527
535
528
530
557
552
543
535
536
530
525
531
549
554
545
553
572
590
573
546
531
518
507
499
511
520
535
569
593
615
620
609
606
619
625
613
618
617
597
595
584
577
549
541
534
510
494
497
516
527
537
537
535
545
541
542
543
539
533
533
531
527
520
515
522
529
528
520
510
506
496
500
492
484
485
481
465
462
470
498
522
543
553
557
572
587
584
560
542
521
484
431
406
413
430
444
434
455
480
487
470
455
435
406
387
390
401
409
400
411
423
436
438
444
450
452
453
456
454
459
468
474
474
477
489
491
503
499
499
500
503
502
536
592
570
528
509
484
468
436
385
369
380
383
395
415
442
477
494
498
491
477
482
491
477
494
520
527
519
502
489
504
494
484
489
503
507
493
484
484
500
520
520
515
498
475
451
444
457
480
505
515
520
520
519
525
527
518
519
532
540
538
541
539
526
513
519
519
535
563
574
571
543
498
477
488
486
490
494
503
526
526
529
528
496
475
469
474
476
486
497
512
521
533
544
549
533
516
514
518
513
511
533
552
531
510
493
472
466
490
536
567
592
620
624
615
594
578
574
574
530
523
540
564
562
572
579
579
581
602
565
506
475
507
526
498
489
498
530
558
560
532
512
503
529
562
561
556
561
579
590
594
597
597
589
587
581
579
575
573
564
553
549
547
541
536
534
535
540
542
538
530
517
513
518
514
514
510
504
512
515
503
512
530
540
544
549
536
527
508
488
481
476
483
487
478
462
460
460
466
468
478
504
522
521
515
516
515
514
514
514
510
498
486
481
478
469
458
455
458
464
481
494
499
514
535
543
538
526
519
527
538
540
552
548
532
522
501
472
463
479
513
531
526
517
522
531
519
509
497
481
473
470
463
463
457
448
442
440
444
478
517
532
521
527
565
602
640
665
689
718
751
774
784
807
825
861
913
951
990
989
988
987
987
987
986
986
986
986
986
986
988
988
988
989
990
924
849
772
697
640
551
444
350
299
281
281
293
315
330
344
358
371
382
385
392
402
410
417
425
423
421
419
409
396
387
396
409
417
431
434
440
445
443
436
414
391
385
388
399
396
410
423
424
416
403
392
396
412
415
403
403
408
415
425
436
448
453
450
457
463
462
462
470
476
470
476
467
458
464
481
489
460
450
447
438
440
453
449
445
447
448
462
465
467
490
494
485
485
483
493
508
519
504
467
457
458
458
454
462
470
478
490
489
493
496
499
514
515
497
500
515
517
529
531
527
510
484
467
463
475
501
514
504
501
496
488
495
499
496
507
523
536
545
540
544
559
587
583
536
506
504
512
505
495
509
525
546
556
564
559
550
539
551
543
524
531
533
531
535
539
544
557
567
557
552
556
551
558
584
607
628
632
598
557
536
530
540
537
550
565
563
557
541
528
534
533
519
517
529
529
521
517
533
540
550
558
534
495
479
487
490
494
496
498
502
507
493
487
497
503
495
501
510
508
495
471
465
467
460
463
475
490
488
482
474
462
433
402
409
417
416
399
397
406
416
419
422
440
445
433
437
434
419
407
415
434
443
438
431
416
403
401
414
433
438
424
426
433
434
448
453
457
452
441
441
453
453
451
442
437
415
406
417
416
412
417
415
405
403
410
424
428
434
442
444
440
440
446
459
467
479
491
494
492
494
492
499
491
460
456
465
448
419
423
437
450
463
455
448
453
462
467
467
473
466
464
475
473
471
466
471
464
447
451
462
451
442
434
429
440
458
464
465
461
459
475
471
462
469
491
498
471
447
470
481
472
466
468
470
475
487
493
483
465
448
438
432
430
440
456
459
469
481
492
512
540
562
552
553
564
569
565
554
546
526
490
480
480
470
478
494
499
515
524
528
536
543
532
506
471
444
445
436
423
412
407
416
427
444
454
480
502
514
503
500
492
476
464
448
444
443
465
485
506
517
516
491
464
459
476
500
534
545
535
533
523
521
539
534
520
495
490
506
514
504
501
482
466
473
482
491
493
484
485
479
473
477
483
485
479
481
523
546
529
509
475
460
466
479
501
505
510
519
530
534
552
527
503
496
496
463
450
449
461
453
437
453
460
442
404
372
367
380
394
420
440
441
437
441
446
435
443
446
436
470
528
570
591
597
585
567
544
529
489
413
357
316
296
307
333
364
419
437
437
433
429
443
463
479
484
498
505
503
508
506
498
488
476
460
455
449
459
457
428
416
428
444
449
462
498
530
523
508
507
509
508
520
536
571
621
684
750
787
804
820
878
941
989
989
988
987
988
988
988
987
912
91
494
496
503
509
518
496
481
484
486
487
492
497
502
509
515
524
529
526
523
497
494
493
490
502
512
510494
496
503
509
518
496
481
484
486
487
492
497
502
509
515
524
529
526
523
497
494
493
490
502
512
510
508
510
516
510
506
509
509
507
496
490
498
502
496
481
480
494
502
494
505
508
513
525
527
533
530
532
550
554
526
513
513
514
519
504
503
503
506
507
511
523
523
519
522
539
552
560
562
558
553
532
529
544
549
547
526
527
550
580
590
566
529
518
524
538
542
553
564
569
567
559
554
558
550
538
526
511
527
549
511
492
507
508
499
511
519
522
523
515
503
488
479
477
482
482
490
486
488
495
484
476
477
469
469
480
487
490
478
469
477
499
526
529
513
499
508
505
500
493
492
479
484
489
487
483
479
468
472
490
505
498
494
501
503
483
477
483
480
464
458
474
476
488
489
490
482
472
469
471
475
477
472
481
497
490
502
522
508
482
480
496
492
483
474
468
456
447
450
449
441
448
460
470
477
481
501
517
538
559
574
585
602
614
635
662
686
739
784
821
866
900
934
972
990
990
989
989
988
988
987
987
987
987
987
987
987
989
990
978
892
805
759
731
664
540
429
334
286
259
251
269
293
314
330
352
355
350
357
376
401
404
380
383
389
385
390
390
382
370
365
363
376
400
433
451
433
422
413
417
425
414
405
402
404
402
407
410
421
420
417
407
404
400
403
411
419
423
436
436
436
423
412
416
431
430
436
436
440
442
442
445
453
464
469
468
446
441
448
454
449
448
451
454
456
449
451
454
454
450
450
463
477
473
464
463
468
471
471
469
468
467
470
476
480
489
493
505
480
481
488
486
486
497
506
521
517
516
496
491
487
476
468
488
497
479
499
518
512
510
524
533
528
515
506
504
504
529
519
509
512
514
514
508
508
513
519
539
550
540
551
543
545
547
542
539
541
551
555
540
530
529
543
548
545
550
553
552
555
554
547
540
554
564
562
566
579
572
562
551
552
556
551
552
558
554
549
557
558
551
544
547
549
549
544
559
562
512
502
510
528
544
523
498
489
494
504
507
492
486
491
493
486
477
481
483
484
480
485
489
485
489
500
490
471
459
453
448
449
449
462
481
490
462
429
420
415
418
423
440
435
444
459
471
472
443
432
435
448
459
441
430
444
435
426
431
439
449
449
439
423
419
428
440
428
417
423
422
406
400
395
390
403
430
449
453
451
445
431
432
445
440
437
434
433
442
461
452
457
478
441
425
430
436
445
439
436
433
433
433
436
433
450
470
466
468
471
462
449
449
460
471
465
464
462
447
436
425
438
462
476
472
477
490
485
490
480
466
470
456
450
469
468
466
477
485
491
493
488
473
466
460
456
461
457
473
483
471
483
497
482
459
453
466
476
462
461
459
462
485
501
515
520
498
500
524
533
507
479
462
474
477
476
462
466
486
492
496
493
490
495
494
486
475
458
467
483
494
491
479
472
474
470
477
487
470
468
464
476
490
500
504
494
488
486
498
499
489
484
481
477
482
494
497
506
490
479
478
482
484
494
505
506
513
508
516
516
507
496
500
511
512
509
505
513
506
499
499
504
510
512
503
519
541
519
516
508
495
513
512
506
509
518
516
521
522
522
530
541
557
547
538
534
511
495
508
520
522
518
522
524
518
511
509
515
498
494
498
498
491
483
489
490
487
484
484
484
491
501
481
471
463
463
471
472
466
457
471
470
458
463
494
502
476
465
474
467
454
464
463
461
457
455
457
464
464
480
485
485
481
471
458
453
443
441
456
463
466
471
486
485
474
479
485
466
438
438
442
444
445
453
460
461
475
477
473
452
438
439
448
464
462
458
455
460
451
452
455
451
453
461
450
438
430
428
439
437
441
463
484
498
510
536
540
554
568
585
616
626
647
684
726
766
776
823
883
929
963
990
990
989
989
989
988
988
987
987
987
987
987
988
989
990
966
891
815
739
662
592
504
400
325
278
252
250
248
260
268
277
287
301
316
331
343
346
356
363
379
394
400
422
414
394
390
383
370
373
384
379
370
383
373
366
380
388
401
387
374
389
394
393
389
380
372
366
375
403
432
454
446
436
428
413
395
410
430
423
430
427
421
420
414
421
426
420
421
424
425
426
430
445
468
479
451
438
434
431
438
454
470
470
461
461
460
449
439
440
444
451
459
467
475
474
468
453
445
451
469
474
475
475
475
476
478
475
465
462
465
464
462
471
479
487
502
515
517
503
486
485
493
498
497
496
499
503
498
499
504
508
508
510
512
514
519
547
527
526
513
502
495
502
521
533
542
542
542
546
544
542
551
549
543
563
562
554
551
546
527
521
533
554
563
565
556
545
550
557
562
573
565
554
552
553
550
561
572
570
555
545
541
535
531
530
536
542
533
529
530
531
537
553
543
520
506
506
514
527
504
487
483
481
490
495
499
494
500
496
476
478
479
477
472
463
444
446
448
454
460
476
473
466
454
440
441
435
434
433
431
425
423
423
418
410
404
416
427
443
462
459
444
434
426
426
436
434
426
415
425
422
408
404
398
405
411
401
381
381
397
411
415
416
421
395
384
401
416
428
430
418
418
427
425
422
423
432
433
425
416
429
434
435
434
423
430
419
413
411
419
424
426
426
428
431
423
425
434
441
438
434
437
434
434
438
445
440
449
456
450
445
442
442
440
440
441
471
471
468
452
453
463
448
443
448
469
463
452
450
449
464
449
429
432
452
476
475
460
463
465
459
468
472
469
468
482
482
478
475
478
480
474
467
465
472
476
486
489
483
485
482
455
452
456
464
475
474
480
478
469
461
451
448
461
460
458
474
481
480
488
499
494
484
480
498
502
474
476
470
462
465
474
480
496
504
515
523
500
495
492
487
484
488
491
491
494
485
482
491
507
518
502
481
480
495
490
488
482
486
486
492
500
507
511
512
518
515
515
517
507
506
515
527
539
526
506
490
493
495
497
506
533
541
538
537
541
520
516
519
511
501
498
503
498
504
510
503
506
501
504
496
490
494
497
469
431
415
403
405
401
421
461
490
486
474
474
480
476
489
486
481
467
457
446
439
454
453
449
455
456
453
455
457
457
458
460
465
468
466
462
462
466
450
458
446
448
453
462
462
450
463
451
426
431
432
424
427
427
438
455
481
475
450
447
454
458
456
456
458
458
455
455
457
460
465
472
469
450
446
445
447
439
438
445
448
457
469
484
492
499
520
533
546
588
590
579
606
647
683
715
746
767
805
853
893
937
978
990
990
989
988
988
987
987
987
987
987
988
988
989
990
942
866
791
729
672
595
506
373
285
217
197
204
233
260
277
291
304
314
323
327
330
341
360
381
389
386
380
375
379
383
385
391
400
405
405
404
399
401
404
393
375
372
368
375
391
386
380
378
376
368
366
377
379
362
382
404
424
415
424
425
389
393
402
409
416
422
424
433
439
428
427
437
430
432
430
429
427
420
424
419
417
421
433
443
443
449
460
478
475
463
458
456
452
443
452
460
452
437
435
435
444
468
480
476
466
463
469
470
469
468
470
474
482
471
463
460
460
469
482
475
466
459
473
487
489
468
460
477
497
505
502
510
516
513
515
517
517
518
520
511
506
508
510
510
508
508
516
516
517
524
518
510
526
553
559
556
528
521
532
516
514
522
529
538
538
538
548
554
552
546
538
547
552
548
562
553
548
548
548
551
550
552
546
544
541
535
534
537
540
550
548
543
546
543
537
534
539
522
520
518
508
508
503
499
492
497
498
502
496
475
464
458
465
469
472
464
461
455
460
482
470
443
426
439
449
446
435
462
477
475
461
445
436
426
428
429
428
422
425
438
425
414
415
421
406
404
411
415
419
423
410
402
399
405
424
414
410
409
409
412
408
403
405
411
408
436
434
427
418
401
394
396
400
398
400
398
394
411
412
428
421
391
390
399
398
409
423
432
436
449
444
440
434
430
430
419
407
406
401
403
421
421
430
449
449
439
402
410
423
431
445
474
479
458
451
451
453
455
448
443
439
439
443
446
443
438
443
458
457
457
465
468
465
461
468
460
452
447
447
446
447
450
453
470
471
470
471
455
442
451
463
468
472
466
456
439
448
472
469
464
467
469
467
479
477
483
494
488
490
498
487
480
472
469
473
479
485
464
456
463
472
470
471
479
469
469
471
464
470
468
463
460
455
454
465
467
472
482
495
496
492
481
471
474
489
493
464
460
474
473
472
481
488
491
485
477
478
488
504
482
480
487
481
484
488
482
484
478
470
471
474
475
481
474
461
459
463
465
472
481
505
519
524
510
489
485
487
496
507
509
510
507
510
508
509
502
495
489
490
503
509
509
512
517
528
522
521
522
525
527
532
540
530
519
525
514
504
499
496
486
474
472
475
488
502
497
494
487
483
473
469
481
486
473
464
455
448
450
465
468
462
462
456
456
459
453
423
428
438
446
458
472
499
502
494
473
466
465
457
456
463
448
440
447
445
440
450
447
431
435
456
452
459
470
472
465
462
462
455
448
458
459
444
438
446
459
452
455
456
454
447
439
435
430
430
444
451
458
466
469
466
462
466
468
466
462
455
434
424
435
448
455
456
453
447
451
439
449
475
499
516
533
554
570
585
607
629
649
672
703
743
781
818
863
914
952
976
990
990
989
989
988
987
987
987
987
987
987
988
988
989
976
895
815
749
684
605
509
396
302
248
217
215
229
253
286
313
314
306
316
333
346
353
355
361
371
391
388
375
379
383
388
387
383
397
399
393
389
390
387
404
399
371
368
390
400
386
385
385
390
419
409
397
391
383
386
398
396
400
409
411
401
405
410
411
413
418
427
436
432
426
427
427
433
442
447
439
429
429
431
430
436
443
455
439
427
428
430
442
465
456
440
446
444
435
443
461
465
465
467
458
454
453
462
467
480
489
470
450
447
464
480
470
468
470
479
477
466
464
463
478
491
492
488
491
491
488
490
498
495
520
537
515
515
505
484
496
515
526
509
507
510
499
507
511
506
509
521
540
565
572
563
544
529
521
525
523
522
530
532
537
538
536
537
554
568
572
570
559
550
551
553
563
560
562
567
553
551
555
548
535
538
540
550
552
549
545
538
531
538
534
533
537
537
536
539
531
531
532
531
540
558
550
540
523
507
502
496
498
508
515
513
504
491
491
496
501
502
495
489
482
473
470
470
460
446
448
453
448
455
484
476
459
443
449
453
453
449
448
435
435
438
430
442
437
431
420
414
413
419
420
423
439
427
413
413
414
423
428
427
430
437
432
431
429
423
420
419
426
422
411
414
425
407
407
422
430
432
437
441
449
453
439
440
444
432
418
420
416
412
414
414
420
422
432
449
461
459
461
458
453
449
457
462
460
474
468
436
433
438
440
439
452
456
456
460
469
467
469
467
469
457
450
463
466
471
491
495
450
438
446
452
457
451
455
464
472
475
473
476
469
463
452
460
466
475
483
493
510
514
519
514
524
510
478
472
479
490
474
487
487
466
449
460
464
472
479
473
474
478
489
499
500
496
490
489
489
482
476
475
486
490
489
497
490
492
496
496
494
492
488
496
511
507
489
484
472
475
480
488
492
489
481
491
497
502
502
498
493
477
473
476
487
488
491
500
502
505
518
519
511
499
485
485
502
533
506
486
482
490
504
505
509
502
488
484
484
490
498
502
516
515
519
525
530
527
502
491
493
493
503
512
493
472
477
495
498
498
512
517
516
532
543
549
546
544
547
547
544
543
557
556
551
537
530
535
531
523
528
539
547
549
540
528
514
523
526
521
514
514
519
526
529
530
531
519
505
501
507
509
508
506
492
496
495
483
479
478
479
485
486
484
474
465
465
465
464
471
482
495
499
497
485
482
484
486
504
491
449
430
444
465
488
489
491
501
521
519
487
467
463
463
451
465
459
455
474
486
471
458
456
446
460
476
487
499
505
497
486
479
490
490
481
477
492
491
472
471
479
488
479
471
477
477
479
477
481
480
476
478
479
472
457
446
446
458
467
471
470
472
481
502
540
572
594
606
617
631
654
675
716
756
797
837
873
918
947
972
990
989
989
988
987
987
987
987
987
987
987
987
988
989
989
977
895
815
749
668
568
459
372
314
277
264
254
261
288
313
331
354
376
371
362
378
393
403
415
416
410
412
428
430
418
405
407
398
390
394
391
389
387
390
388
398
400
406
426
422
414
411
408
422
432
427
420
423
418
414
419
417
410
402
412
419
413
417
422
429
441
433
426
428
425
418
422
437
460
476
467
463
464
465
472
485
455
432
446
458
455
454
462
471
472
464
458
456
452
452
456
464
473
480
491
487
476
494
513
519
511
497
485
497
494
479
480
487
482
497
500
498
500
506
504
512
504
509
498
488
474
475
484
494
505
521
530
513
505
506
513
527
540
532
525
518
516
516
520
533
541
537
527
537
559
572
576
576
547
523
519
530
537
535
540
553
558
559
558
550
540
541
557
567
574
576
581
580
578
579
577
575
572
558
560
564
564
570
558
547
546
551
558
552
544
546
567
559
540
532
539
558
553
523
528
542
547
528
510
500
505
515
517
524
524
515
504
494
494
499
504
504
498
489
479
466
451
460
474
465
452
472
475
467
458
475
474
451
446
448
446
450
444
432
432
455
457
438
441
438
435
440
449
458
468
475
483
467
450
439
422
408
415
419
427
432
440
446
452
444
437
451
457
427
417
422
442
449
440
431
425
431
432
428
436
442
438
438
434
426
432
446
449
454
444
444
452
461
454
450
448
450
460
463
447
438
446
455
462
463
464
454
450
451
449
448
450
448
450
458
456
449
458
458
468
479
490
490
475
464
473
484
512
501
471
465
470
464
464
467
476
472
467
490
482
481
498
514
513
475
475
483
489
494
492
493
498
504
487
483
487
493
491
489
489
487
488
488
484
474
473
486
496
503
500
492
483
483
481
483
488
495
494
480
481
489
495
492
500
503
494
487
483
491
486
485
493
492
489
499
486
472
475
476
484
485
496
508
505
498
492
478
472
492
493
466
460
464
493
521
515
482
476
467
476
472
474
473
479
483
495
510
519
522
518
509
519
500
482
481
483
489
501
513
504
495
483
484
490
493
505
517
521
517
519
528
520
510
505
512
522
499
500
500
499
495
507
511
507
510
517
521
522
523
506
501
519
550
527
520
533
545
553
543
536
532
520
523
536
534
533
538
541
542
541
557
568
536
526
518
502
512
518
522
525
506
500
505
493
485
493
495
491
491
497
502
463
434
439
457
468
486
481
469
469
472
473
484
490
478
472
476
474
481
485
463
459
455
461
472
469
471
477
470
465
464
460
461
473
474
462
447
450
474
462
461
480
471
464
454
452
458
460
459
472
468
463
461
459
464
459
467
472
484
476
462
457
463
469
476
481
488
479
465
463
476
488
464
467
472
457
452
447
449
450
454
457
456
461
489
528
544
563
573
599
618
630
655
696
735
770
806
848
902
949
974
986
990
989
989
989
988
987
987
987
987
987
987
988
989
990
990
941
878
784
704
634
528
419
337
286
254
249
250
270
296
311
318
334
337
332
338
351
369
382
395
395
400
394
391
392
392
390
396
406
406
394
376
394
405
413
408
402
398
384
391
393
389
392
402
397
391
389
398
403
412
421
421
416
408
409
418
417
429
439
425
416
418
418
411
408
418
431
437
439
425
423
414
418
423
436
445
453
459
467
457
430
425
427
432
432
444
437
442
467
457
435
439
445
462
482
489
488
479
464
457
468
457
447
463
470
473
479
480
489
491
501
505
503
493
477
477
478
475
452
452
470
503
527
508
496
495
503
507
505
501
500
522
513
517
525
522
520
523
515
509
506
509
517
523
524
526
524
517
523
530
545
548
539
532
538
544
539
534
530
530
532
533
529
546
559
566
568
562
558
557
556
561
553
547
558
539
519
534
545
548
551
548
561
556
550
546
541
533
542
553
546
539
544
551
534
535
520
507
520
515
495
492
499
488
477
488
507
457
445
472
497
499
484
462
462
473
476
479
468
458
459
463
477
482
473
453
428
412
417
418
431
445
442
436
429
436
439
438
426
426
432
438
438
425
421
426
426
405
408
421
419
435
438
435
445
454
432
422
422
412
413
392
389
410
440
433
420
422
428
439
441
424
421
426
429
438
439
448
439
428
420
417
418
420
418
426
427
422
429
438
463
466
464
464
431
420
422
419
408
406
417
425
433
446
469
469
467
469
471
465
460
454
462
472
465
463
460
467
442
443
450
447
447
456
471
470
460
447
448
458
452
443
442
447
455
468
466
461
477
471
469
459
463
474
457
471
467
449
454
454
453
464
448
444
458
469
473
482
486
479
460
465
479
481
480
490
482
472
481
483
476
471
470
469
469
463
460
459
458
455
460
469
481
484
474
478
488
490
478
467
473
489
504
526
512
487
488
487
467
461
471
456
454
455
478
492
505
488
483
508
522
525
511
512
518
484
476
472
475
477
484
488
484
468
465
472
479
484
496
509
504
491
482
481
486
489
500
506
501
499
499
502
515
538
526
511
496
498
500
501
508
509
522
536
517
509
517
526
526
533
542
509
478
476
505
515
503
499
498
502
496
476
463
470
475
467
460
462
481
476
470
470
463
453
457
453
444
435
427
439
452
449
440
439
447
444
443
439
442
440
451
457
454
455
446
452
446
442
449
464
485
479
468
451
442
450
460
456
447
443
447
465
463
450
446
431
415
418
436
454
464
465
450
439
429
436
453
462
467
466
465
448
446
443
434
443
458
466
468
466
455
443
439
439
443
450
433
433
444
461
473
474
491
502
504
524
539
560
587
612
630
651
687
741
783
810
845
902
930
928
945
984
989
989
988
987
987
987
987
987
987
988
989
990
951
871
789
727
686
625
550
444
344
277
236
206
198
232
277
314
332
337
336
332
328
348
364
369
378
384
382
379
375
379
375
372
373
376
376
377
380
384
389
388
378
370
377
376
372
370
376
375
379
392
397
389
399
400
382
381
387
398
416
422
400
402
414
416
416
410
405
391
398
398
399
401
411
422
411
408
413
417
425
431
438
445
430
418
431
434
422
426
436
441
444
440
427
448
457
467
474
467
443
441
439
437
443
443
446
447
443
447
452
467
483
489
479
479
490
489
463
460
469
478
478
487
493
485
483
487
483
475
473
471
477
485
479
486
498
523
549
525
487
486
491
492
500
499
498
499
493
489
503
522
521
505
504
499
506
521
526
529
538
537
524
540
555
551
542
534
533
535
536
530
527
526
517
525
533
547
566
570
559
548
541
537
537
526
526
543
544
546
568
574
547
539
527
524
517
513
507
515
493
472
498
523
540
528
509
507
508
498
504
498
489
483
480
492
489
486
471
462
459
461
456
451
457
452
448
446
443
438
439
446
440
436
440
433
425
410
404
397
399
408
422
450
451
425
424
395
393
394
402
418
424
421
420
415
416
422
426
422
406
401
389
392
408
414
409
416
407
398
396
392
399
404
392
392
387
384
387
393
405
414
417
417
425
423
424
436
439
443
442
434
432
423
397
396
404
411
419
429
432
432
446
457
455
444
442
436
435
438
443
451
443
442
424
428
433
438
441
447
446
446
459
461
456
443
438
438
436
443
453
458
472
465
446
451
456
459
460
467
458
457
445
448
458
469
459
438
438
445
448
454
451
441
433
432
421
431
453
479
470
472
491
482
476
474
478
477
478
473
464
452
462
480
484
491
491
488
480
480
484
491
495
491
494
487
482
485
486
484
484
482
484
489
481
485
485
486
493
497
498
501
498
495
502
507
520
524
519
519
496
470
477
478
475
495
512
516
517
517
514
511
503
503
510
504
503
499
502
521
534
535
526
518
517
513
498
488
491
498
500
492
497
501
494
480
485
481
473
468
456
446
431
419
412
417
439
464
467
474
473
483
460
439
447
455
453
441
445
444
442
426
427
438
436
447
456
452
453
457
460
452
447
440
447
458
465
465
465
456
445
442
443
468
474
436
427
431
433
432
443
446
459
462
457
465
455
429
415
436
453
452
456
449
432
423
417
426
444
461
480
495
488
451
430
419
409
410
432
441
444
458
463
460
460
463
472
488
497
514
533
554
571
583
598
616
643
676
713
772
819
859
894
924
970
990
990
989
989
988
988
988
988
987
987
987
988
989
990
951
872
809
744
684
620
534
435
344
277
230
208
220
243
272
308
314
305
323
325
320
332
350
363
357
348
367
381
376
373
371
372
378
382
378
378
367
374
381
383
390
389
387
399
409
404
397
391
390
392
388
384
377
375
384
408
415
408
407
406
404
411
414
414
412
419
419
416
413
420
425
426
422
413
421
428
428
430
433
439
444
432
439
454
454
450
453
454
449
459
469
453
447
443
441
451
458
456
451
451
456
460
465
475
485
475
465
461
455
459
462
460
462
474
483
487
484
481
481
479
480
481
480
484
476
466
490
496
494
489
497
511
522
508
506
506
505
506
516
513
512
511
509
504
508
523
538
539
537
533
525
521
516
518
529
543
542
549
558
545
542
547
553
545
550
555
547
547
561
566
562
558
538
537
549
546
546
557
568
584
556
511
515
527
530
538
522
496
503
508
514
530
547
551
544
537
529
525
528
539
548
536
518
503
483
475
482
496
496
494
491
482
477
475
469
458
456
461
465
465
475
467
448
440
441
452
456
457
458
450
443
433
428
425
420
424
420
419
430
429
431
431
426
425
414
417
424
421
423
435
447
446
423
415
415
387
384
390
392
395
400
409
421
404
390
389
397
400
403
393
384
397
424
430
425
418
414
415
414
429
441
424
406
408
409
417
419
404
403
419
426
432
436
435
450
455
444
448
448
455
457
448
413
403
404
417
421
417
423
424
424
426
429
430
430
444
448
447
448
445
445
450
449
457
462
452
446
443
447
452
458
447
454
455
460
461
451
438
447
450
453
456
471
476
473
480
477
470
462
458
457
456
461
468
481
499
484
467
473
470
467
472
473
482
476
474
475
478
479
475
468
467
472
476
481
479
478
476
477
478
476
481
489
495
491
492
491
496
521
518
509
509
514
509
492
463
466
486
501
498
487
491
495
501
495
509
512
499
496
496
496
497
501
506
513
511
508
507
518
507
507
527
531
528
520
509
510
521
522
509
506
497
497
495
497
497
486
479
458
450
465
469
464
467
453
449
454
455
454
450
448
446
444
429
432
424
414
430
451
457
449
445
449
438
423
433
444
456
452
445
455
465
449
437
434
432
435
448
457
459
457
451
449
453
464
453
459
466
450
448
441
443
445
445
438
428
434
439
445
443
439
436
435
435
433
444
445
452
448
435
435
437
437
442
437
428
433
437
441
444
440
431
422
422
423
435
446
461
471
464
481
501
512
518
520
536
561
596
615
630
655
687
724
764
810
843
870
904
946
983
990
989
989
988
988
988
987
987
987
988
988
989
990
933
860
806
756
710
640
522
399
298
236
203
190
210
244
261
277
291
305
311
319
321
323
346
357
367
385
384
385
384
381
376
392
385
362
364
374
372
373
379
388
396
399
401
390
372
367
373
377
385
383
382
391
401
405
414
422
422
408
397
391
394
394
400
392
395
404
409
432
424
409
418
424
424
429
435
429
422
434
434
425
421
410
418
424
436
451
457
468
447
422
421
430
426
425
437
447
451
460
469
478
480
470
468
467
459
457
458
466
475
459
457
461
450
445
463
484
487
477
466
468
481
485
495
493
478
474
470
465
469
484
494
500
496
508
503
512
518
508
513
524
513
486
491
495
508
519
518
523
521
516
513
519
522
521
525
531
538
541
534
534
540
538
540
541
538
558
566
547
543
544
546
555
551
544
539
543
552
542
538
542
546
543
551
558
555
546
535
518
510
516
529
521
526
534
487
495
498
499
508
511
504
509
528
521
507
493
482
488
496
499
497
492
495
493
478
472
471
473
472
467
459
448
448
448
444
441
443
437
432
445
435
417
399
411
429
429
441
456
454
445
447
444
451
440
415
408
402
392
396
404
416
432
420
408
410
417
423
435
438
440
422
403
406
405
402
409
415
419
422
438
442
422
409
406
410
411
413
418
421
427
428
422
424
422
419
424
418
411
415
412
412
421
415
414
413
418
424
429
434
441
437
424
436
429
425
432
447
453
443
428
430
436
452
464
468
469
464
457
460
467
453
455
451
443
444
447
456
453
445
459
477
491
477
468
475
474
468
469
464
451
445
449
454
456
458
459
468
470
482
491
476
479
465
462
459
458
458
475
480
477
472
470
491
483
478
470
461
469
476
481
467
475
483
483
480
485
493
503
502
496
492
490
491
494
497
495
486
488
496
491
479
478
480
484
493
506
507
504
506
506
503
497
505
502
502
497
496
521
543
530
518
534
547
514
491
494
507
518
528
528
523
518
519
515
513
508
499
492
494
494
506
518
518
515
516
528
518
507
500
500
496
488
484
476
469
466
457
443
446
442
455
468
459
461
455
446
448
456
474
477
472
459
459
456
457
449
455
456
454
460
455
445
446
452
443
439
439
441
453
464
473
460
464
469
453
447
449
453
448
440
437
438
437
436
429
439
461
475
475
473
466
459
458
452
445
439
441
442
440
457
465
468
464
463
463
462
462
453
452
454
458
467
461
449
450
455
464
495
501
518
483
446
449
468
490
508
536
563
586
597
627
657
701
722
750
791
838
885
928
966
990
989
989
988
988
988
987
987
987
987
987
988
988
989
990
923
849
784
727
661
576
478
370
287
242
224
223
251
266
259
259
285
316
342
354
352
356
368
377
382
388
395
386
382
375
372
387
393
384
382
379
381
386
387
388
396
402
404
410
411
407
399
398
400
401
402
397
389
399
409
419
440
456
436
417
409
419
435
419
404
396
407
402
404
405
412
418
421
438
437
429
428
437
437
433
435
440
443
442
441
436
431
435
448
444
447
441
445
456
450
466
481
502
513
493
476
462
453
436
452
484
495
485
480
473
480
474
464
464
474
488
495
501
499
498
502
504
502
488
488
492
502
503
509
510
498
492
491
495
490
495
492
497
503
507
508
515
523
525
533
534
537
531
531
534
530
527
534
536
544
554
549
533
534
548
552
535
530
534
537
547
558
559
563
565
556
549
549
549
556
549
536
540
541
549
569
581
570
553
545
547
539
542
541
517
517
524
527
523
529
546
535
513
502
500
505
503
509
520
517
513
518
504
509
520
493
479
481
479
477
472
458
472
471
456
456
465
467
462
460
460
464
466
471
461
449
439
440
435
435
439
435
433
446
453
442
431
432
450
445
430
428
432
434
432
434
435
426
422
421
429
424
430
433
426
421
422
397
402
445
449
413
388
394
405
400
397
428
443
438
429
430
432
432
435
436
435
426
421
430
430
428
428
448
460
455
444
443
436
434
430
448
466
439
431
433
443
446
422
414
423
424
420
436
446
443
446
471
483
486
480
461
460
450
449
450
454
476
483
481
473
471
453
442
464
466
479
472
464
466
474
451
452
466
474
480
479
484
488
486
486
492
486
475
471
469
462
461
461
459
465
473
484
496
488
480
478
475
466
462
461
473
478
482
488
492
498
499
493
494
500
507
510
510
505
514
516
495
494
491
501
504
515
510
484
492
496
492
492
487
485
483
490
503
506
510
500
493
500
507
507
503
506
503
492
496
509
526
530
524
516
516
526
531
532
533
543
524
513
520
529
534
535
535
527
525
514
512
508
503
507
509
526
533
507
485
470
485
500
508
519
516
499
497
493
486
482
468
469
464
446
438
435
440
441
465
475
473
453
436
448
472
477
471
460
462
458
455
454
459
465
470
473
469
463
463
465
462
464
465
470
486
467
454
465
470
470
456
442
451
467
446
428
429
438
448
444
442
453
458
469
478
469
453
448
456
463
471
468
454
458
457
460
460
453
440
443
458
471
485
483
468
451
439
442
431
419
425
440
467
491
509
525
529
528
538
551
593
622
649
696
745
767
783
817
862
909
946
980
990
990
989
988
988
987
987
987
986
987
987
987
988
989
990
939
872
791
726
664
581
435
314
250
221
200
219
257
289
302
300
297
298
308
328
340
359
374
364
371
388
384
382
383
381
378
380
389
384
376
372
398
409
417
393
367
378
407
405
393
386
391
388
366
367
381
385
387
400
408
411
415
412
397
396
400
409
417
422
416
413
423
438
446
450
441
431
428
433
421
414
414
425
438
436
442
443
445
446
444
444
450
446
443
419
405
427
443
457
475
473
469
474
465
452
446
461
464
471
480
478
481
479
465
436
445
458
467
480
484
473
487
496
498
498
498
496
505
497
485
482
484
493
494
491
497
497
495
505
508
508
510
512
510
514
520
518
521
524
522
527
519
521
533
528
520
512
518
521
539
557
556
540
534
539
543
539
531
530
545
550
532
527
540
536
535
545
543
550
549
544
551
554
555
559
548
547
539
521
521
528
528
531
550
571
564
561
570
514
488
496
508
515
516
524
514
499
499
500
505
500
500
497
492
492
484
474
475
470
467
466
465
467
463
467
474
475
483
475
474
472
469
464
459
449
438
434
428
425
431
436
440
437
436
431
435
445
434
432
444
459
438
417
408
402
401
405
417
428
438
445
435
421
415
415
412
410
408
413
415
423
425
434
436
440
429
418
418
419
417
417
423
428
430
427
423
422
420
426
425
427
429
433
436
433
429
427
432
444
445
444
442
436
435
432
433
444
448
432
455
467
464
436
429
435
442
444
450
461
479
474
458
442
439
469
481
470
457
459
485
518
498
460
453
461
465
472
462
432
447
464
469
467
463
463
461
458
462
474
477
476
474
486
478
457
459
466
474
481
490
489
464
453
455
472
497
491
471
464
469
470
466
470
472
472
477
481
480
480
481
481
482
475
475
478
481
482
482
484
492
502
504
503
502
499
495
486
480
484
478
483
499
503
487
491
495
491
490
501
509
504
500
497
498
501
503
512
505
512
526
537
534
518
506
497
507
523
533
528
522
509
502
510
516
520
520
534
546
549
538
524
518
499
492
495
494
487
489
494
498
494
496
492
476
465
456
450
446
447
454
482
519
492
429
429
447
440
439
440
432
427
431
451
460
468
460
450
442
438
440
444
450
461
469
465
458
452
445
445
447
446
436
440
447
452
455
440
436
441
444
447
455
446
455
461
461
458
451
443
443
443
440
448
457
463
461
454
447
435
425
421
430
429
435
462
482
481
474
472
470
464
458
457
461
455
443
443
442
446
456
473
499
514
538
544
531
537
564
600
640
658
669
699
739
779
815
871
912
946
981
990
989
989
988
988
987
987
987
988
987
988
989
989
990
963
899
810
734
665
583
482
373
284
237
217
219
245
266
269
282
293
299
307
315
326
344
372
363
361
370
357
357
370
383
382
381
387
387
381
391
395
368
389
402
394
382
376
375
390
399
400
407
407
402
396
399
412
408
408
407
390
378
383
395
412
417
427
420
419
421
418
419
422
434
419
419
426
429
435
442
441
427
421
422
427
431
424
421
425
423
436
458
457
458
464
467
466
468
477
487
455
444
448
446
442
441
453
473
472
456
436
450
473
480
476
467
467
471
469
464
483
473
480
489
493
492
480
485
483
482
486
493
491
492
492
497
499
499
501
504
503
493
494
499
496
487
493
502
514
529
539
548
549
542
538
536
527
514
509
510
515
517
508
499
505
520
537
554
551
547
544
533
523
522
535
554
559
554
550
551
556
557
563
565
566
564
553
546
529
527
521
529
521
535
530
510
503
524
531
527
522
512
516
513
512
510
509
512
517
518
506
500
493
488
483
485
488
491
474
457
458
452
453
460
467
485
479
454
443
450
457
459
444
425
412
421
419
424
441
461
449
429
420
414
407
404
401
410
424
423
419
411
398
400
417
421
419
417
420
419
413
401
408
418
427
417
435
431
426
426
425
425
417
419
418
420
426
433
431
427
434
424
425
428
432
433
434
440
449
443
428
435
433
428
428
424
412
416
434
441
446
426
419
426
432
439
443
432
427
425
429
440
435
434
454
468
459
454
449
454
446
446
454
446
441
445
451
453
443
445
455
463
459
449
452
459
459
475
471
444
444
460
470
460
451
451
467
448
457
454
452
461
470
462
453
456
457
456
461
467
467
464
472
478
484
482
474
470
468
465
453
444
459
482
516
534
532
503
473
463
461
463
483
494
493
492
499
500
497
498
501
507
496
488
486
484
486
498
500
496
496
492
498
503
502
508
512
502
494
493
489
487
493
495
491
504
511
499
485
492
497
492
507
517
539
516
504
522
512
504
504
506
508
493
485
484
487
492
491
489
480
475
491
489
470
456
452
449
444
443
441
432
429
431
437
440
448
463
474
478
472
470
472
464
451
447
444
443
452
464
467
469
462
460
463
460
453
442
432
447
447
427
443
466
471
464
451
437
432
436
438
451
446
443
441
439
437
441
450
452
449
443
443
444
442
441
454
457
459
458
451
449
437
441
439
451
453
453
443
453
475
456
456
437
428
435
439
446
459
470
489
494
478
490
507
515
532
552
567
577
590
600
637
689
723
748
780
821
853
883
908
951
987
990
989
989
988
988
988
987
988
989
990
957
903
848
787
745
700
671
575
479
397
306
258
242
238
251
267
280
309
306
292
294
309
330
341
348
360
365
374
385
385
388
395
399
409
400
404
409
406
409
416
415
403
397
410
413
414
408
408
417
400
390
391
404
410
405
409
411
410
407
417
425
418
409
407
410
413
424
428
432
418
418
429
432
434
442
440
424
443
463
475
467
453
448
437
446
455
455
465
485
475
455
451
457
459
460
465
469
454
436
444
451
451
454
454
456
468
477
484
484
477
478
484
509
528
494
456
451
458
463
466
470
478
485
492
491
493
499
500
497
493
489
486
494
498
501
510
514
515
509
509
508
513
521
527
533
524
538
537
524
514
499
498
511
516
520
548
577
571
536
530
541
551
562
540
551
566
565
563
554
534
526
529
537
541
547
548
541
549
554
559
566
563
561
548
550
528
516
524
533
528
529
534
541
537
519
522
527
526
523
531
526
519
508
487
479
489
494
498
512
510
505
502
495
501
504
500
500
494
484
485
466
451
431
437
439
452
470
472
472
459
450
442
434
430
429
428
430
434
438
440
434
429
430
432
428
424
417
403
414
419
408
401
406
421
423
431
424
418
417
426
429
419
412
409
407
408
404
406
405
401
415
435
424
420
433
404
381
392
396
410
409
414
410
408
401
405
408
413
419
412
411
411
414
419
426
424
424
439
441
439
436
432
431
427
426
429
433
436
443
451
454
447
431
417
412
420
441
452
446
450
456
453
450
437
432
445
447
439
437
442
458
487
488
449
443
446
447
457
462
457
450
453
464
481
486
446
428
440
460
464
461
458
456
464
471
487
490
487
475
479
470
471
476
485
496
487
468
459
469
493
507
500
490
491
499
500
501
498
478
477
482
482
480
485
480
480
492
494
506
504
497
496
500
503
505
500
481
484
480
492
509
523
526
515
513
516
514
508
511
508
500
503
510
515
510
501
503
496
478
479
496
506
509
508
508
502
485
480
482
476
475
470
460
454
450
445
444
448
461
467
459
453
431
419
423
422
423
441
475
467
461
465
467
462
433
415
415
426
433
454
453
447
454
449
445
447
459
464
445
423
432
447
453
455
454
459
465
455
448
445
438
437
435
439
446
451
452
450
448
440
438
441
451
454
453
457
454
439
423
426
442
448
451
459
460
455
472
457
438
441
461
463
457
452
451
462
473
480
494
501
500
502
510
526
550
574
592
602
614
630
655
684
725
763
790
834
865
887
915
944
956
980
990
990
989
989
989
989
989
989
933
839
767
719
668
627
590
557
497
414
323
267
244
239
254
273
280
293
309
320
331
337
346
351
355
363
372
386
392
406
413
418
412
407
412
411
406
407
412
403
399
398
399
403
428
433
428
429
422
423
416
414
408
399
400
395
404
424
437
430
428
435
451
459
441
426
418
417
413
427
442
454
452
433
415
417
422
428
431
451
449
444
436
439
432
444
460
466
476
480
476
472
471
471
471
476
478
474
476
463
456
451
454
455
461
472
476
481
490
483
469
459
462
473
479
479
499
504
497
482
478
477
481
483
484
490
499
506
507
521
533
512
492
494
498
494
494
502
502
497
499
501
506
513
518
527
515
500
484
490
496
511
530
546
554
538
524
521
531
534
522
528
548
554
548
541
532
527
533
542
539
537
541
543
561
568
569
559
548
528
526
528
536
547
558
549
548
543
529
537
543
543
536
524
516
520
523
529
539
531
525
527
514
498
499
500
501
503
501
494
488
478
476
472
468
466
460
456
468
473
475
472
470
470
459
447
465
460
450
449
453
458
438
450
472
467
437
419
414
417
425
424
424
427
422
411
417
447
446
412
387
390
398
408
427
449
426
404
405
407
408
413
417
417
420
415
409
399
389
405
420
421
423
422
416
413
421
416
419
431
446
450
444
421
408
425
426
423
415
420
422
420
423
426
428
433
426
422
432
423
414
418
429
434
436
442
455
455
444
446
442
435
442
448
442
438
432
432
437
438
433
438
447
452
457
449
444
455
441
432
455
472
484
469
459
469
468
441
445
456
462
472
484
475
445
440
449
452
439
450
459
473
482
492
493
476
468
472
479
476
473
479
485
473
459
467
479
483
467
471
472
464
463
456
464
468
464
467
487
495
492
498
511
512
510
509
486
482
489
498
493
492
494
492
495
482
461
470
486
489
492
494
487
495
504
505
501
486
474
487
507
508
499
504
502
491
497
500
499
500
509
518
518
527
528
531
521
508
509
521
525
507
493
491
485
489
498
507
488
469
465
475
486
475
486
484
482
482
473
471
469
472
477
460
446
450
455
448
448
446
445
448
445
443
438
439
438
436
440
467
445
428
443
459
469
463
456
442
443
445
444
447
445
447
446
452
460
461
447
438
435
438
440
440
437
443
445
446
446
443
441
445
447
449
446
448
460
467
459
453
451
446
447
458
476
470
460
454
459
460
457
452
440
437
444
458
454
452
460
463
465
486
499
499
516
535
561
587
609
621
643
679
717
755
786
801
831
873
908
940
972
990
989
989
989
988
988
988
988
988
989
989
990
933
876
822
757
687
608
556
484
395
316
241
202
201
238
279
305
308
316
324
335
341
353
359
356
363
365
380
392
399
384
383
385
391
388
389
400
397
405
406
396
381
378
391
404
398
394
425
426
413
407
407
406
404
412
417
397
388
391
396
401
405
400
405
411
414
413
417
406
414
419
422
427
418
434
440
443
435
434
432
432
431
426
425
430
434
429
440
450
450
447
440
438
442
448
463
470
460
466
477
478
476
467
457
448
441
446
450
455
465
465
460
458
461
458
456
462
461
464
470
478
476
473
480
494
507
512
535
526
495
498
484
476
481
488
485
473
487
488
472
487
481
476
493
511
511
499
501
500
508
517
528
529
541
544
520
502
499
517
530
534
532
546
542
518
515
514
520
532
533
527
528
538
538
534
536
537
530
528
532
533
524
523
519
520
529
524
526
541
541
522
507
501
490
499
507
508
512
515
515
515
520
529
532
530
512
492
480
482
492
488
476
475
479
480
479
480
486
495
493
477
464
464
461
461
461
458
458
458
463
456
448
442
445
452
444
428
407
392
406
422
432
441
457
452
429
422
421
417
414
404
401
411
435
443
438
431
428
421
417
417
426
431
438
445
414
385
400
389
380
381
395
408
415
426
425
431
427
425
440
439
430
425
430
435
431
438
453
450
441
431
424
437
445
413
410
412
406
422
448
463
464
459
454
451
454
459
445
436
448
447
442
447
456
467
467
461
450
447
446
452
455
456
461
464
467
463
455
457
456
455
460
465
467
466
462
469
464
464
468
464
460
465
467
447
441
446
469
484
487
473
453
451
450
449
466
477
470
478
486
496
483
472
467
474
482
474
480
480
475
470
469
469
471
479
478
478
471
477
485
504
503
500
506
502
499
487
484
481
478
478
472
471
473
483
492
503
496
498
508
505
491
509
517
506
505
503
506
499
498
508
508
507
504
507
515
530
522
512
504
501
509
515
514
507
505
507
515
512
508
507
512
519
518
498
488
493
502
512
499
486
489
478
471
472
465
457
465
463
448
444
440
443
448
446
438
453
448
446
450
453
459
459
460
460
464
462
461
460
454
444
448
449
456
454
448
441
431
430
437
440
440
446
458
460
459
454
456
456
468
446
429
438
445
451
454
462
456
470
467
438
429
425
429
446
453
449
462
464
453
453
457
464
460
450
441
442
443
438
436
433
430
431
442
438
432
427
459
485
500
502
506
524
555
573
588
612
638
669
712
756
752
755
789
842
879
913
950
990
989
989
988
988
988
987
987
987
987
988
988
990
973
899
822
741
678
625
567
471
362
286
239
217
230
260
283
306
318
330
330
324
333
341
354
369
389
383
372
371
370
372
374
389
396
370
366
376
381
393
401
403
399
396
397
397
390
380
392
402
395
385
383
384
391
393
396
402
402
406
415
413
409
408
412
414
415
414
423
434
426
411
410
415
435
436
421
422
421
418
425
431
437
441
443
439
432
432
444
450
467
471
446
433
438
445
445
456
458
457
450
452
454
460
455
453
448
444
463
453
446
449
454
449
446
461
472
478
479
486
499
500
497
473
459
491
502
496
490
484
502
524
511
502
496
488
483
482
482
485
494
503
514
519
514
513
511
507
515
519
517
515
522
515
502
508
515
528
530
529
523
526
534
527
520
527
530
534
546
554
544
531
534
535
529
531
542
550
544
538
549
557
553
540
524
513
507
512
524
526
515
517
524
526
528
513
507
512
508
515
523
516
506
522
519
503
501
509
510
510
509
514
511
498
475
470
463
458
452
448
444
451
444
430
444
452
469
473
454
443
448
448
448
446
453
461
433
427
432
426
419
427
434
431
423
419
420
416
416
417
401
392
415
424
420
412
404
407
419
425
424
420
418
426
429
424
421
420
427
420
410
405
405
413
410
406
410
416
418
429
428
429
434
437
436
439
436
423
437
454
448
432
420
408
423
428
414
411
421
430
433
434
428
427
432
449
464
467
468
466
463
454
452
458
450
444
439
444
447
441
442
451
456
443
432
429
432
434
441
449
458
458
453
451
459
454
448
452
448
447
450
455
466
468
483
493
478
458
457
460
471
482
469
470
480
468
455
461
455
451
456
470
495
504
502
492
490
488
479
489
477
473
482
471
460
472
483
477
468
467
470
477
489
482
484
496
502
489
485
476
475
470
475
487
498
501
498
503
491
493
495
497
503
501
491
489
489
486
487
495
510
507
502
504
510
515
512
518
512
508
506
496
486
489
500
506
519
522
531
530
525
519
514
514
520
513
504
497
483
482
479
483
482
485
494
504
503
489
487
482
494
486
474
455
457
462
466
469
469
456
443
443
442
440
437
438
438
438
465
479
482
462
445
441
446
455
463
471
472
465
454
446
441
437
437
443
447
447
454
467
467
457
461
474
466
446
445
453
460
456
453
435
430
440
471
490
456
435
435
442
449
437
430
424
434
451
452
446
444
450
453
453
444
442
451
460
452
440
452
447
440
429
427
439
465
484
499
525
535
542
550
575
583
586
606
637
678
710
758
799
844
886
924
956
990
990
989
989
988
988
987
987
987
987
987
988
989
990
959
879
813
742
676
617
545
447
348
272
227
221
233
258
302
321
312
314
303
294
317
337
354
370
379
378
376
388
381
388
392
390
374
367
370
375
378
384
390
384
377
382
395
418
426
421
397
383
385
393
407
408
403
405
391
371
362
372
388
400
430
426
419
431
428
419
413
408
429
444
436
440
436
423
425
431
443
440
437
429
433
436
437
440
443
442
436
440
441
437
432
435
439
440
448
462
454
450
454
463
471
463
465
468
463
467
473
470
464
469
471
477
479
478
479
480
479
476
467
460
476
484
486
492
498
491
492
487
477
483
482
483
491
493
495
515
532
523
514
513
527
528
518
491
499
495
495
505
507
502
498
509
520
534
532
535
536
535
537
533
546
546
531
533
536
539
539
527
522
525
525
537
544
540
541
551
553
549
548
542
546
548
549
546
540
537
529
523
529
535
524
528
515
508
512
528
567
558
515
487
497
503
508
522
514
500
492
496
491
486
483
486
481
478
473
484
499
485
467
461
465
469
461
458
461
463
443
433
437
455
463
446
433
434
433
433
421
421
417
403
412
421
424
423
426
430
428
436
450
442
421
431
435
425
426
411
407
414
398
374
385
410
417
413
408
411
416
431
417
408
406
412
431
437
436
433
430
425
408
403
406
406
410
442
447
421
420
434
434
435
431
433
442
450
452
456
457
444
436
434
437
435
440
441
434
434
433
438
439
447
452
449
438
438
446
445
455
491
491
438
440
446
448
454
452
450
455
458
459
463
456
455
449
446
453
450
451
461
466
474
471
459
458
448
441
445
454
464
473
487
490
486
485
464
464
477
488
491
487
475
479
465
450
465
473
483
486
473
465
474
471
466
471
468
476
478
473
461
453
483
498
488
485
487
487
491
491
495
502
504
472
470
482
494
495
494
492
489
487
478
479
492
507
507
488
481
481
491
495
506
506
498
498
508
511
511
506
477
473
481
494
507
507
512
529
525
514
516
517
524
526
529
531
526
517
516
515
516
512
501
501
502
500
503
500
504
502
502
504
505
496
487
487
487
482
478
486
494
486
470
446
442
447
443
436
431
446
464
472
470
457
444
444
463
463
459
447
433
449
451
448
437
431
426
432
456
471
476
477
474
466
471
452
434
441
449
440
435
442
437
457
470
454
452
452
441
439
447
439
445
444
448
450
451
460
469
464
454
453
440
430
431
449
452
453
458
457
455
452
451
439
429
428
432
435
445
463
481
460
438
446
454
471
478
495
504
527
548
567
609
627
618
644
683
719
754
787
830
881
911
946
971
990
989
989
989
988
988
987
987
987
987
988
988
989
990
949
884
838
773
699
613
511
396
298
238
216
229
233
241
268
283
294
318
323
326
329
340
367
383
378
378
392
388
391
395
389
381
393
394
373
378
388
391
394
395
383
364
357
352
368
376
379
386
394
398
397
399
399
404
397
392
396
411
428
434
408
407
411
393
389
408
409
385
399
415
423
421
420
428
423
417
413
415
425
429
426
428
442
438
441
436
434
437
439
442
447
446
438
444
453
461
464
462
466
479
484
483
492
484
489
485
474
446
462
467
467
467
468
475
466
456
453
458
467
476
463
464
486
489
490
495
505
505
505
495
494
494
489
492
498
506
510
503
500
499
501
507
513
520
525
524
523
522
519
521
519
516
521
535
540
550
555
536
532
520
504
507
514
515
520
527
536
549
553
550
547
541
541
544
541
532
534
540
555
559
560
559
543
526
522
517
516
525
527
519
512
512
513
510
510
503
495
500
514
541
545
528
512
487
487
511
546
543
505
466
462
473
487
506
484
462
455
460
467
455
444
446
456
464
465
455
443
447
455
449
434
426
428
437
439
431
431
433
431
445
446
431
421
409
405
407
420
432
422
414
407
407
412
416
419
421
421
426
427
423
422
428
436
431
427
411
405
410
412
410
408
420
425
427
421
418
417
414
421
439
448
447
443
424
411
408
406
412
413
427
439
443
442
446
442
456
461
434
443
466
460
442
428
425
435
444
469
478
464
448
447
441
431
439
435
438
435
442
447
444
459
469
452
445
456
454
467
460
419
420
431
450
480
485
477
466
457
464
464
469
476
491
478
459
467
468
471
463
457
459
461
467
461
463
457
452
452
462
469
474
485
484
481
474
475
486
484
479
474
475
470
464
467
473
478
496
483
474
471
470
473
477
480
479
488
484
482
490
491
484
482
480
473
480
471
455
455
459
460
454
456
483
507
507
517
509
492
475
474
467
480
509
515
503
477
463
464
484
504
502
497
503
511
507
512
511
509
497
498
510
512
510
521
543
547
501
480
488
507
506
503
516
506
495
514
537
536
525
523
516
507
515
526
531
525
511
501
501
512
509
501
494
499
491
475
468
471
474
476
467
464
461
446
441
440
451
460
465
464
460
461
462
458
451
453
448
440
440
447
453
447
438
437
441
434
435
444
451
451
446
440
442
461
479
474
472
469
462
453
451
475
465
439
445
450
447
445
453
464
474
477
476
475
475
477
465
458
456
470
456
441
447
439
447
444
451
460
480
491
485
464
453
434
428
451
456
448
440
428
430
440
446
455
464
474
486
508
519
538
564
564
570
599
625
639
665
697
723
773
844
913
943
959
989
990
990
989
989
988
988
987
987
987
988
988
989
990
966
898
825
761
704
640
563
452
350
286
244
223
231
231
253
276
298
324
329
333
338
346
356
378
391
395
400
393
384
379
383
385
390
390
392
391
391
397
395
397
396
394
392
395
398
389
394
391
391
392
391
393
394
397
395
391
404
409
411
397
398
399
391
392
411
429
435
433
441
434
429
424
420
424
431
434
437
454
463
436
434
430
422
449
467
441
452
456
445
436
446
462
460
450
451
452
445
457
473
489
470
463
461
462
464
473
474
463
467
462
457
461
467
468
466
469
480
495
494
486
483
484
493
493
489
488
494
496
495
498
497
510
517
514
497
495
497
497
489
493
489
494
504
498
500
509
513
503
509
519
524
527
538
539
533
530
522
531
534
536
542
536
525
525
523
531
538
535
537
538
547
571
577
584
591
570
534
535
537
541
543
538
543
550
564
568
550
542
533
528
519
513
514
523
527
534
531
527
522
518
517
514
514
517
516
509
486
476
482
494
546
511
473
478
486
485
480
475
467
463
461
461
458
457
456
463
471
461
454
450
446
448
444
443
442
438
431
426
419
404
399
409
421
423
426
430
448
439
432
424
427
433
441
443
440
438
424
415
418
422
423
424
422
426
425
413
434
450
433
418
405
409
449
442
434
430
430
427
424
428
428
427
432
429
416
414
421
420
426
432
431
434
436
441
451
455
440
449
452
442
434
432
436
434
435
436
440
440
447
451
453
450
448
447
442
431
422
448
465
452
445
468
489
487
474
458
454
455
478
495
468
445
447
457
474
471
449
459
469
465
479
480
479
490
490
483
484
475
469
467
451
453
451
455
467
477
476
479
481
492
483
472
474
474
472
469
473
469
472
471
469
469
471
484
486
474
460
469
468
473
483
491
489
486
492
500
489
465
471
479
480
479
477
479
486
492
487
487
489
486
483
485
491
483
469
476
468
471
496
487
479
470
473
478
487
503
504
514
520
522
526
515
501
502
518
540
517
488
500
513
521
519
520
526
519
506
492
506
518
521
525
519
512
515
515
517
521
510
511
520
523
519
509
496
492
491
487
493
491
480
475
470
473
487
493
492
493
486
475
467
461
455
447
440
447
452
452
459
456
459
467
444
425
428
436
445
452
456
454
460
467
462
460
460
457
454
454
462
463
460
459
456
467
476
467
458
441
438
446
450
450
446
458
462
473
473
460
474
462
461
447
439
438
448
458
458
454
429
429
447
457
463
469
481
486
486
479
473
461
453
450
448
448
451
449
452
458
458
453
461
462
480
499
509
519
550
571
552
548
576
608
636
662
693
719
751
785
810
847
893
933
968
990
990
990
989
989
988
988
988
988
989
989
986
928
871
814
750
684
632
585
519
418
329
273
262
231
216
235
259
281
303
323
329
337
342
343
343
353
374
393
401
413
413
406
415
406
402
402
394
402
411
410
400
382
382
396
396
404
405
402
399
400
400
395
410
419
435
444
441
432
438
434
436
441
437
435
431
424
426
430
435
441
442
432
430
418
418
434
446
452
454
458
460
453
445
451
450
456
462
465
466
461
447
459
465
454
454
460
469
482
466
462
468
470
450
453
462
466
465
468
475
476
476
490
495
469
473
469
473
471
466
478
495
491
485
493
485
475
487
495
489
484
486
503
519
519
522
525
532
531
514
517
531
513
500
521
530
518
507
513
523
536
525
527
533
529
531
539
546
548
544
537
539
538
531
544
546
552
565
550
535
542
559
565
562
556
577
577
557
542
537
537
549
553
556
562
561
563
572
556
543
548
541
528
534
547
534
511
513
513
511
513
513
521
527
534
524
517
519
517
507
496
493
502
515
501
496
510
516
482
469
465
466
461
463
471
469
466
468
461
449
438
433
432
444
466
468
449
443
437
438
444
444
438
428
432
426
415
414
414
411
405
398
399
401
403
417
425
432
433
420
419
427
428
425
423
413
407
409
414
421
421
416
419
420
418
422
419
415
413
410
403
408
420
422
438
423
406
403
395
385
411
432
452
455
437
436
461
462
445
424
422
431
433
430
441
440
432
425
422
429
433
438
446
446
437
443
439
441
448
451
452
447
468
461
459
450
429
433
448
459
473
465
457
460
456
463
455
445
448
450
460
474
470
452
452
454
458
465
473
477
472
466
470
471
455
473
477
480
488
488
481
484
481
477
472
470
473
468
461
460
459
462
464
466
467
473
481
484
493
497
487
481
481
484
494
484
479
481
482
481
475
472
476
477
477
487
490
506
509
502
496
486
487
490
499
495
493
492
492
498
496
488
478
485
499
506
499
504
526
504
487
505
522
528
544
524
499
499
495
493
509
513
506
495
494
502
508
514
516
521
516
509
507
513
520
518
530
528
513
499
495
491
502
506
503
522
501
475
479
488
474
463
455
454
454
445
447
454
457
455
448
444
449
457
471
474
470
464
456
454
458
454
453
451
456
463
460
456
460
460
456
453
440
432
423
423
431
424
429
435
437
440
439
452
480
473
474
478
475
467
459
459
463
462
453
456
454
451
445
442
458
470
479
471
466
460
455
455
470
466
473
475
457
455
454
460
459
456
446
432
435
445
453
456
459
461
465
481
504
524
525
516
544
565
566
584
611
629
646
680
715
748
772
803
846
879
907
936
968
990
990
989
989
988
989
989
989
989
977
927
873
817
760
709
661
614
567
509
443
362
299
267
255
262
273
284
302
310
324
332
332
337
351
359
365
377
387
393
400
404
405
398
390
392
389
395
404
418
426
432
434
435
408
400
398
413
420
419
419
420
414
410
424
422
421
432
433
432
430
427
424
428
437
441
442
438
437
437
438
437
438
438
439
438
433
439
437
439
440
450
466
452
438
438
448
450
448
448
455
463
476
488
469
453
457
466
469
470
475
464
469
478
473
470
459
447
453
460
466
470
475
483
498
493
482
498
503
492
469
455
461
469
475
484
495
496
499
500
502
505
509
509
508
507
512
517
521
524
516
517
508
500
499
504
519
531
530
526
528
529
529
533
540
533
521
541
557
559
558
558
547
542
542
534
543
540
545
544
546
554
548
543
542
538
543
548
547
534
525
521
520
523
530
536
556
570
561
547
542
542
540
542
545
544
536
537
535
532
536
529
517
506
502
503
507
506
505
502
505
497
493
498
511
507
490
489
486
482
487
514
507
470
444
429
437
446
431
425
441
450
453
458
466
454
433
433
443
459
438
429
429
425
430
428
432
432
416
416
418
415
409
419
418
419
414
407
399
400
410
418
419
434
442
438
439
432
423
414
412
414
406
417
426
430
423
419
416
420
419
419
403
399
409
417
418
417
417
412
412
421
432
447
443
426
417
411
420
430
440
448
448
441
432
427
425
423
419
421
425
446
471
456
455
463
451
439
438
449
456
463
448
426
427
439
449
449
436
430
439
456
481
464
435
439
447
460
470
472
469
480
466
458
458
455
469
476
480
484
471
481
469
462
481
471
457
470
470
457
458
458
464
471
492
489
475
472
466
471
485
484
482
487
481
474
457
466
473
482
489
484
475
459
467
471
473
474
476
485
486
469
466
460
465
469
462
461
467
472
476
466
467
469
478
483
496
506
505
501
501
499
479
471
464
464
470
473
480
478
472
491
469
441
451
457
476
489
499
500
500
501
494
496
496
499
496
482
481
482
488
490
489
479
474
476
476
479
479
486
490
494
502
516
521
519
513
519
522
515
517
511
507
502
505
508
504
520
521
517
517
515
514
516
522
528
529
528
501
481
486
497
503
494
486
481
479
484
492
488
489
489
486
485
479
465
467
471
470
459
459
452
437
445
454
452
437
446
457
460
470
479
478
471
465
464
475
481
480
448
437
451
487
481
467
463
450
448
435
430
435
437
439
445
456
463
455
454
453
449
450
451
447
451
467
478
475
476
463
452
460
448
445
447
447
448
455
447
454
457
453
452
465
472
476
474
473
471
460
455
454
450
445
438
429
422
423
432
438
445
454
474
489
508
531
552
563
572
585
601
624
659
709
756
796
828
852
887
931
956
980
990
989
989
988
988
987
987
988
988
988
989
989
988
946
872
754
688
630
568
494
403
328
275
248
245
263
289
305
313
311
308
322
338
358
385
382
386
394
397
399
391
388
388
388
383
383
386
382
385
383
382
374
368
367
360
374
396
425
443
429
414
407
403
406
405
389
401
414
415
418
419
420
424
424
427
420
410
408
409
410
405
411
421
429
431
433
443
440
425
417
421
426
425
425
426
428
432
447
454
441
443
440
435
438
449
454
461
459
447
440
454
450
441
452
465
464
455
452
446
448
451
459
471
477
474
470
469
462
476
479
479
490
492
502
497
494
469
464
472
469
465
471
478
487
493
489
496
492
489
498
496
493
499
504
511
522
505
517
510
494
475
473
474
478
524
555
546
527
523
526
527
526
528
531
529
530
530
542
549
544
542
540
531
525
526
526
528
534
540
545
552
551
539
538
539
539
530
535
536
530
526
530
526
520
525
527
531
513
489
497
516
525
528
524
520
519
518
518
504
490
479
481
487
502
503
492
484
469
447
461
491
492
469
467
468
460
441
438
448
446
462
469
474
476
460
443
444
444
439
437
433
436
447
447
440
433
428
432
421
421
434
441
445
417
404
408
411
418
438
456
452
444
432
422
436
438
447
454
430
428
437
415
401
403
412
419
426
426
428
434
438
434
431
432
436
439
429
429
428
427
425
425
430
435
447
439
440
452
455
438
429
423
407
441
474
471
455
451
448
437
437
439
440
458
481
483
471
461
459
451
454
451
447
457
469
471
471
469
465
463
459
457
458
463
472
479
484
485
475
467
469
484
476
456
456
459
462
471
474
474
460
448
459
468
459
453
458
458
467
475
474
476
482
511
505
464
446
458
464
465
471
473
470
470
481
489
489
481
478
477
479
473
467
466
466
467
467
479
487
491
487
479
478
478
491
498
479
457
451
454
464
474
489
501
497
487
476
473
474
475
474
476
477
479
488
476
475
489
477
469
477
483
490
477
476
483
477
476
475
472
465
459
476
481
473
477
480
476
473
484
495
485
480
489
489
488
479
483
487
490
490
492
498
497
497
496
505
504
510
510
479
476
487
485
478
471
471
489
498
492
499
511
518
508
509
513
520
513
505
505
504
507
513
519
522
517
506
511
531
546
548
536
529
516
510
516
534
525
513
503
495
464
456
464
497
527
537
529
509
495
479
472
469
467
475
483
505
506
496
476
468
469
468
462
456
456
456
467
468
472
472
458
449
453
453
453
463
462
462
462
473
484
491
472
458
462
465
477
464
453
454
445
442
440
440
437
455
465
467
467
470
473
476
485
498
484
414
404
418
436
442
441
441
444
440
434
450
459
456
450
455
464
472
480
489
482
470
465
458
445
445
447
447
444
443
443
451
458
449
445
459
474
479
496
510
527
535
568
590
606
632
666
712
756
788
817
850
890
937
987
989
989
989
988
988
987
987
987
987
987
987
988
988
989
990
935
852
771
695
625
537
441
357
307
269
250
262
293
321
336
340
342
347
353
361
364
372
377
380
382
379
372
363
360
366
378
386
399
394
372
365
359
364
373
392
398
404
404
412
424
421
411
387
363
367
382
374
368
374
394
403
397
400
408
416
417
424
410
402
399
405
412
415
419
417
415
412
419
431
453
435
431
434
436
443
432
421
417
424
431
433
434
438
448
454
454
443
447
455
454
447
435
439
460
463
456
453
438
431
432
444
467
480
471
459
444
435
456
488
505
497
487
484
487
485
488
504
499
491
480
479
481
480
490
494
496
499
508
520
529
505
492
488
490
496
503
518
500
489
493
501
502
505
503
508
517
519
535
534
525
522
522
518
521
525
531
542
539
541
536
541
535
533
531
543
551
538
544
554
554
529
525
532
532
526
518
521
513
519
544
554
536
520
523
536
539
523
517
520
537
542
536
515
501
494
495
494
480
479
499
514
514
514
503
494
501
491
481
475
477
478
474
470
472
489
500
487
477
468
457
442
439
443
449
457
447
430
440
435
432
440
451
440
427
423
418
420
422
433
439
440
432
430
426
427
450
456
450
437
426
427
419
403
404
402
407
419
426
427
420
428
423
426
424
415
399
387
395
408
419
430
415
413
422
428
430
435
427
427
436
440
439
446
443
436
431
423
421
425
431
428
433
452
461
464
475
480
469
459
438
428
429
440
450
463
471
459
455
448
448
442
438
426
421
425
424
462
497
509
508
500
485
476
459
444
454
458
460
447
438
440
447
461
464
466
469
487
486
471
467
462
459
460
460
454
455
454
468
474
474
477
479
473
478
469
458
455
460
488
504
487
500
508
488
474
474
460
473
473
469
470
476
469
461
471
478
490
480
473
468
464
468
473
475
475
474
473
486
499
508
480
474
474
477
477
473
477
473
468
472
480
492
495
492
487
477
460
456
460
469
467
474
483
481
476
471
479
466
463
469
465
467
469
482
491
489
487
484
480
478
485
479
469
468
469
463
461
467
464
475
479
481
474
475
478
486
487
478
472
478
480
481
483
484
481
482
487
480
482
490
495
489
478
479
494
485
475
478
485
482
480
479
474
472
477
486
494
502
503
493
486
482
482
484
495
485
479
485
482
484
488
489
499
513
527
519
517
517
519
529
520
502
502
503
513
518
517
519
521
531
532
514
499
502
517
529
525
523
517
518
522
521
508
498
506
511
500
511
512
511
503
502
498
483
498
498
491
493
479
475
469
463
471
475
482
487
482
467
450
453
454
461
454
446
454
459
460
455
442
446
447
450
458
463
468
477
480
473
465
458
457
453
448
452
452
454
457
457
453
460
473
499
499
463
439
438
437
440
447
466
477
480
472
463
456
454
468
471
467
464
460
458
450
449
470
469
451
449
452
460
466
474
469
454
437
433
434
430
425
430
440
433
442
459
475
489
504
519
536
549
571
593
619
649
674
694
715
755
802
865
916
947
966
990
989
989
988
988
987
987
987
987
987
987
987
988
989
989
984
887
801
728
655
571
460
358
287
251
240
260
276
290
298
299
299
303
333
357
352
355
366
377
382
384
380
370
373
386
393
391
387
387
388
382
377
384
389
385
376
375
379
392
387
381
381
391
385
381
385
393
387
390
396
398
403
402
408
413
417
437
444
415
408
411
412
407
408
413
420
428
439
432
419
418
428
432
416
419
417
414
422
430
431
430
436
450
458
440
444
461
461
449
448
451
455
449
437
430
433
443
466
478
476
463
456
468
478
465
469
471
466
469
477
474
471
466
468
470
473
487
499
494
484
483
489
492
496
492
495
492
489
494
503
505
505
505
510
511
503
501
491
497
486
469
495
511
524
522
526
527
536
534
520
533
528
525
529
542
539
536
537
526
525
539
538
554
538
524
532
538
541
548
549
547
550
559
551
532
531
532
527
538
527
523
536
543
530
522
525
521
504
509
509
514
523
525
519
509
496
502
503
503
507
510
512
515
513
517
514
504
492
484
477
478
481
480
476
467
463
458
459
458
456
468
461
456
451
450
456
452
438
431
434
430
424
430
439
444
440
438
432
433
437
413
411
416
420
413
426
436
421
409
408
415
417
409
415
426
423
411
407
412
411
427
431
429
448
440
407
403
414
419
416
415
424
417
415
423
421
425
424
421
417
420
430
423
415
399
407
414
426
442
448
455
459
452
446
447
435
422
433
451
452
447
445
447
448
437
444
447
446
445
452
446
436
429
426
434
433
434
459
474
481
476
474
466
451
447
466
461
458
455
452
485
479
455
447
460
467
470
468
463
460
460
461
468
466
463
475
467
465
474
478
473
473
481
483
488
473
454
455
465
464
461
463
486
490
473
468
471
476
480
471
464
462
454
448
464
480
504
489
468
478
481
463
461
472
477
484
484
484
483
477
476
480
487
482
478
476
475
474
475
472
474
472
473
469
459
470
483
472
474
477
482
492
471
447
453
450
448
466
476
476
483
492
493
474
463
481
472
462
457
486
505
502
490
485
477
463
459
459
467
474
475
478
484
488
482
484
481
477
488
479
471
471
469
466
474
475
480
483
464
450
444
438
453
485
497
502
487
473
487
493
485
477
493
506
474
457
464
467
476
478
471
462
456
455
462
477
473
472
466
463
474
482
479
476
485
481
474
470
471
495
502
493
495
483
478
491
491
492
496
501
501
495
485
489
501
501
502
502
504
494
496
500
506
515
524
538
531
524
517
522
522
522
527
526
529
523
509
509
514
519
517
521
520
526
516
507
507
517
517
516
510
507
495
479
491
494
495
502
500
498
492
495
492
487
484
461
450
455
462
466
472
477
479
496
487
462
443
437
450
454
456
451
441
440
441
463
486
494
492
486
473
455
467
475
474
468
452
450
457
454
460
455
444
444
447
471
470
460
474
485
466
456
459
453
455
454
454
455
463
468
461
456
456
459
454
457
457
458
458
458
465
470
454
453
468
469
453
445
436
435
439
442
441
438
434
429
438
447
432
434
467
484
482
487
499
517
566
601
618
638
659
686
723
766
798
844
895
938
973
990
989
989
989
988
988
987
987
987
987
987
987
988
988
989
990
921
828
758
686
610
533
412
310
253
227
219
234
259
289
309
322
329
328
327
328
341
348
366
380
367
362
364
365
363
361
374
399
379
370
381
392
390
383
382
376
373
373
376
383
392
395
392
392
389
391
384
384
385
380
368
366
368
379
399
396
422
434
432
422
415
424
437
444
448
438
429
423
436
439
406
411
428
435
432
422
423
426
426
429
427
438
454
457
465
459
461
468
458
453
453
465
447
440
440
440
442
435
435
447
451
453
462
466
473
481
488
488
501
503
505
494
475
467
460
452
465
472
476
479
486
486
478
486
503
509
502
502
504
509
510
500
496
497
497
493
500
502
501
502
509
517
518
499
503
518
517
515
521
524
533
545
548
552
553
550
548
541
533
533
533
532
531
526
529
542
542
550
558
543
535
534
536
537
555
549
540
535
535
543
537
520
520
522
528
536
539
539
540
534
525
518
517
517
512
512
519
522
525
514
507
497
492
495
495
486
475
487
481
475
471
466
458
441
434
451
496
518
505
495
488
469
481
471
444
441
429
419
424
424
423
426
434
433
424
423
424
418
420
421
413
407
410
418
435
442
432
422
422
428
431
437
441
438
437
436
404
384
379
383
394
402
409
408
435
446
434
423
422
422
421
417
419
426
433
433
435
436
433
434
429
420
425
433
438
429
442
437
425
424
428
431
431
431
424
420
419
427
432
439
442
437
434
428
425
428
427
435
448
449
449
454
449
446
430
418
440
454
466
473
470
468
472
475
467
467
473
465
455
465
462
447
446
451
448
444
429
431
450
492
523
474
450
455
467
474
474
478
479
471
466
470
467
467
471
470
476
498
489
474
476
467
457
469
480
478
469
470
483
489
486
476
475
474
473
467
463
467
475
477
482
478
480
484
470
467
465
468
469
477
486
486
474
454
461
478
482
479
480
492
493
482
478
480
480
475
473
483
495
472
463
474
474
443
431
442
455
483
496
489
481
483
487
496
497
487
482
480
474
475
465
456
455
458
468
474
475
483
486
485
482
483
487
489
488
500
486
469
474
475
474
476
490
491
461
460
462
475
474
472
478
464
460
463
469
471
471
472
481
468
457
455
453
447
452
471
484
484
481
471
474
471
464
464
473
473
475
482
496
491
502
504
470
456
459
465
440
426
449
480
497
499
500
502
498
489
488
485
477
478
486
486
490
488
485
488
494
496
490
484
484
477
478
490
501
504
502
482
479
484
485
486
489
496
508
508
508
508
500
491
489
505
528
532
519
524
529
522
523
520
524
520
514
524
532
531
525
535
527
528
533
519
508
508
508
517
528
526
515
511
501
490
499
505
498
493
489
492
488
486
498
498
465
446
441
440
447
447
457
463
462
458
455
459
478
479
463
466
467
448
448
444
461
471
463
468
484
486
461
462
468
463
458
451
453
457
445
449
461
460
461
475
473
466
467
471
472
466
462
462
463
459
452
447
443
456
459
468
468
467
468
465
466
473
475
466
464
453
449
451
448
451
457
457
470
467
438
439
453
449
448
435
427
446
460
469
488
498
510
523
540
548
557
581
597
622
648
687
728
768
808
854
888
924
957
977
990
989
989
988
988
987
987
987
987
987
988
988
989
990
939
862
782
716
654
579
474
363
296
253
229
229
247
276
304
302
301
319
323
327
331
335
347
369
386
393
381
374
375
376
376
374
376
383
391
393
389
387
385
398
393
378
370
376
400
410
405
395
395
404
414
409
398
394
393
389
392
408
425
434
446
446
439
430
420
416
407
402
417
442
448
435
436
444
443
439
432
429
430
434
437
443
448
465
465
469
446
432
440
453
462
452
449
455
461
463
454
458
466
467
460
457
448
439
438
448
466
484
471
454
461
464
462
470
478
487
483
488
487
488
496
516
500
476
473
474
491
479
471
473
483
492
499
506
513
501
494
509
510
514
513
514
530
528
515
514
526
521
519
516
517
519
517
515
519
521
523
531
539
545
549
548
549
555
559
556
549
540
533
528
530
531
535
529
534
541
545
562
561
558
552
538
530
535
535
532
548
569
578
559
551
559
540
521
517
529
534
529
517
514
517
518
525
524
516
514
513
503
499
496
496
491
478
472
474
474
465
480
478
476
480
475
464
463
458
453
456
454
448
452
450
446
446
448
452
453
456
453
428
424
424
420
418
423
427
427
418
407
406
414
422
419
413
405
408
413
416
416
409
411
415
424
424
437
454
431
413
408
410
404
404
417
428
428
437
456
454
454
436
423
422
429
428
425
424
425
429
426
413
401
406
427
440
440
430
410
389
404
411
407
424
446
443
442
440
439
449
464
474
470
448
433
437
437
443
442
426
434
445
449
451
453
453
459
460
451
446
444
448
452
453
461
459
448
465
461
449
455
462
475
498
473
447
446
450
450
462
464
458
448
455
464
466
468
468
469
472
482
486
481
476
469
469
469
470
469
483
487
490
491
479
472
462
459
464
465
457
457
457
461
479
490
484
480
492
494
487
471
463
473
487
483
479
486
484
469
467
477
482
487
485
485
487
482
476
466
465
463
460
456
460
469
482
480
479
480
476
490
496
491
493
490
467
460
456
475
489
484
477
468
482
487
487
485
477
477
477
476
462
460
468
482
491
492
504
511
504
476
465
462
474
476
479
479
456
454
458
471
473
452
447
443
453
461
465
470
485
506
491
488
479
470
474
478
480
487
488
501
496
483
479
482
471
464
468
479
494
500
511
502
494
491
492
491
480
479
478
480
494
511
501
491
484
484
487
500
509
507
505
512
511
514
505
497
492
499
509
533
545
551
540
530
524
539
537
534
536
522
503
504
506
503
507
511
515
510
507
514
516
522
519
514
506
501
510
499
494
484
483
488
491
483
479
471
460
452
446
443
433
424
431
454
459
459
468
469
468
468
475
478
484
482
471
481
488
457
434
447
457
460
460
470
470
460
463
467
469
470
467
471
476
499
494
476
476
465
444
440
441
446
436
428
444
456
462
472
471
466
464
471
480
482
478
477
464
482
460
440
445
455
455
455
460
469
464
456
452
448
439
434
430
429
445
466
482
485
480
485
499
511
533
556
567
577
601
629
658
708
741
758
787
822
864
911
932
945
959
990
989
989
989
988
988
988
988
988
989
990
963
902
836
758
688
634
587
521
422
338
275
239
226
246
280
302
307
307
311
316
318
335
354
357
361
364
368
385
400
399
403
417
417
412
417
431
415
400
400
410
398
383
381
386
396
405
418
417
409
405
425
416
403
423
443
446
435
406
406
432
422
419
425
425
427
427
426
425
434
441
438
437
435
437
437
437
436
437
447
456
458
456
451
449
458
456
454
455
457
448
457
464
466
466
468
471
468
455
453
455
446
453
472
475
481
475
475
474
485
484
484
479
477
480
481
480
478
487
506
517
507
500
499
499
489
497
505
512
507
492
488
485
491
497
500
503
508
514
511
512
511
509
517
524
527
531
533
532
535
533
532
529
524
524
521
519
525
533
543
558
564
569
563
561
558
564
561
550
553
543
557
568
566
565
554
565
589
570
549
554
554
551
558
567
577
583
574
573
570
559
558
550
534
505
504
526
542
541
535
536
526
518
516
520
525
522
514
503
491
489
496
502
510
503
493
490
487
494
491
486
491
492
488
478
470
465
463
456
446
438
443
444
446
450
448
447
441
436
435
432
421
415
414
415
427
429
422
431
434
436
446
436
428
428
430
428
426
429
411
409
406
397
396
415
410
392
390
398
415
399
392
393
395
401
404
417
426
423
423
425
420
415
416
417
422
434
433
440
450
437
419
406
393
394
403
411
420
431
433
453
436
404
402
413
423
431
430
430
435
426
427
432
435
431
432
426
423
426
426
434
448
464
476
466
458
453
455
464
467
460
460
457
456
455
441
435
443
450
457
456
444
446
463
457
437
445
450
440
440
457
473
478
471
473
477
474
475
474
472
470
464
467
470
472
478
496
501
508
493
475
483
474
455
455
459
464
475
462
459
467
466
475
483
478
475
474
473
474
469
464
468
474
477
477
481
486
491
496
495
486
474
472
476
477
470
468
470
469
468
467
484
477
459
458
472
485
492
488
486
479
476
470
459
480
493
470
485
491
491
484
486
492
490
494
491
478
469
466
463
467
468
485
500
476
458
473
493
498
499
475
479
483
496
498
486
481
475
478
488
488
479
481
489
512
529
525
508
505
500
499
508
509
512
522
523
534
523
511
505
512
503
499
492
502
509
505
510
519
521
520
520
522
523
518
515
510
502
496
497
499
491
488
490
489
491
502
503
503
499
494
505
508
503
486
471
466
460
467
455
442
443
459
472
476
472
468
473
482
486
470
452
451
455
471
464
454
460
461
452
461
461
460
465
463
459
457
453
456
465
473
474
464
464
464
455
444
441
447
455
464
451
447
453
460
460
464
464
456
460
464
466
453
465
465
455
447
456
449
444
435
423
435
450
436
430
446
468
473
470
463
475
486
472
457
457
470
475
473
478
482
476
481
480
505
537
559
587
612
618
636
663
692
733
770
815
854
891
928
961
988
990
989
989
989
989
988
988
988
989
989
988
926
868
803
747
676
615
567
510
439
351
308
271
232
229
245
279
299
306
304
318
331
338
343
359
368
374
380
383
390
393
392
384
393
408
410
413
412
417
408
407
409
397
403
410
408
412
409
404
408
403
406
408
408
402
410
412
418
433
433
437
447
441
438
443
438
439
448
458
437
422
429
438
451
458
453
447
451
437
416
439
455
459
461
461
455
455
459
453
457
465
446
442
441
447
450
458
460
456
455
456
456
458
464
469
472
478
486
490
500
511
492
474
470
471
477
483
492
481
470
482
494
495
499
493
478
475
488
497
503
503
505
491
478
480
503
494
483
497
504
529
538
529
521
509
516
522
535
527
528
524
512
505
499
505
524
530
529
526
517
522
523
534
544
539
538
546
543
547
554
560
579
584
579
568
557
544
548
566
581
565
547
544
540
539
537
536
531
531
546
549
553
546
540
538
531
532
531
525
520
526
523
524
533
541
520
512
506
508
498
488
498
504
496
489
485
486
486
483
479
480
489
490
476
464
452
455
454
471
490
478
468
441
417
428
447
444
438
438
434
443
430
415
418
425
420
419
423
425
417
413
404
405
422
430
438
452
458
424
403
402
400
413
420
410
404
391
386
392
417
449
428
418
426
427
429
432
430
426
412
414
410
400
404
413
425
442
453
451
431
418
405
402
412
422
429
427
426
430
431
432
438
437
433
438
441
460
449
423
423
421
416
424
430
434
436
443
457
452
443
445
446
442
451
457
453
453
451
453
463
484
466
439
437
437
437
439
461
473
457
455
455
463
461
460
460
457
459
465
472
471
470
471
473
469
466
457
448
459
469
478
487
482
472
485
474
462
476
461
442
451
469
465
460
463
456
459
482
487
473
485
496
499
495
489
489
477
469
475
478
482
487
487
483
488
504
500
493
488
485
482
486
505
480
450
441
435
442
469
492
497
493
486
484
489
488
475
470
475
474
475
479
480
483
470
460
463
470
470
477
476
472
473
477
479
483
483
476
471
467
464
469
486
498
499
496
465
459
466
471
470
460
460
479
486
482
472
472
477
490
488
480
474
476
492
500
496
496
493
488
483
477
478
481
478
474
480
499
504
496
495
502
506
503
506
507
511
510
505
506
508
508
510
521
522
510
517
524
525
526
527
524
530
533
525
532
516
491
496
514
523
530
521
494
505
495
489
498
510
499
495
507
508
507
511
513
497
483
478
479
477
480
480
478
465
435
431
437
455
455
458
458
458
468
471
470
466
459
458
451
451
449
449
452
456
456
453
459
461
470
481
482
475
465
462
471
459
454
460
463
484
472
428
429
448
460
451
441
449
458
467
466
463
465
471
471
472
465
457
456
464
464
458
451
456
460
465
470
468
469
466
470
465
472
469
458
442
434
427
427
431
430
428
435
449
464
481
505
519
541
558
573
578
584
603
622
653
691
740
779
817
861
903
941
981
990
989
989
988
988
987
987
987
987
987
988
988
989
990
958
895
792
707
645
588
508
404
320
276
244
238
263
293
315
322
323
330
343
344
343
355
358
363
376
388
389
393
394
384
379
384
403
393
376
380
385
388
392
401
400
397
381
371
383
396
394
390
384
372
368
364
382
390
407
423
426
430
432
436
424
409
400
400
408
423
427
427
428
426
427
422
428
431
431
423
413
426
438
451
464
466
459
458
444
430
421
427
430
438
443
463
473
450
429
433
442
448
448
437
449
447
441
448
460
464
466
463
460
468
475
475
477
485
463
451
465
469
469
470
476
488
489
493
494
493
497
512
489
474
489
489
494
497
482
479
469
470
486
501
503
513
519
531
523
517
520
509
506
507
514
518
536
540
544
544
544
540
528
532
530
526
519
513
511
512
530
542
543
547
545
536
534
535
539
547
548
543
538
539
545
558
554
550
546
538
536
527
520
523
524
520
528
540
547
537
529
521
518
522
521
519
505
496
499
505
505
513
506
496
500
490
489
488
495
501
479
467
451
477
490
482
464
458
462
466
446
435
435
436
440
449
451
431
426
428
422
427
452
460
441
431
430
434
434
434
429
431
427
414
422
426
445
441
443
427
406
402
403
408
412
420
418
416
417
423
419
418
421
424
434
449
436
402
393
419
442
429
400
398
408
416
410
410
418
425
434
434
423
422
439
439
436
431
419
422
427
425
426
428
427
421
425
437
453
455
460
459
454
454
463
463
467
456
442
435
433
441
451
452
450
455
460
457
445
445
461
465
455
458
468
446
441
438
454
472
459
451
454
476
482
481
472
475
483
495
488
480
471
468
453
439
441
444
450
450
456
465
486
500
493
490
476
465
461
458
463
465
467
470
477
475
489
484
477
471
465
472
478
468
469
477
455
464
480
486
486
482
479
479
484
478
475
475
479
477
470
472
481
481
495
516
503
491
486
484
482
477
473
474
484
494
496
473
477
466
466
460
458
466
475
477
460
463
465
469
470
477
480
475
470
474
491
488
488
481
471
456
457
472
480
492
495
493
478
476
471
460
462
464
464
469
482
486
491
493
497
499
498
503
500
503
497
488
480
479
483
486
496
503
505
493
486
478
481
488
492
505
523
528
528
532
511
503
501
505
506
508
513
509
508
496
499
514
522
548
542
525
522
525
527
526
521
517
514
516
515
516
520
525
527
501
498
497
492
490
495
490
474
476
476
479
475
470
461
461
468
468
457
460
469
448
447
459
465
458
465
488
474
473
476
464
450
444
456
454
456
460
463
465
476
471
445
438
435
440
448
445
456
464
474
479
468
458
453
455
458
469
473
460
456
448
449
453
455
455
466
470
471
459
448
449
455
460
452
440
441
448
456
457
453
445
451
454
450
450
453
449
439
430
421
433
435
449
448
446
447
451
463
503
514
518
540
568
586
591
612
640
676
714
750
783
812
855
901
939
983
990
990
989
989
988
988
988
987
987
987
987
988
988
989
990
932
838
770
713
655
573
468
376
304
252
234
252
246
252
284
309
342
352
334
338
348
363
375
381
378
373
377
376
378
371
371
377
379
381
381
365
365
378
378
375
376
391
394
389
384
382
383
397
401
392
390
394
393
388
390
391
396
401
413
423
423
415
407
398
395
397
388
399
407
422
449
447
434
438
456
446
432
438
431
424
415
405
402
429
437
439
444
457
460
455
462
459
449
448
451
453
458
456
443
433
453
461
467
474
465
460
459
459
458
457
460
465
472
476
483
483
477
495
514
497
474
465
461
467
468
467
478
471
470
468
476
495
511
523
494
463
472
477
470
482
490
507
529
532
526
520
508
500
504
511
522
518
518
519
515
511
524
530
547
545
542
538
541
548
546
541
537
538
542
540
543
547
551
559
561
568
567
552
547
550
546
547
563
545
531
533
539
536
531
525
541
555
541
540
524
511
515
518
514
510
504
505
501
503
499
493
498
499
501
491
486
489
482
476
473
465
465
465
467
471
462
456
453
453
448
448
466
469
462
452
441
435
437
432
432
433
432
424
427
434
414
407
431
443
442
434
454
454
437
427
407
399
399
405
415
421
426
427
429
439
429
421
418
413
402
396
400
404
405
410
416
417
419
429
433
425
430
453
447
431
420
406
406
422
424
419
419
422
420
419
419
414
411
426
433
444
437
428
424
430
432
430
426
428
433
436
431
431
431
434
443
453
452
451
452
448
444
443
444
454
462
459
453
448
451
454
455
457
447
451
465
482
469
451
450
449
451
456
451
462
483
490
488
478
479
475
467
463
463
477
492
461
451
456
458
464
477
493
484
464
466
467
464
467
466
465
468
479
487
478
455
463
474
474
469
466
466
465
478
497
484
467
458
460
459
462
466
470
476
471
459
447
477
494
496
499
499
495
483
493
502
469
455
454
460
473
479
482
483
479
476
491
494
490
484
479
474
472
475
485
486
492
506
506
487
472
470
479
479
475
473
472
474
475
479
481
478
476
474
474
470
477
484
481
467
469
479
498
500
486
492
499
499
492
491
497
498
499
502
505
494
490
495
510
505
506
515
537
527
523
517
519
522
526
532
527
514
510
524
524
528
529
535
537
530
541
536
492
498
521
521
515
516
511
499
497
504
525
524
514
522
502
490
486
487
485
480
477
472
478
479
487
470
444
436
431
432
429
449
451
445
446
454
476
477
464
451
454
453
457
451
448
456
466
467
462
462
461
451
446
459
463
462
460
456
454
460
470
465
461
467
485
474
450
438
439
441
454
469
449
453
456
458
463
462
458
461
470
474
467
453
451
448
459
466
471
477
467
455
449
466
466
462
462
456
445
436
427
433
438
446
446
439
446
460
481
495
506
520
530
549
569
595
633
656
681
714
735
769
810
861
910
940
976
990
989
988
988
988
987
987
987
987
987
987
988
988
989
990
890
810
750
691
613
516
416
345
269
194
197
235
263
287
308
326
333
336
338
344
348
354
366
377
380
377
371
370
391
396
379
402
388
370
371
376
374
373
372
369
373
376
377
380
383
380
384
391
399
405
415
418
403
398
397
400
399
397
401
422
419
408
403
393
414
415
405
403
413
430
436
435
433
434
433
433
433
432
437
430
423
413
422
430
429
436
452
454
450
452
452
447
439
442
468
477
469
466
464
457
454
454
459
464
465
459
461
474
475
462
457
464
461
462
464
470
465
465
482
491
487
480
484
480
480
485
480
495
489
479
487
499
514
519
533
554
517
476
476
490
506
518
509
497
503
514
516
512
526
535
533
528
520
519
531
555
550
538
534
526
517
516
528
536
545
552
552
539
537
534
530
536
547
552
553
552
545
539
546
554
557
555
559
546
540
548
546
536
527
521
516
522
518
520
515
501
507
525
534
539
535
523
517
513
501
504
520
512
506
499
486
491
489
485
482
479
468
454
450
457
456
454
457
463
458
455
452
447
446
465
460
431
417
418
416
422
440
446
453
456
453
450
451
429
414
415
419
409
405
409
414
403
398
401
405
406
408
403
410
421
423
414
405
408
416
437
454
413
392
401
412
423
421
423
421
426
431
419
403
406
412
407
414
412
418
423
422
442
450
416
404
421
417
415
417
421
424
425
445
460
459
445
441
434
432
433
437
443
447
451
435
431
430
437
455
455
443
449
456
455
451
438
438
455
459
451
460
465
470
465
455
465
459
456
462
460
464
472
468
463
452
450
457
462
461
458
454
458
475
476
474
473
466
466
473
492
487
480
471
465
459
443
433
478
491
483
476
467
465
467
471
476
469
470
475
475
479
481
480
477
473
464
482
488
484
478
476
488
494
488
476
479
477
476
481
486
476
466
462
465
466
480
530
519
461
461
479
490
491
460
449
459
459
456
457
468
487
478
471
488
492
479
481
478
479
481
482
477
480
480
483
491
484
475
486
489
492
491
484
481
499
504
508
503
501
504
501
500
501
495
490
495
489
493
497
502
502
494
494
498
506
506
515
509
501
501
514
528
532
532
530
533
530
529
527
528
516
514
514
514
519
509
504
500
499
497
501
510
512
504
499
499
490
479
475
497
507
490
485
475
466
451
448
446
444
432
428
431
436
450
466
491
473
457
454
459
465
476
469
483
478
456
455
449
442
458
479
466
445
452
461
458
458
450
446
451
451
445
465
463
457
444
449
455
459
455
453
451
450
451
452
460
448
451
463
468
465
458
448
434
442
448
466
472
467
464
460
458
450
446
448
459
460
461
461
459
452
453
452
444
428
413
414
417
434
464
475
487
498
519
536
565
586
604
641
667
701
746
789
824
869
917
963
977
990
990
989
989
988
987
987
987
987
986
987
988
988
989
990
961
876
776
701
630
541
429
339
293
267
251
250
264
294
338
328
310
312
330
346
337
326
343
372
376
371
369
366
362
365
368
373
380
380
397
405
402
388
385
379
391
386
368
370
376
384
391
397
401
395
396
405
391
373
373
368
372
385
397
399
406
405
390
388
393
400
414
433
434
431
425
420
432
444
445
437
435
432
421
414
424
450
453
441
433
430
435
438
435
434
446
443
431
439
452
492
492
457
457
460
461
454
439
458
465
454
452
450
457
465
473
473
495
494
489
482
483
487
486
488
493
502
517
537
526
532
505
448
445
461
468
471
482
487
488
487
486
492
504
510
513
511
496
500
517
529
550
541
508
509
517
513
510
500
503
523
522
531
544
551
553
559
562
550
555
557
551
547
540
541
543
549
554
547
543
535
541
547
539
548
549
545
540
545
551
551
544
534
533
533
531
528
528
530
532
526
517
522
524
521
527
538
536
529
522
508
501
503
485
479
479
488
502
489
481
470
466
465
468
461
452
441
434
446
452
459
469
464
448
440
442
442
446
441
426
424
432
429
424
424
433
438
420
420
427
432
415
408
406
403
408
424
443
421
417
411
413
427
431
434
423
398
385
401
414
418
416
421
424
416
414
416
422
424
420
416
414
419
421
404
389
405
423
436
430
403
401
409
423
440
440
435
433
436
433
431
435
436
430
421
427
435
431
424
418
431
441
446
453
452
447
443
442
442
447
452
454
458
459
464
445
429
435
451
457
455
461
452
442
444
456
460
462
450
451
466
480
497
484
467
461
470
475
468
465
458
453
456
461
471
485
486
485
486
469
458
460
463
465
465
460
458
469
479
490
490
477
470
474
479
487
476
474
478
473
472
472
486
476
469
464
463
460
463
466
469
487
486
480
476
464
452
458
464
469
485
487
481
486
476
472
475
474
476
475
483
492
483
480
478
472
467
465
472
494
508
486
485
497
504
494
483
477
482
491
496
498
500
498
501
506
489
490
499
491
491
487
481
476
476
484
500
505
516
520
524
519
513
510
511
512
512
519
524
513
505
505
511
516
520
526
517
504
491
491
505
520
526
523
519
527
532
525
509
492
481
482
496
507
511
504
507
509
512
501
492
483
476
464
461
468
468
478
489
476
464
455
455
455
455
467
465
446
427
430
434
438
443
448
456
473
471
457
448
431
435
439
437
447
469
478
454
440
471
492
469
453
461
467
459
468
475
471
462
449
449
455
459
460
451
446
444
450
448
449
448
445
448
447
447
452
463
462
458
451
461
460
460
467
457
451
456
451
442
446
457
457
448
437
433
428
428
432
438
451
483
506
524
534
548
560
597
613
626
647
673
710
750
785
818
860
900
939
984
990
990
989
989
988
988
988
987
987
987
987
988
988
989
951
874
795
721
659
597
511
410
332
283
251
239
243
257
276
295
309
316
324
329
336
343
355
361
371
386
386
388
372
372
362
359
377
387
403
407
422
418
401
398
398
395
385
375
370
369
380
386
387
404
415
405
405
405
393
392
393
390
389
396
411
428
423
429
431
427
424
435
430
415
415
419
418
423
422
425
434
429
419
413
426
436
445
447
444
451
450
442
438
445
456
453
451
438
434
433
448
465
473
468
469
473
472
469
467
460
454
447
441
457
473
499
493
471
455
448
460
469
486
495
474
473
477
495
506
507
499
485
482
484
485
490
504
509
511
507
518
521
532
528
509
499
498
504
522
539
531
524
519
516
514
522
524
513
517
517
519
533
538
545
545
533
539
558
559
560
547
543
545
551
560
563
567
571
560
537
540
546
545
553
554
549
541
536
532
534
535
543
549
553
518
502
502
501
503
493
504
528
548
550
533
521
519
518
520
509
491
496
508
511
504
500
500
500
487
470
466
457
450
460
451
441
433
442
465
475
465
480
493
492
462
444
450
438
434
440
462
434
420
444
442
418
411
421
431
437
432
424
412
403
405
415
420
423
423
426
429
427
423
414
408
410
409
417
413
416
413
418
413
418
418
420
420
417
411
401
406
411
417
422
421
418
415
411
415
433
440
461
446
412
417
426
432
432
418
408
417
420
418
426
439
445
444
449
448
433
417
415
423
434
437
459
459
460
456
445
444
446
453
453
448
458
465
445
437
440
438
438
438
444
442
469
495
481
468
448
456
459
463
464
457
452
454
463
470
486
489
493
483
469
465
467
454
446
438
438
472
473
454
460
455
481
483
480
490
486
471
467
464
460
459
466
478
486
491
485
485
485
481
475
477
479
481
484
484
487
495
491
488
473
471
472
476
477
478
479
504
491
488
477
468
468
465
476
481
480
482
495
502
498
498
498
497
497
496
484
483
487
492
495
492
488
476
477
482
490
491
503
495
494
511
528
525
502
499
488
492
498
510
514
510
508
508
516
516
506
499
508
518
519
517
522
528
532
534
526
522
515
518
522
515
504
495
494
495
495
489
488
497
482
473
469
467
459
465
481
482
479
493
464
439
435
427
430
455
471
456
459
466
464
463
461
457
456
456
447
446
454
460
460
460
466
457
441
439
448
442
447
451
462
462
455
453
455
451
440
448
453
459
458
461
456
465
466
465
465
459
458
461
478
510
490
449
434
442
430
424
446
462
474
480
476
466
454
446
448
443
447
451
453
454
460
461
461
463
455
459
464
478
479
482
489
500
514
529
544
556
567
607
637
636
641
657
695
757
808
857
891
918
941
976
990
990
989
989
988
988
988
988
988
989
990
979
921
868
788
731
686
651
579
498
414
339
295
273
268
268
285
287
300
309
318
321
329
346
345
353
368
380
384
400
408
400
389
395
408
389
388
405
414
417
412
398
398
411
404
402
397
384
379
379
388
413
433
430
430
425
425
434
445
442
427
435
428
427
411
409
413
417
419
419
426
436
435
435
441
436
438
441
446
459
472
476
461
449
436
434
432
439
450
448
444
444
463
471
478
479
466
463
447
437
444
440
445
453
468
481
491
498
476
463
467
470
487
483
484
485
486
483
477
465
460
467
474
469
473
479
493
513
530
544
524
512
509
513
517
516
526
531
509
496
495
500
502
516
517
516
516
520
529
524
523
527
530
535
543
552
567
549
535
540
548
544
535
542
542
551
558
551
543
548
554
558
560
558
562
563
570
569
566
565
563
551
544
545
549
566
564
555
554
565
564
560
549
544
553
546
546
542
537
533
533
526
528
539
535
523
516
515
517
518
518
515
527
516
481
477
491
493
489
462
452
459
474
485
470
469
461
465
490
494
465
445
445
447
447
426
419
431
419
409
415
424
437
441
435
432
430
430
431
426
415
409
410
409
423
426
393
381
387
395
403
415
427
438
430
424
408
398
407
405
410
423
433
429
427
409
403
407
418
428
434
426
414
409
405
408
406
411
428
420
418
431
432
433
435
425
411
399
399
420
443
435
432
444
436
436
431
430
431
428
424
425
434
447
431
423
423
424
432
436
441
450
451
457
465
475
464
460
452
444
442
440
441
437
443
446
450
451
458
454
445
450
461
466
456
465
465
459
463
465
463
464
460
453
450
455
452
454
468
481
485
486
479
483
492
505
487
481
468
450
462
479
486
491
492
481
477
480
475
474
482
493
495
492
485
491
500
500
503
503
501
500
499
499
504
502
497
511
515
504
502
500
493
499
513
511
500
503
513
509
496
502
514
501
504
501
494
496
504
506
508
511
515
516
508
513
514
511
515
520
510
506
508
505
504
502
513
513
514
500
481
466
465
462
470
489
508
488
467
457
447
439
438
440
449
456
460
473
479
458
450
465
472
465
455
452
443
463
474
479
472
462
450
441
446
452
456
455
452
448
444
445
453
459
460
461
463
459
448
446
447
451
452
458
448
435
436
448
453
455
454
443
441
440
438
451
451
441
436
436
440
436
433
442
458
468
468
467
473
469
463
459
447
447
469
481
480
481
462
448
456
465
474
479
487
486
488
488
499
512
521
538
561
579
600
623
645
671
696
716
752
789
828
907
923
906
921
948
981
990
989
989
989
989
989
989
990
951
878
819
781
731
678
625
581
533
476
403
323
286
276
271
281
288
287
276
285
305
321
335
344
352
364
368
377
394
409
419
420
416
417
420
430
441
418
402
401
406
404
401
392
390
397
408
417
414
419
422
422
426
427
432
427
416
411
414
421
425
428
431
428
436
437
420
446
453
443
438
442
446
447
449
466
462
444
442
461
462
446
444
449
455
433
419
435
447
454
461
481
485
472
469
445
459
470
474
477
473
472
471
468
460
456
460
472
475
476
479
471
459
457
476
481
487
492
500
500
504
507
505
499
492
493
495
489
499
491
489
491
493
491
499
519
506
482
487
504
535
540
526
507
502
512
522
521
522
529
540
535
533
547
547
527
514
513
521
539
559
566
568
569
557
549
547
544
540
535
538
542
547
552
551
553
555
555
557
558
554
551
562
565
564
557
562
568
560
548
541
534
526
523
531
537
527
514
514
532
546
546
537
531
529
526
521
516
526
509
477
484
491
495
498
499
499
488
473
476
482
461
449
448
453
457
453
459
464
458
457
463
432
424
425
423
425
418
418
432
431
432
434
435
433
422
420
421
424
426
422
416
417
417
425
432
427
420
408
397
394
398
406
406
414
423
427
423
418
423
430
418
393
375
384
402
408
426
428
424
419
420
426
434
432
425
404
404
408
412
422
425
428
430
429
423
417
423
427
429
429
445
450
435
433
433
426
421
429
432
433
432
423
433
444
446
462
470
451
444
448
453
452
449
454
451
451
451
450
447
444
448
451
450
442
440
446
466
452
425
432
454
457
465
473
470
467
465
459
463
468
476
479
460
455
466
475
478
469
467
468
474
472
471
474
483
482
480
482
497
499
465
449
448
453
461
466
468
471
475
482
497
498
492
494
493
488
481
483
485
489
500
504
500
485
476
476
477
482
494
484
482
497
500
488
490
490
492
491
477
477
482
483
489
480
475
479
484
491
497
512
517
524
520
518
522
524
520
515
509
505
499
492
495
499
517
541
543
518
507
517
520
528
531
530
519
506
496
507
507
495
501
499
503
509
502
491
492
482
477
477
475
478
474
474
475
488
471
445
444
450
451
452
443
442
449
461
437
433
445
456
462
457
454
451
448
450
450
459
466
452
441
443
455
455
444
434
431
440
458
462
452
452
452
448
452
453
445
437
431
433
436
447
452
455
454
469
474
466
463
460
457
456
458
474
478
456
454
466
464
457
451
454
454
449
442
440
441
444
455
458
460
455
444
433
432
443
451
465
466
479
497
511
538
552
540
540
557
577
610
640
681
722
754
786
820
859
892
921
932
965
989
989
989
989
988
988
988
988
987
988
989
990
960
909
862
789
714
660
598
512
405
345
279
231
227
245
271
275
316
337
342
342
348
352
349
350
365
385
387
394
392
386
383
385
401
405
400
401
398
388
377
379
370
374
385
396
396
395
394
396
397
394
392
396
399
397
392
386
398
403
412
407
394
409
433
401
382
396
406
406
407
415
428
435
436
437
436
432
431
429
432
448
426
418
431
442
443
445
433
434
434
431
433
443
454
456
449
441
443
439
442
451
446
432
441
465
478
469
468
471
478
504
503
470
475
488
501
503
502
494
484
473
463
445
433
448
463
476
468
481
489
490
494
496
494
491
491
500
511
507
498
494
498
500
497
498
499
508
510
512
511
508
509
518
526
528
526
517
521
522
520
522
525
524
532
538
540
542
542
537
519
529
540
531
533
532
526
517
527
543
562
567
559
558
545
554
560
544
527
526
524
524
537
550
546
543
543
537
527
519
525
521
520
514
500
495
495
498
490
486
487
487
481
476
490
509
509
494
492
487
474
467
462
454
454
460
452
448
459
459
455
456
472
452
430
437
445
438
433
445
439
436
437
431
434
449
450
444
441
435
411
401
391
407
413
424
435
424
408
407
417
414
411
410
417
417
415
424
417
410
414
413
421
423
417
421
435
432
427
419
418
422
429
432
426
438
433
427
410
405
429
443
447
446
443
445
436
432
443
449
449
445
432
429
423
429
442
446
435
433
434
441
451
456
454
455
454
447
460
451
451
455
452
453
457
456
454
458
465
474
471
467
459
447
449
453
450
452
463
470
473
466
464
464
465
476
473
472
487
459
431
443
452
460
468
469
466
464
467
472
473
468
468
474
472
456
459
474
477
484
478
476
478
480
478
488
504
464
449
456
465
469
471
464
465
475
485
507
502
500
506
500
495
481
479
486
487
489
494
485
470
462
471
478
477
485
491
492
480
483
505
513
500
475
489
510
513
507
502
497
489
487
484
481
473
475
481
501
516
517
519
516
515
515
514
516
524
522
528
544
525
516
510
510
519
530
539
544
530
515
514
516
505
500
495
492
513
522
503
488
492
499
494
502
509
502
491
490
481
480
466
463
481
475
454
453
438
431
439
442
446
440
435
438
440
445
451
459
458
458
456
453
463
473
483
477
460
454
461
477
470
465
444
432
440
442
439
444
445
448
459
464
453
449
466
462
451
445
452
458
460
458
458
462
464
472
472
472
461
451
451
442
437
433
438
441
447
452
463
459
461
465
467
472
461
442
456
463
454
446
441
443
444
452
460
470
493
505
523
533
531
533
563
595
619
648
683
728
760
806
838
869
898
943
985
990
989
989
988
987
987
987
987
987
987
987
988
988
989
968
892
815
750
694
623
552
427
333
286
258
256
258
271
288
306
327
341
347
345
355
365
375
379
383
379
384
377
365
369
367
375
381
385
391
382
376
377
397
402
388
368
366
368
366
364
369
372
381
391
397
393
378
369
378
391
391
393
408
410
412
416
413
397
393
410
418
419
419
431
437
435
428
411
404
397
401
433
457
451
441
433
430
431
429
436
438
433
433
441
453
449
443
438
446
449
455
458
482
466
438
427
430
439
467
476
460
452
448
458
466
476
475
477
494
482
465
463
471
478
473
468
480
479
489
492
482
483
483
488
490
489
491
483
484
491
505
508
504
498
515
513
496
495
505
511
511
507
495
502
508
522
522
517
519
523
530
537
541
538
541
543
536
532
531
527
522
528
530
534
534
534
530
549
562
575
570
549
544
546
554
560
560
554
547
540
540
542
543
556
552
543
540
531
528
536
525
512
508
513
512
505
515
514
510
515
507
500
492
491
486
494
485
479
476
472
470
468
471
476
482
457
452
463
449
447
439
437
431
432
434
435
434
454
444
428
419
417
421
418
415
408
403
407
410
417
428
431
420
418
425
434
425
399
404
421
434
443
429
408
401
407
410
412
412
410
415
414
407
412
423
425
417
419
424
432
420
425
438
428
426
424
425
436
444
437
432
434
432
441
444
443
448
442
440
445
446
448
465
459
448
433
406
407
402
409
448
449
438
460
457
439
428
422
418
431
456
442
427
440
460
466
471
456
448
457
457
450
432
430
438
451
465
466
484
467
451
447
452
453
456
461
464
456
447
450
465
473
476
487
488
482
483
487
488
473
464
466
471
467
471
476
487
489
487
485
477
461
450
453
451
445
462
479
487
487
481
491
485
480
471
473
476
482
482
484
481
473
465
467
465
473
484
478
476
472
480
481
484
464
447
447
458
469
468
462
465
474
478
484
499
507
515
506
487
487
498
509
505
490
476
479
483
482
486
490
493
494
480
481
489
491
495
496
487
477
479
489
499
493
493
509
510
512
522
525
520
514
508
512
509
511
517
515
516
520
522
507
503
515
523
521
519
529
541
548
522
509
511
519
531
537
505
487
484
482
478
481
490
492
500
506
509
511
492
472
464
454
446
465
472
475
468
459
460
459
460
467
471
464
457
475
477
461
444
443
452
452
445
460
471
473
467
461
455
448
453
463
464
453
441
441
451
476
474
453
452
454
446
449
461
464
453
453
451
454
452
448
462
466
453
442
434
440
452
456
454
456
446
444
451
452
453
462
479
458
434
441
444
442
447
446
452
454
446
466
442
407
391
390
428
458
471
480
499
514
526
535
556
567
575
577
592
613
638
677
732
773
802
855
904
938
982
990
989
989
988
988
987
987
987
987
986
986
987
988
988
989
983
905
828
760
686
586
461
357
298
255
237
240
260
288
318
316
310
315
328
349
362
358
354
345
343
350
349
358
362
369
371
363
369
370
366
372
374
379
394
400
393
399
396
385
375
379
405
415
404
373
380
381
370
372
381
391
399
394
386
398
407
407
407
405
409
423
421
408
407
406
407
404
417
431
440
439
433
431
440
433
418
413
427
438
435
423
408
413
430
441
446
454
457
454
452
445
429
435
447
440
437
449
456
456
457
466
459
448
453
476
483
469
461
442
441
460
479
482
476
472
455
449
451
477
494
487
486
492
492
488
509
512
506
499
500
507
516
507
495
502
505
501
502
503
503
508
512
521
527
530
530
523
519
520
525
534
537
540
548
526
528
531
525
515
505
523
538
540
545
537
544
546
539
542
552
540
539
543
548
550
546
549
547
539
542
545
538
537
542
551
554
551
553
545
537
534
527
516
511
498
496
502
510
507
504
502
500
490
485
495
506
516
511
489
480
482
472
466
467
466
465
484
481
469
463
464
463
461
455
443
452
450
444
439
434
428
435
455
453
417
408
412
420
420
418
415
409
410
415
408
409
413
423
421
414
415
420
420
417
424
417
410
399
393
392
399
408
412
413
412
410
410
406
415
440
452
427
404
403
405
425
432
432
436
431
421
409
410
415
430
445
439
442
453
457
452
439
432
421
411
417
423
430
441
456
471
467
457
471
464
448
436
435
440
442
445
461
476
459
443
442
438
437
443
451
452
448
441
446
460
469
471
468
472
480
472
471
459
445
447
450
465
466
465
463
459
449
441
442
459
472
466
465
473
476
464
459
456
461
471
471
468
470
462
464
477
483
486
480
481
483
480
476
474
481
481
480
479
471
468
461
475
474
476
481
481
482
480
476
472
477
481
480
491
493
477
461
449
452
463
467
475
481
489
479
462
452
460
472
474
484
486
490
483
472
472
475
467
458
445
452
481
499
495
480
472
478
482
481
490
494
481
473
471
469
465
471
476
475
472
469
475
476
473
478
483
484
478
477
477
476
478
468
459
461
467
476
487
499
498
500
503
494
493
490
491
494
498
495
494
502
494
496
498
498
484
482
492
504
513
508
507
526
531
527
518
509
509
510
510
523
532
539
544
542
541
533
528
525
525
521
523
520
505
505
498
501
490
485
495
498
504
501
492
491
491
500
493
476
478
478
480
479
482
470
458
446
436
439
453
486
469
457
461
420
419
429
442
456
477
480
474
467
470
463
458
447
438
448
468
482
480
471
466
463
461
465
468
460
458
459
462
453
460
459
447
439
442
454
459
472
473
455
443
443
448
458
462
474
469
457
458
465
467
465
460
457
460
459
459
454
441
435
442
449
452
453
454
446
434
432
439
434
432
427
423
435
447
442
441
447
470
499
538
563
574
583
613
651
660
692
746
802
845
862
888
935
973
989
989
989
988
988
987
987
987
986
986
986
986
987
988
989
989
945
855
773
696
608
480
368
286
242
225
234
253
288
315
308
310
318
339
343
337
344
362
377
383
368
363
362
360
357
357
360
361
358
354
363
368
360
364
375
374
370
371
388
401
410
415
403
387
380
368
364
369
365
365
373
391
406
412
407
406
405
404
405
415
430
423
412
405
398
407
401
403
411
414
422
427
418
418
427
434
433
435
441
431
412
406
408
431
436
426
428
442
460
460
438
440
452
446
442
451
467
472
466
461
458
454
462
467
483
475
458
455
450
450
454
455
449
460
466
467
478
489
494
486
485
483
488
492
494
504
509
507
500
495
491
490
498
502
499
506
530
523
491
484
498
513
521
526
519
523
510
504
504
515
530
539
537
527
523
520
524
534
534
535
536
551
553
539
527
520
529
534
534
529
534
536
533
524
531
532
535
540
554
549
539
532
538
539
526
520
536
532
524
538
537
538
540
526
531
523
512
508
507
501
495
508
513
508
489
478
488
489
490
483
483
487
484
479
488
482
463
459
467
464
458
450
447
444
438
444
446
444
444
442
427
409
409
428
439
447
425
408
403
407
416
424
421
419
416
411
420
420
411
415
421
426
421
415
427
430
407
399
397
403
405
409
421
427
421
419
425
421
403
403
419
418
407
398
401
416
425
429
435
436
427
417
414
415
417
428
441
448
464
467
458
451
435
414
415
421
418
435
443
446
451
452
435
416
419
424
427
435
446
454
459
451
457
457
460
458
457
463
459
463
461
456
454
456
457
459
461
461
459
465
454
448
441
437
463
471
470
464
451
439
451
470
478
489
495
494
493
482
472
457
449
456
457
456
464
464
460
464
471
471
471
473
474
471
476
479
482
460
457
458
464
474
479
479
476
478
482
481
479
479
481
483
476
471
457
455
457
454
464
486
496
511
508
493
493
506
495
469
468
475
472
472
473
473
470
476
478
476
473
471
470
473
480
482
477
469
467
472
472
475
480
479
482
485
488
483
484
493
462
454
476
479
477
473
466
466
465
466
474
492
474
444
445
449
451
452
456
459
458
470
491
503
487
470
463
469
472
475
480
495
490
481
472
470
467
469
472
475
471
467
470
471
484
481
477
473
479
478
477
470
472
472
474
484
502
522
523
511
493
483
482
481
478
469
479
491
486
489
489
479
471
475
488
498
493
491
497
482
468
498
517
505
489
487
498
509
508
493
501
513
532
540
534
541
522
512
509
514
520
525
528
522
498
493
501
507
512
514
520
513
509
510
504
507
506
499
499
501
503
502
503
505
502
502
499
490
488
481
467
453
449
457
467
476
475
472
481
480
474
469
466
468
466
467
465
458
458
465
466
469
473
478
481
471
450
448
449
448
449
453
462
466
459
452
454
449
445
442
440
444
450
460
466
465
455
460
476
480
489
483
470
460
440
426
429
428
447
471
465
454
450
450
459
468
467
452
448
455
462
473
477
472
467
461
463
466
465
481
464
455
437
422
443
467
487
488
500
529
561
576
587
607
633
665
709
753
793
830
867
910
954
990
990
989
989
989
988
988
987
987
987
987
987
988
988
990
981
914
847
776
716
643
564
466
350
271
235
229
238
255
276
290
304
305
323
333
346
360
366
376
378
375
377
389
387
384
386
392
392
392
397
398
395
394
365
351
367
373
387
404
400
389
379
392
413
420
405
399
398
399
395
394
407
418
421
421
424
423
412
402
400
407
413
420
426
432
461
437
412
398
403
428
439
439
437
432
433
439
435
432
426
426
433
438
442
446
447
453
454
451
455
455
456
450
451
459
460
456
449
448
455
457
460
466
463
469
472
477
480
505
512
496
485
481
482
476
472
471
483
492
498
502
498
498
493
499
507
519
521
512
510
504
518
504
478
476
493
521
515
506
498
495
503
515
517
519
521
526
533
532
537
530
527
531
538
541
539
544
558
565
539
526
527
538
540
545
559
545
535
549
559
554
561
560
560
537
533
542
554
558
549
545
548
553
547
545
543
532
523
523
529
534
543
538
536
535
530
525
516
513
518
525
524
527
521
504
497
490
490
497
501
508
501
500
485
467
463
468
468
468
465
461
466
452
444
448
442
440
448
453
453
449
443
443
446
444
439
441
445
444
435
427
416
411
402
406
402
397
409
436
433
416
423
420
413
418
423
423
419
426
441
427
392
393
404
418
420
414
407
407
413
415
415
411
416
415
409
417
423
422
422
427
427
431
424
424
438
438
418
418
439
471
432
399
408
416
420
428
424
418
416
418
433
440
445
454
459
449
433
422
425
448
440
443
459
468
461
455
452
465
456
438
442
445
440
450
468
489
465
454
453
451
447
443
452
466
462
457
461
465
473
474
469
468
466
475
470
454
448
451
452
443
460
487
489
480
472
466
468
472
477
475
468
477
477
476
472
476
475
475
479
497
482
455
458
461
464
462
471
480
488
492
481
488
477
459
454
457
461
473
495
494
493
493
480
475
476
481
483
481
476
474
476
483
477
466
469
480
504
482
466
472
495
489
463
463
467
467
471
473
483
484
477
477
463
456
458
465
474
483
488
481
470
461
466
463
460
468
476
489
501
505
512
512
499
490
494
495
497
504
503
492
487
477
483
500
507
486
481
489
498
489
485
491
491
480
471
481
477
482
507
521
513
506
518
529
529
515
518
529
521
528
534
521
507
510
519
522
530
533
536
548
537
515
501
499
507
511
514
505
497
506
499
498
496
493
493
490
482
485
483
468
464
469
469
462
457
459
457
474
484
469
437
439
444
449
454
465
460
438
437
454
460
459
461
467
450
432
425
435
448
456
467
477
471
474
484
487
486
476
465
457
451
444
453
456
445
436
451
483
487
496
495
467
458
457
459
459
465
471
468
471
463
458
457
456
453
453
448
447
450
454
458
459
449
444
452
473
467
456
455
450
461
446
434
442
453
464
470
480
494
503
517
538
543
560
585
610
628
651
683
719
754
785
822
853
889
923
957
985
989
989
989
988
988
988
988
988
988
989
990
948
895
826
760
689
633
582
522
443
375
337
304
289
285
293
289
292
303
317
318
339
372
375
375
380
385
376
374
383
416
418
392
384
389
385
395
403
407
417
417
411
407
403
399
393
391
396
406
421
420
414
412
401
398
405
416
422
430
432
425
422
416
406
421
439
445
438
435
429
425
423
422
425
417
416
419
445
453
447
444
454
461
457
461
459
452
448
448
447
460
464
469
481
450
439
446
450
447
447
465
474
478
468
466
464
462
471
478
482
486
491
477
461
470
487
493
491
477
481
486
491
495
493
489
485
491
491
498
522
534
553
539
496
481
481
480
492
502
514
520
521
522
519
529
527
528
534
529
527
527
525
524
529
530
539
546
549
553
556
556
554
550
544
546
539
541
539
539
539
552
568
590
595
592
592
582
576
570
556
550
548
549
543
552
569
570
568
572
569
559
558
557
558
553
560
563
560
560
547
533
529
532
531
528
513
508
522
521
497
494
499
499
495
495
491
479
475
492
492
481
477
466
462
457
454
455
455
456
460
470
492
469
434
418
398
400
416
420
408
422
436
412
417
441
432
413
406
412
420
413
412
416
420
419
426
418
411
414
415
422
422
413
407
407
403
400
396
395
394
399
416
424
424
419
413
403
400
405
417
411
413
419
415
414
416
418
418
413
414
410
407
400
401
395
406
421
425
429
435
425
421
419
412
413
416
427
417
412
423
431
432
438
441
432
421
414
419
413
406
398
413
435
452
461
456
448
432
425
440
451
456
466
474
474
474
469
468
476
467
454
454
449
447
455
458
454
453
446
452
464
464
459
470
470
465
461
454
456
471
471
472
473
462
460
463
469
481
486
485
480
478
469
466
473
466
480
475
448
459
464
464
476
481
472
462
462
461
456
455
463
477
490
486
468
460
471
477
472
449
447
482
491
485
490
488
481
479
480
481
484
477
483
492
475
465
483
481
473
467
468
474
470
460
459
455
456
453
457
468
481
513
528
517
498
481
478
481
481
484
493
499
489
476
477
473
477
486
483
491
491
480
483
493
493
488
483
480
492
501
497
492
490
485
487
486
478
476
478
481
487
497
514
524
531
525
495
490
497
520
533
530
509
507
513
519
520
536
526
507
508
502
507
519
520
522
519
512
494
480
477
487
496
495
495
491
508
501
492
496
487
481
469
461
458
448
439
441
444
448
448
447
445
440
445
439
440
454
475
473
466
446
444
467
473
476
480
480
471
462
459
462
475
473
471
460
454
452
455
457
444
423
427
444
449
454
451
454
458
470
483
491
484
479
477
467
463
461
478
471
444
451
462
465
458
458
453
456
454
452
436
436
439
443
451
451
451
455
453
449
445
436
427
439
447
446
447
453
457
473
473
483
501
520
542
564
580
589
609
637
680
724
762
797
827
881
924
954
968
976
990
989
989
988
988
988
988
988
988
988
989
990
931
872
783
718
677
600
532
449
366
311
278
252
268
274
287
308
328
332
342
355
360
372
378
385
389
398
399
396
385
378
374
373
375
382
386
389
389
400
409
409
402
407
404
399
396
396
396
395
392
400
403
395
403
410
407
400
406
423
428
428
426
435
442
434
391
377
387
398
401
408
424
423
430
437
443
436
424
418
418
425
427
419
430
424
414
425
435
442
449
456
454
440
437
443
458
480
487
469
463
457
442
433
438
449
471
484
486
483
485
486
479
465
467
468
460
463
468
471
480
480
479
485
482
476
478
488
501
503
497
496
497
484
500
503
510
511
502
496
490
490
492
499
495
498
504
508
513
512
509
507
494
493
507
524
529
528
516
511
518
527
528
526
521
526
532
528
531
536
539
540
552
553
554
554
549
544
540
549
550
566
570
545
530
534
549
563
565
562
579
561
538
537
521
506
511
521
533
527
516
517
535
531
493
485
485
491
515
520
509
515
513
497
501
501
499
493
487
488
492
485
486
480
463
465
467
449
449
452
452
450
442
435
444
443
436
437
441
446
447
433
412
419
433
430
426
428
426
404
406
424
428
417
416
416
420
419
417
416
417
421
423
427
421
420
409
409
416
417
411
402
406
409
425
448
432
422
414
411
407
414
420
419
420
422
420
410
405
411
413
423
428
433
452
459
451
442
435
426
431
435
435
445
446
448
443
437
432
451
464
460
446
418
422
449
444
436
444
443
443
452
461
465
467
458
445
436
432
433
450
465
471
458
447
441
437
441
439
434
436
431
422
446
451
438
439
447
452
463
478
488
492
496
498
487
482
477
465
462
472
487
479
493
471
453
461
468
466
467
468
479
487
484
485
485
481
482
481
484
484
483
487
484
467
460
462
465
464
466
472
478
483
476
471
475
487
504
494
491
508
486
454
461
477
486
472
457
465
480
494
474
467
468
473
462
463
464
456
463
478
483
483
487
486
479
477
469
459
453
450
443
441
440
470
486
514
508
498
499
497
492
489
489
483
489
490
482
484
486
484
480
471
470
477
472
471
482
494
502
494
492
497
501
495
495
500
486
470
472
485
487
482
481
492
486
472
491
506
520
516
519
518
525
523
518
518
522
521
518
512
511
509
507
508
507
515
523
524
521
515
514
519
526
509
502
504
490
495
501
516
512
492
486
506
515
517
509
482
476
477
477
483
486
472
461
454
456
446
432
431
435
441
434
442
453
468
477
490
495
492
490
481
470
452
448
456
455
460
465
465
466
460
452
461
464
465
463
457
451
449
448
452
462
467
471
466
456
452
457
459
469
467
462
462
463
453
454
453
452
458
462
473
480
455
437
448
461
451
436
437
455
495
502
476
450
455
443
437
441
441
426
423
426
425
425
436
443
442
446
455
472
493
511
529
566
599
614
638
663
691
723
765
811
855
891
925
962
990
990
989
989
988
988
987
987
987
987
987
987
988
989
989
985
911
834
743
668
590
479
376
307
279
260
254
269
301
320
324
326
331
340
352
365
365
380
399
396
385
388
375
367
367
376
385
389
379
372
366
361
358
354
365
384
384
382
383
376
368
362
366
392
411
396
409
410
393
392
398
404
411
419
403
402
413
399
390
385
389
406
414
415
425
420
417
416
416
423
442
445
397
387
394
400
409
415
430
419
412
421
432
445
455
452
451
453
459
464
461
464
456
445
459
468
457
452
447
451
456
462
469
479
485
475
471
462
456
456
449
444
449
451
457
485
485
489
490
491
484
481
488
490
489
484
492
489
481
473
488
503
507
507
504
503
495
499
501
500
504
513
507
508
505
502
510
533
534
519
522
528
531
534
538
542
533
529
530
534
538
542
534
539
536
523
525
534
530
517
516
518
519
523
529
557
572
571
570
572
582
573
540
533
556
559
515
497
506
516
525
533
539
544
540
538
521
506
492
489
496
501
505
505
504
495
499
491
476
488
491
481
468
465
466
470
466
465
470
463
447
440
439
443
431
428
444
459
461
460
448
436
433
428
425
432
438
450
423
406
406
411
414
410
406
405
408
417
410
406
418
434
431
424
419
432
432
426
430
443
457
416
386
391
405
399
399
406
414
418
423
417
410
412
411
412
415
421
424
425
427
432
436
436
435
431
442
446
441
436
427
417
416
421
434
455
463
426
403
422
441
430
425
430
436
437
444
448
442
435
449
466
467
460
456
458
458
455
444
443
448
447
446
453
459
454
452
444
429
447
456
456
465
473
472
473
463
457
457
467
480
486
480
461
450
443
450
453
458
457
445
460
487
489
473
474
465
463
469
469
466
472
481
486
483
470
472
470
468
468
480
490
494
491
493
477
453
442
455
468
465
466
482
498
499
479
477
474
464
461
463
465
467
470
475
484
479
477
486
506
489
468
458
451
453
462
475
479
499
502
474
471
473
460
459
479
484
477
493
504
501
497
479
469
465
470
472
479
476
462
465
468
476
477
467
472
473
473
467
464
460
466
474
468
468
475
483
490
488
489
500
499
484
494
506
485
470
468
470
483
488
480
473
476
487
499
508
503
491
492
491
478
464
455
463
481
488
486
485
483
479
476
482
485
494
500
498
497
496
504
518
516
511
515
512
509
513
518
531
542
537
529
531
521
512
512
522
521
522
527
526
530
539
512
491
503
533
526
536
494
475
484
493
492
496
504
511
501
495
494
497
496
493
483
482
468
450
439
452
458
459
453
454
447
440
455
466
469
482
477
475
469
455
447
446
447
436
433
440
461
480
481
477
465
460
446
460
469
464
465
463
461
463
461
456
458
451
453
466
448
434
443
451
446
434
426
461
484
489
464
442
452
465
470
471
460
450
455
451
443
447
461
475
480
486
479
470
465
457
443
438
437
444
442
430
410
408
424
448
497
511
509
512
520
538
549
571
593
621
658
700
747
787
819
852
883
913
950
990
990
989
989
988
987
987
987
987
987
987
987
988
988
989
990
932
848
770
706
647
534
408
314
262
244
262
272
278
296
309
315
310
308
316
336
345
351
370
404
392
369
351
356
367
377
378
372
393
394
387
375
372
373
371
365
369
384
388
392
393
399
382
366
370
381
382
380
387
386
389
399
405
411
414
411
411
415
411
407
400
396
419
424
418
405
399
417
437
428
421
425
430
430
430
430
435
444
441
427
423
432
434
435
432
429
424
418
422
433
444
453
451
453
458
466
466
459
451
456
474
483
479
477
467
455
451
450
450
473
491
488
475
463
467
473
475
490
488
472
469
468
471
483
487
486
479
472
487
503
517
524
518
522
523
505
490
488
493
509
503
504
505
506
507
511
512
515
518
515
519
527
527
529
526
528
534
533
520
522
522
525
534
546
551
556
554
549
549
548
552
550
547
562
555
553
552
551
556
553
563
560
533
545
546
530
534
530
532
533
523
519
527
523
515
513
514
512
513
521
525
520
518
505
503
505
501
488
473
478
487
487
493
497
484
476
477
473
464
470
465
459
457
452
419
409
417
419
424
429
430
434
434
432
432
421
413
417
419
438
457
443
424
431
432
417
394
381
374
380
402
420
432
422
415
424
430
423
419
422
430
428
395
391
396
400
410
422
421
420
420
414
409
404
413
428
436
435
432
426
425
427
425
430
449
443
423
421
432
445
449
435
428
442
410
400
415
439
458
456
433
423
427
426
421
425
420
433
450
454
459
456
458
448
441
442
447
448
444
442
445
452
450
435
432
431
439
447
456
467
470
467
447
434
447
448
448
458
453
450
443
443
456
464
476
499
503
491
484
475
482
499
482
470
487
484
470
468
468
471
484
479
476
487
490
488
474
456
454
456
467
477
479
476
479
476
472
469
466
477
486
487
500
495
470
459
462
473
477
470
464
464
463
461
470
488
486
491
491
473
463
468
478
487
471
459
464
472
484
489
491
473
461
456
451
447
442
455
466
481
497
494
485
478
482
490
491
495
496
496
487
478
464
455
460
481
492
490
486
489
490
489
484
474
469
468
466
462
468
487
492
479
476
471
470
469
466
467
460
454
484
501
478
467
465
462
462
478
478
482
492
481
482
482
476
482
486
485
489
503
502
490
489
486
485
482
480
478
485
487
492
496
487
483
476
480
490
508
519
520
522
503
488
502
504
510
514
529
534
523
519
525
525
527
528
527
524
530
517
509
497
504
515
514
536
549
532
515
511
504
493
503
509
508
507
499
489
478
486
503
507
494
478
479
481
482
473
459
457
454
451
451
460
460
461
460
458
458
459
470
473
463
469
464
468
469
465
460
465
459
457
466
457
459
457
463
468
469
455
452
448
437
436
445
445
447
456
451
444
438
438
450
458
465
468
466
469
466
455
451
455
456
456
458
448
451
464
463
473
481
483
491
471
460
459
455
457
454
450
458
454
442
434
435
436
436
433
430
431
434
444
460
479
502
509
518
538
561
581
619
653
653
664
701
744
789
834
882
919
951
988
989
989
989
988
988
987
987
987
986
986
987
988
988
989
990
921
852
787
709
647
555
440
324
257
217
210
231
262
292
318
325
332
325
321
331
341
352
360
365
379
378
371
372
374
375
372
375
380
379
370
369
371
380
386
378
384
385
358
357
372
377
381
395
414
415
410
406
399
395
387
388
406
410
408
410
413
416
428
433
394
382
390
406
423
423
417
403
401
407
418
427
433
438
437
439
442
441
430
414
414
428
441
441
440
450
480
477
463
450
438
433
433
445
471
459
454
456
463
467
472
471
477
475
471
462
460
459
452
451
457
465
470
471
475
483
501
500
501
515
519
499
481
476
475
475
482
489
497
496
490
478
478
483
491
492
489
492
507
516
518
515
509
509
514
513
505
507
518
520
520
522
527
534
539
546
547
546
543
542
542
539
542
552
559
557
557
546
541
548
545
542
549
554
538
540
542
538
547
557
565
555
543
537
541
538
549
551
549
547
533
527
528
526
527
509
490
507
509
520
537
540
488
473
485
492
490
486
481
480
481
487
488
483
477
476
460
451
450
458
459
456
452
448
450
441
428
422
422
425
433
449
453
448
437
438
438
425
406
419
415
408
409
414
410
411
409
416
423
424
419
417
418
425
428
428
412
404
403
412
421
426
429
429
436
424
404
404
408
410
413
415
427
431
429
424
415
415
419
419
419
428
429
429
437
437
428
412
413
418
420
430
442
444
441
438
429
426
419
412
420
439
449
448
440
435
441
449
452
450
449
439
429
430
437
432
438
448
448
448
449
455
450
449
461
462
453
453
453
451
455
454
465
468
461
469
455
453
456
480
488
457
426
431
451
459
459
466
476
483
487
476
467
460
458
466
482
489
486
490
475
464
467
465
467
463
461
458
463
462
461
479
489
491
486
482
477
482
481
476
480
478
475
477
477
474
479
480
479
482
486
482
472
470
471
479
484
497
510
506
474
466
472
474
459
457
478
477
473
479
493
489
478
477
474
476
484
490
489
479
463
457
444
450
466
472
471
