448
450
451
452
453
456
457
456
457
462
465
464
465
465
464
467
472
473
474
471
473
472
469
469
471
479
488
493
494
491
490
490
493
496
496
498
502
505
505
507
509
512
512
512
513
515
516
518
520
520
519
523
531
537
538
536
537
543
543
542
542
544
550
551
553
558
562
565
565
568
567
562
565
568
569
567
568
567
570
573
578
578
577
574
574
571
568
569
571
566
563
564
565
563
559
552
547
543
540
540
541
539
536
536
533
532
529
525
523
523
518
514
510
505
501
494
486
483
482
476
470
464
458
459
462
458
449
444
443
439
432
426
421
421
419
418
412
407
407
405
402
400
396
398
398
397
394
388
384
384
383
382
381
382
380
378
378
377
379
379
378
378
379
379
380
382
378
373
374
375
377
377
373
373
379
382
381
379
383
385
386
385
384
385
386
388
393
392
394
400
402
397
395
395
399
404
408
406
407
411
413
413
412
407
409
412
416
417
413
410
413
417
417
417
419
427
430
426
421
424
427
429
425
425
421
415
410
409
413
418
424
432
433
430
431
433
438
438
430
422
426
430
436
441
440
447
451
450
447
442
437
438
434
433
432
429
425
432
436
428
420
419
419
439
451
445
427
425
426
428
424
435
436
446
467
475
478
477
482
480
460
466
470
470
460
455
449
463
462
474
473
478
484
494
500
504
496
487
479
482
471
467
471
463
487
511
538
576
597
585
587
612
619
619
598
575
555
545
536
536
532
503
469
459
457
461
482
493
524
555
559
529
489
461
455
446
446
477
507
523
530
567
539
519
494
448
432
455
486
491
496
482
512
538
531
517
504
510
530
554
561
523
477
445
396
365
339
340
370
396
404
433
438
438
439
475
484
500
509
518
500
454
424
411
395
376
404
419
422
440
466
504
527
530
530
493
461
430
429
441
469
477
471
471
436
404
418
411
408
428
469
500
539
532
485
474
474
461
428
439
464
466
454
479
516
524
537
617
587
527
484
438
396
370
354
375
444
498
527
506
510
569
606
617
641
673
703
725
710
723
757
802
924
989
989
989
989
988
988
987
986
986
986
986
986
985
986
987
988
990
923
861
812
794
767
715
576
431
314
233
181
166
200
230
287
363
370
351
344
369
394
393
388
388
369
384
397
400
394
416
425
406
390
382
368
336
367
394
390
417
449
403
360
367
389
410
395
358
339
345
347
340
359
388
378
365
370
378
401
393
375
358
344
353
433
501
491
464
467
447
414
397
401
392
387
396
445
453
425
369
366
424
445
445
473
506
537
564
576
523
486
480
450
490
525
546
563
545
509
465
436
414
398
392
388
394
413
448
492
483
437
402
426
426
458
492
520
538
531
498
475
495
530
554
531
539
540
517
498
487
495
505
517
535
547
552
561
569
579
576
554
541
570
607
610
586
570
566
552
530
525
543
556
545
548
574
587
610
617
605
602
599
596
560
531
526
555
570
568
575
585
588
604
604
619
593
542
512
526
529
527
554
593
622
645
630
600
592
585
568
544
526
532
541
550
564
538
503
531
586
625
615
600
600
602
580
557
512
450
413
410
411
426
451
466
461
446
424
404
377
356
340
341
346
361
384
389
394
404
406
389
382
373
337
335
367
377
367
344
337
365
391
403
415
417
401
392
378
362
389
421
424
422
415
415
408
381
362
358
360
376
381
396
396
423
425
430
411
404
434
477
476
450
456
452
439
436
395
332
262
244
262
270
284
304
328
370
417
410
395
398
390
373
373
381
394
408
411
417
404
413
399
377
367
362
373
378
386
406
431
468
514
530
527
493
461
430
435
452
464
472
486
464
468
456
431
455
469
477
510
506
510
498
462
444
437
419
409
401
404
412
442
471
492
506
489
473
466
460
475
477
467
465
465
477
502
532
540
523
485
445
412
403
398
413
421
415
423
435
416
445
506
507
504
524
553
572
564
569
577
589
571
500
500
444
446
471
494
531
553
531
513
482
466
464
468
514
541
551
540
537
538
511
474
457
479
492
505
523
503
481
476
469
477
517
550
542
527
514
489
476
483
495
510
530
525
471
422
403
413
449
477
505
507
487
450
448
429
422
443
452
462
503
503
501
488
476
441
379
364
376
393
421
435
406
396
392
393
373
360
360
371
380
401
409
431
458
484
488
479
507
500
468
468
457
476
486
456
398
380
413
443
433
418
415
448
461
463
479
500
477
466
464
454
446
461
484
475
470
462
453
449
459
426
390
383
411
406
418
421
425
416
399
382
349
344
361
363
381
408
435
453
453
457
448
443
469
510
538
567
605
640
714
714
809
883
925
941
982
989
988
987
987
987
986
985
985
985
984
984
985
986
987
987
988
987
917
843
759
642
498
367
306
306
272
201
158
189
209
219
254
283
305
343
364
355
345
366
375
365
365
378
394
387
380
372
360
315
295
295
284
279
261
247
242
262
279
295
323
346
363
387
392
374
356
352
358
356
340
341
349
353
380
434
412
390
391
398
394
402
412
417
413
413
412
404
394
403
409
407
395
380
392
413
401
391
376
379
389
403
449
481
488
456
446
439
419
432
432
403
403
380
408
408
471
477
461
466
486
496
497
500
476
459
435
443
455
453
449
447
451
459
470
465
471
481
440
457
472
475
485
495
501
502
493
495
500
515
512
499
502
509
516
528
535
551
584
603
565
487
452
451
450
466
470
467
476
497
502
512
536
568
567
567
547
539
531
546
560
586
607
609
602
601
601
596
588
591
591
610
628
611
567
548
530
542
561
577
575
585
614
592
554
554
533
495
469
480
502
517
519
517
516
505
513
544
531
515
487
472
459
440
431
437
450
448
441
479
510
513
493
467
451
443
452
455
456
442
439
440
436
405
405
417
405
403
387
366
367
368
350
351
369
380
386
393
364
337
323
330
340
355
356
356
370
370
382
370
349
345
335
324
334
346
358
386
391
391
399
402
370
333
315
325
338
354
376
395
389
392
418
449
451
451
440
418
418
427
428
401
358
367
354
346
327
327
327
334
342
358
375
391
405
437
442
411
389
384
405
401
380
385
399
427
435
442
419
421
390
381
390
387
380
396
420
422
419
415
412
419
400
384
398
413
420
408
416
426
440
410
391
388
409
409
428
449
445
426
410
404
405
390
391
415
423
428
433
440
456
480
478
459
445
442
437
444
451
450
450
457
458
453
439
439
441
432
415
411
418
417
431
418
432
454
466
451
432
417
411
435
440
445
468
483
487
481
475
479
482
500
484
460
455
466
476
497
499
488
484
483
464
445
453
478
467
449
421
410
423
446
442
458
460
460
465
479
471
448
451
428
408
399
402
402
396
400
405
406
386
396
391
388
392
412
423
434
439
436
402
412
415
424
448
447
424
394
380
383
391
425
401
378
393
393
417
432
448
452
455
475
501
466
436
376
348
327
321
329
338
369
404
402
410
410
413
416
417
412
411
448
455
434
426
428
420
404
415
426
409
428
444
426
426
420
403
391
372
363
366
415
423
416
400
398
405
410
405
404
396
430
391
356
364
364
392
424
458
505
538
579
646
639
674
727
760
792
862
913
967
989
987
987
987
986
985
985
984
984
984
983
983
983
984
984
985
986
987
988
989
852
781
655
486
376
294
195
158
190
255
289
350
334
306
295
306
328
342
344
351
360
395
339
290
283
299
290
297
310
325
347
398
375
363
335
308
290
275
276
304
346
386
346
341
349
355
342
330
315
300
349
382
326
295
295
301
333
350
352
345
350
400
397
352
348
344
372
381
373
376
376
386
362
355
384
391
396
409
419
432
438
508
501
444
444
401
390
402
441
440
424
426
450
401
379
361
374
374
387
409
431
460
481
451
448
465
470
467
479
497
514
515
506
478
463
457
454
449
458
458
460
470
479
469
472
497
505
505
503
520
542
568
574
543
518
525
549
554
549
517
485
484
479
466
466
456
461
484
505
510
518
493
494
513
527
531
529
536
551
563
564
571
586
593
597
592
579
564
564
576
577
565
557
553
553
533
508
525
544
546
541
536
532
529
527
520
508
523
536
519
523
530
531
537
547
549
549
555
526
483
455
468
455
432
437
444
433
423
433
459
470
452
447
442
430
402
392
397
404
397
393
393
400
399
395
380
368
373
374
367
345
336
349
364
364
380
389
396
393
378
365
346
338
338
341
362
381
396
385
357
355
363
365
375
387
382
386
395
396
406
407
390
363
331
331
320
312
309
313
330
357
351
343
355
363
373
375
392
407
396
386
390
388
401
401
398
394
392
391
391
389
382
403
454
442
439
434
422
399
400
404
405
408
434
416
404
403
419
460
476
473
437
437
447
403
390
391
409
419
415
420
424
450
449
449
431
424
425
421
422
430
443
461
492
485
461
461
451
446
445
435
432
419
442
441
430
432
439
434
436
448
469
495
542
542
541
528
520
487
459
436
425
426
437
468
469
498
513
510
481
466
452
451
481
502
500
506
492
496
494
496
500
496
502
489
477
463
447
458
473
485
485
485
508
519
518
515
499
501
505
496
487
497
539
530
499
486
471
475
479
483
496
497
487
487
464
453
448
444
439
433
427
422
432
470
464
450
446
443
443
441
435
433
451
468
458
449
439
434
432
430
427
433
450
450
450
428
421
423
430
424
420
422
430
457
462
438
429
435
446
439
441
451
460
478
461
443
452
426
418
408
394
383
400
432
430
429
427
418
405
410
419
422
421
444
441
449
446
438
435
437
434
437
449
481
460
426
413
412
436
443
431
423
428
428
429
412
405
404
390
386
383
378
412
462
493
498
510
531
556
586
610
639
694
753
812
860
922
987
988
988
987
987
986
986
986
985
984
984
983
983
983
983
984
985
986
987
988
989
926
801
662
513
378
297
258
239
249
281
298
302
312
322
321
314
331
340
337
333
330
342
353
344
339
351
344
348
352
354
356
360
356
343
331
336
343
338
327
325
306
318
333
343
345
345
348
345
354
365
368
374
372
359
353
351
355
360
374
375
378
367
363
372
382
382
386
397
382
380
380
386
382
387
389
389
404
430
430
416
417
428
435
415
415
419
431
436
427
430
435
432
421
431
438
414
440
471
467
470
480
474
485
489
488
485
516
479
434
427
433
444
452
455
461
481
540
546
519
501
487
489
483
481
475
481
514
500
494
491
492
499
518
519
521
521
558
590
543
529
544
557
543
514
515
520
557
560
531
548
555
540
532
533
534
553
570
636
635
601
555
537
537
544
561
561
566
588
593
577
577
570
577
583
583
589
600
635
603
549
521
489
499
522
535
538
535
570
547
536
542
555
557
558
540
529
533
552
503
467
484
497
491
486
480
471
482
518
484
470
456
436
429
421
414
419
461
482
457
428
404
385
378
372
373
373
385
429
435
419
411
398
412
402
367
358
338
378
414
404
377
361
361
358
341
345
349
388
382
368
374
384
391
385
362
362
351
350
387
374
374
384
389
390
386
375
373
380
410
394
397
383
381
393
399
396
396
414
421
382
360
352
350
352
369
376
379
419
442
423
420
413
415
407
408
402
387
405
404
396
410
425
418
405
402
412
408
432
434
429
441
438
437
432
416
416
409
417
455
451
442
437
428
423
429
415
410
422
451
436
436
436
455
473
480
4644480
493
507
519
519
518
505
505
513
509
485
476
479
481
480
482
485
488
494
488
488
500
496
494
494
494
496
493
479
461
471
462
433
417
417
454
508
534
522
514
513
515
500
467
446
433
431
436
436
429
420
411
412
464
493
490
476
473
483
487
472
440
444
469
455
447
454
452
450
450
459
472
478
478
476
470
452
439
443
426
419
436
434
420
418
440
460
470
461
409
371
372
417
420
420
353
342
385
439
482
493
488
484
475
465
450
471
472
451
429
429
461
491
497
471
464
475
461
460
460
452
425
409
423
423
434
443
428
407
422
425
421
436
457
468
497
522
497
489
512
537
555
572
598
632
659
684
695
709
747
801
878
941
981
989
988
986
986
986
986
986
986
986
986
987
988
988
989
929
862
792
715
618
525
441
358
307
289
290
296
310
328
359
371
371
367
356
357
348
356
380
405
399
390
390
405
411
395
415
437
411
401
403
400
396
386
394
403
411
420
422
416
399
383
383
378
406
414
395
381
381
401
431
451
432
425
435
433
423
412
409
406
402
396
403
404
400
382
390
411
404
390
416
455
483
474
453
440
455
459
474
503
498
473
475
516
545
498
449
427
427
440
464
486
489
479
475
467
463
467
479
493
508
504
504
483
450
440
459
482
485
492
501
502
497
489
490
508
522
523
523
548
532
502
506
519
500
496
518
527
518
499
494
518
518
531
524
525
532
528
517
555
587
606
612
603
560
521
518
518
502
505
533
537
541
530
533
562
571
568
566
569
576
573
554
543
559
574
588
579
577
568
556
547
553
574
597
605
606
601
587
569
562
538
517
519
524
530
547
562
558
551
527
514
514
510
509
505
491
477
474
469
481
499
510
519
524
509
490
483
477
468
458
457
458
444
430
432
435
437
429
428
428
427
427
445
417
394
389
384
398
388
391
407
404
403
389
362
349
351
362
369
389
376
358
346
363
407
412
404
387
358
346
376
386
386
378
338
370
428
437
421
403
391
382
373
368
356
343
352
362
389
423
415
418
418
407
404
406
416
416
414
410
400
400
370
357
357
393
432
447
459
437
420
407
396
387
373
392
419
430
424
415
399
379
358
384
418
442
498
479
438
442
448
448
433
419
425
430
434
441
445
449
448
441
438
435
424
414
433
460
460
455
458
454
451
450
455
464
472
464
461
459
451
431
451
464
473
479
483
483
487
498
499
492
489
485
481
481
488
487
489
483
467
461
463
466
478
495
522
516
494
491
494
494
501
492
484
482
486
496
497
506
506
508
517
511
493
481
470
465
469
480
485
498
486
491
492
448
480
490
516
541
522
522
487
476
482
493
495
479
456
450
448
437
418
409
430
454
457
446
438
434
433
434
440
451
457
448
438
439
436
434
440
450
445
439
435
435
441
450
448
435
436
439
445
447
444
442
442
438
430
425
421
418
415
414
415
423
427
437
452
465
452
452
439
456
466
448
417
400
426
425
406
391
403
419
437
433
461
450
423
471
478
459
438
429
426
426
428
437
438
433
433
433
442
457
455
421
411
415
431
445
447
428
438
446
452
468
485
498
518
544
567
603
658
724
775
804
848
900
936
973
989
989
988
987
987
987
986
986
986
986
986
987
988
988
989
989
913
834
749
649
547
433
359
318
285
267
266
277
287
292
301
301
315
331
341
341
337
333
338
350
358
361
366
383
403
403
391
379
382
384
368
357
360
367
376
374
369
373
367
371
369
369
366
371
375
382
389
388
387
377
377
384
383
381
392
401
396
383
415
421
409
425
404
381
421
421
392
407
419
432
448
454
449
447
447
444
439
437
443
447
453
456
444
442
436
430
456
451
445
451
430
403
428
478
482
481
478
469
465
469
469
469
462
466
473
474
470
469
470
467
467
466
467
478
489
498
501
483
504
513
510
506
500
496
494
496
504
496
499
507
514
514
509
502
524
531
531
534
537
522
517
532
543
539
527
521
532
540
526
521
521
504
512
558
557
558
577
579
566
565
565
562
570
575
568
560
559
565
568
552
542
546
538
527
541
545
533
541
566
560
540
547
562
552
540
532
531
524
520
518
517
517
520
512
502
497
491
487
485
483
478
476
468
465
453
438
433
431
431
427
424
431
405
421
439
431
428
444
446
435
415
415
397
400
408
406
398
396
395
396
403
406
421
400
379
380
377
374
383
415
414
373
361
368
367
364
358
355
355
364
375
377
373
372
384
393
370
382
397
394
388
370
342
366
374
367
368
392
409
394
370
367
397
396
389
397
396
389
393
402
400
400
395
400
410
431
441
439
423
401
384
383
390
399
395
397
404
406
406
415
425
436
439
438
434
426
425
410
399
405
401
401
420
426
417
416
427
431
452
450
450
481
460
404
406
436
448
444
438
442
442
428
430
447
449
438
435
440
447
433
433
439
436
432
426
417
410
415
444
486
516
533
488
464
469
503
505
481
496
506
506
492
471
463
468
495
568
613
571
504
527
527
591
530
468
448
440
446
455
476
497
499
503
501
510
516
526
520
506
508
513
510
503
484
446
435
469
505
527
533
544
544
559
546
506
471
492
473
443
439
458
446
403
399
401
406
408
426
449
435
426
451
420
399
435
471
475
467
452
456
467
465
469
508
547
521
456
406
407
394
385
383
387
401
417
407
424
443
424
390
417
437
456
482
484
477
424
398
378
377
364
364
365
389
444
465
440
405
400
395
404
431
477
514
481
444
445
442
438
431
416
396
398
409
421
440
431
399
390
405
432
432
409
367
360
361
370
382
365
352
362
363
365
377
404
435
462
488
515
535
556
572
580
612
650
688
735
753
767
825
883
918
949
963
989
988
987
987
986
986
985
985
985
985
985
986
987
987
989
975
912
832
716
601
458
320
260
238
233
271
329
329
369
368
346
329
304
303
311
298
284
287
284
283
304
317
326
335
356
378
396
400
391
390
391
378
367
349
329
311
327
327
364
358
373
355
351
366
355
335
331
337
333
329
338
347
371
374
362
365
384
406
430
439
448
464
461
417
391
413
441
448
463
471
450
408
397
386
400
435
448
451
457
451
455
450
436
437
426
418
415
425
432
430
428
440
448
446
442
447
425
425
400
394
404
426
458
484
491
496
523
485
462
492
522
530
534
546
540
548
539
524
504
477
484
513
482
461
473
496
502
502
510
507
506
516
529
519
525
539
550
539
525
545
561
540
517
529
539
560
589
540
507
525
534
549
575
581
564
549
544
554
554
556
568
569
545
543
547
544
540
547
569
567
554
531
528
541
539
522
516
526
533
533
523
544
559
565
578
582
584
584
563
541
531
543
543
527
514
509
494
490
480
495
535
537
520
491
472
474
431
391
384
407
428
471
463
427
407
412
414
414
397
411
454
454
405
382
418
387
395
408
433
436
408
390
379
366
368
376
385
398
404
402
397
424
433
377
353
339
338
343
339
342
344
365
385
401
394
386
376
372
361
367
373
386
408
425
421
413
419
424
426
415
394
375
349
365
399
403
403
403
415
417
398
395
426
433
402
375
393
397
398
396
388
396
416
452
480
467
435
413
430
430
416
419
428
435
430
445
441
441
464
490
500
512
472
431
424
435
406
385
398
418
433
423
405
399
398
416
434
458
479
493
477
455
446
462
498
497
477
468
458
455
441
415
416
464
487
471
441
438
429
451
478
472
465
467
459
456
455
461
471
475
485
493
476
482
487
492
479
479
477
479
491
500
513
538
539
500
472
472
475
479
473
466
476
496
502
493
487
489
493
495
484
478
483
488
487
486
494
494
505
514
517
498
473
461
479
499
500
495
480
457
454
465
474
494
505
493
507
511
450
382
397
435
458
467
465
448
428
403
397
411
418
420
411
400
386
383
398
426
412
403
404
413
439
454
460
455
446
446
440
440
451
450
446
448
446
430
435
435
458
465
464
445
427
424
426
426
434
436
427
406
407
429
446
458
457
446
443
433
422
416
420
434
431
417
411
438
464
464
485
494
482
468
474
461
440
406
368
354
352
363
389
414
427
433
421
422
436
465
489
509
510
519
546
563
587
629
678
726
785
850
914
952
982
989
988
988
987
987
986
985
985
985
985
985
985
986
986
987
988
989
940
841
740
637
513
396
315
315
268
244
251
284
331
344
338
359
363
332
317
333
348
342
371
394
395
369
329
320
334
346
348
348
350
355
355
356
364
364
370
378
371
358
364
372
384
384
349
351
351
339
337
343
333
338
345
354
364
384
397
398
402
403
399
404
414
425
438
447
453
448
432
423
412
401
394
371
361
382
401
403
390
385
394
395
405
449
453
435
417
407
412
411
398
396
421
459
468
468
458
444
446
460
465
480
491
461
473
477
457
434
452
486
505
502
477
461
463
466
471
475
492
486
467
467
489
487
499
499
505
514
518
497
481
464
454
448
476
502
510
509
503
524
539
549
561
534
519
516
503
502
491
485
515
551
565
582
562
534
506
506
519
519
529
542
545
552
539
545
548
588
605
577
547
527
532
568
585
566
542
545
542
514
481
472
493
510
510
510
510
512
527
543
536
537
523
509
506
492
473
454
453
460
503
547
512
483
476
458
465
496
480
457
446
419
406
410
413
413
405
402
409
422
429
430
415
409
417
402
393
390
381
383
396
385
388
403
393
375
381
393
399
399
387
378
361
354
361
366
369
380
379
370
367
370
352
339
351
346
351
367
389
375
375
370
363
363
379
389
403
387
374
393
382
343
324
305
346
346
387
404
395
407
464
451
401
378
375
376
398
420
429
425
414
407
398
406
410
423
416
420
431
427
419
409
406
425
433
433
439
459
459
434
416
408
410
409
406
400
394
383
388
397
405
409
422
442
435
427
416
414
416
428
431
427
430
429
427
431
443
443
430
416
410
429
456
464
457
450
439
437
464
490
464
447
447
459
479
489
475
463
463
467
468
474
466
465
466
466
464
466
474
475
473
480
477
467
471
473
477
475
477
485
496
502
480
478
495
498
483
476
496
534
513
481
486
495
499
499
495
483
478
489
501
504
495
486
485
483
467
474
470
470
485
506
525
513
477
462
453
462
454
450
451
445
441
437
439
444
446
445
447
447
450
454
453
445
447
459
431
412
410
420
431
434
426
416
415
429
442
444
432
430
438
438
436
441
448
448
455
454
443
439
428
429
449
462
442
472
508
454
413
397
408
422
425
427
415
418
430
436
435
434
442
439
427
429
435
435
447
463
447
423
428
440
430
424
427
425
426
430
432
429
427
426
420
414
408
409
409
403
401
408
425
449
456
457
480
509
514
529
546
564
590
624
666
708
756
806
874
942
989
989
989
988
987
987
986
986
985
985
985
985
985
986
987
987
988
988
989
956
831
679
569
457
334
284
261
254
282
307
317
327
332
340
351
353
352
347
357
366
363
356
358
355
347
359
364
364
363
364
361
360
354
352
357
360
346
335
338
367
380
378
377
378
374
371
365
366
378
401
367
354
363
375
361
339
332
337
339
341
367
387
415
422
416
411
407
404
400
405
411
418
416
399
413
406
408
422
422
422
422
421
408
419
416
418
435
435
437
441
447
443
450
455
446
427
426
427
427
430
432
436
446
451
457
453
442
443
446
439
454
469
482
451
427
418
434
434
455
489
479
497
548
550
551
568
520
504
491
492
491
491
513
513
489
491
510
529
540
550
545
528
523
530
535
527
523
527
536
534
527
522
527
543
560
563
570
579
577
553
534
532
524
516
511
512
532
567
560
533
536
536
528
520
529
545
544
544
540
534
538
549
541
527
495
512
523
523
531
516
497
482
502
531
535
505
501
497
493
483
474
466
467
464
453
440
425
425
421
433
440
438
438
440
440
433
416
396
394
395
395
397
398
398
410
413
397
397
373
360
355
356
360
352
357
362
356
368
374
373
386
388
380
379
387
389
378
356
341
333
352
362
371
382
386
369
361
359
352
355
373
386
370
370
375
371
373
373
386
383
380
372
379
392
403
393
386
388
384
384
388
385
381
382
380
385
398
393
397
400
387
384
389
384
391
407
411
411
416
410
403
402
401
399
397
390
395
423
430
433
418
402
415
403
404
402
396
393
415
446
464
454
447
435
432
433
429
436
444
446
459
467
453
442
447
422
399
418
445
454
452
451
452
453
451
448
463
470
456
457
463
463
481
484
480
495
498
498
467
463
480
477
477
484
492
495
489
516
505
447
452
466
472
483
489
488
484
483
484
482
488
504
503
502
503
494
503
503
504
491
495
503
511
511
498
497
505
506
497
493
503
504
499
512
511
487
482
490
491
486
477
470
471
481
476
475
457
452
447
445
445
447
439
437
439
439
439
436
441
451
441
439
456
475
477
468
463
457
456
451
448
446
453
457
443
428
441
441
449
446
441
441
440
437
434
429
441
453
435
430
421
459
475
465
470
461
435
426
440
450
454
447
455
450
436
442
444
444
441
444
455
441
438
441
448
454
447
434
425
424
432
442
448
449
454
429
428
439
443
441
442
437
432
434
428
424
418
423
450
463
419
396
424
444
462
482
503
536
568
599
629
669
712
739
750
823
908
957
989
989
988
988
987
987
986
985
985
985
985
984
984
985
986
987
988
989
961
894
802
706
605
480
381
318
276
262
272
289
302
313
324
326
320
322
321
322
328
328
338
346
348
349
359
367
369
369
369
369
372
370
366
363
366
365
359
360
374
393
401
392
384
384
389
397
377
372
377
370
363
362
362
367
372
404
410
401
401
407
407
409
408
400
394
392
405
412
409
401
399
412
429
435
441
440
450
431
420
420
418
409
420
422
431
454
460
452
442
451
456
452
456
477
478
461
446
448
449
450
456
458
459
469
491
478
466
458
468
468
485
474
454
472
483
487
485
482
475
473
479
484
491
494
505
512
515
507
488
516
535
529
519
513
514
522
524
528
531
543
540
545
534
532
525
519
513
519
528
535
538
536
531
542
551
550
546
558
567
562
563
565
567
562
552
552
554
558
567
567
568
564
565
565
550
564
572
536
523
521
537
548
551
546
542
538
531
529
529
528
523
524
526
522
517
509
499
500
500
500
494
489
483
489
487
477
484
468
459
443
425
419
419
415
430
454
449
436
433
432
414
403
400
407
407
396
393
398
396
402
389
362
373
381
383
385
380
376
374
375
380
374
351
353
373
380
355
341
389
408
410
390
380
385
403
395
373
367
370
370
374
378
376
371
373
379
386
389
387
391
397
394
389
394
395
406
405
400
396
390
382
387
392
396
401
398
397
398
410
410
410
398
408
410
405
405
417
431
426
410
404
406
408
402
420
442
459
453
430
412
415
424
428
430
431
427
423
432
432
428
426
430
430
434
439
460
441
431
447
464
457
454
460
468
460
464
473
470
457
460
471
472
471
471
471
472
473
473
470
470
473
482
485
484
478
476
476
481
485
482
485
488
483
483
484
490
495
499
498
488
488
492
490
487
489
490
489
485
486
486
493
498
506
502
482
497
503
523
534
516
513
483
478
485
488
479
477
484
487
499
486
481
482
480
468
463
463
468
469
477
476
473
458
461
455
454
454
452
448
433
420
436
457
459
449
468
460
417
415
441
453
443
444
454
451
440
432
432
436
436
446
453
450
446
438
426
419
422
427
436
446
456
454
449
446
442
433
433
433
437
440
438
447
453
453
464
447
429
441
441
442
433
423
423
432
436
439
454
449
433
436
440
444
447
455
459
452
444
443
447
446
446
447
450
449
442
438
437
431
425
419
421
422
426
433
448
466
478
480
489
508
532
547
581
629
668
702
732
768
810
863
905
945
989
989
988
988
987
987
987
987
986
986
986
986
987
988
988
989
958
894
825
755
674
594
502
400
331
323
337
284
275
278
304
324
335
340
334
320
320
322
331
335
343
353
369
379
381
380
379
384
386
382
380
383
383
373
375
386
381
379
380
368
364
381
386
387
385
384
392
404
407
400
387
385
395
408
415
422
409
408
411
416
419
414
410
412
411
414
416
418
415
410
422
420
412
419
420
430
430
428
426
431
433
439
441
439
439
444
451
459
463
466
465
453
457
464
463
467
472
474
477
483
491
488
466
462
467
474
474
477
477
479
486
492
482
488
480
487
499
487
485
491
494
490
501
510
505
501
502
509
516
519
521
523
522
523
525
529
529
530
532
542
544
560
555
527
528
534
541
548
551
546
556
560
554
551
555
558
560
565
568
558
556
564
565
569
557
551
551
556
562
564
565
554
535
549
557
561
571
576
569
559
552
553
554
551
548
542
519
510
512
509
506
530
535
529
522
510
510
510
513
515
508
502
503
486
479
481
466
461
466
443
433
440
446
429
428
432
431
427
427
412
406
420
414
397
393
394
400
408
386
371
376
379
378
383
382
372
374
378
388
390
387
373
368
367
371
376
370
375
372
371
370
375
378
378
377
377
377
380
381
379
375
372
375
382
380
375
374
376
378
380
379
376
383
387
389
389
399
403
400
403
400
387
388
396
414
412
412
400
406
403
399
398
412
407
419
421
413
413
414
412
419
418
418
422
424
421
418
419
424
425
428
428
425
433
436
442
428
427
429
430
429
431
438
460
458
461
458
431
441
429
415
402
391
447
477
478
473
470
467
474
477
471
472
478
479
477
477
474
474
483
481
475
474
478
487
491
486
479
474
476
480
496
530
510
473
467
478
494
487
480
481
484
483
483
488
492
492
495
493
504
505
503
500
491
491
503
518
511
505
499
493
496
493
488
487
487
484
478
476
478
478
471
480
480
474
470
471
473
466
459
451
446
441
440
439
436
440
447
447
453
462
453
432
433
436
440
444
457
456
431
425
438
440
441
440
441
441
448
443
430
429
437
455
453
425
423
430
432
433
431
429
432
438
447
444
433
434
440
441
440
438
446
441
434
431
433
433
434
439
443
441
440
440
434
427
434
437
442
439
435
439
445
442
432
437
432
418
421
440
453
457
454
444
423
404
428
432
425
421
417
418
432
452
468
482
498
519
545
567
587
611
635
664
702
741
796
838
884
938
977
989
989
988
988
987
986
986
986
985
985
986
986
986
987
988
989
960
879
807
731
641
534
425
348
298
265
259
279
302
323
330
327
327
332
345
339
339
341
355
373
379
375
384
370
344
344
355
364
369
369
357
363
368
369
369
364
361
358
364
366
371
376
389
374
372
374
375
373
373
380
385
388
391
388
386
394
399
397
397
397
398
399
398
400
405
408
410
412
410
407
413
417
415
405
419
427
427
432
432
430
430
430
429
432
437
445
441
435
435
442
445
444
447
463
464
442
436
446
458
457
451
441
457
472
472
470
470
470
472
468
462
459
464
471
481
482
480
468
487
495
492
492
498
505
501
508
499
491
498
500
500
501
509
522
516
504
501
504
507
515
524
527
528
529
531
531
530
531
530
527
530
533
536
542
551
555
558
551
550
541
535
550
551
547
545
547
547
553
552
545
551
545
548
557
570
550
527
529
538
544
543
539
531
523
517
512
508
505
507
507
508
507
504
506
514
513
513
500
498
485
463
449
449
464
475
471
471
461
455
449
436
426
420
418
420
430
428
426
412
407
410
408
406
420
424
398
383
390
392
388
383
377
383
388
389
384
379
375
393
400
371
368
369
371
375
375
357
357
380
387
390
383
375
376
379
378
378
373
368
380
391
392
387
380
384
404
391
385
387
390
392
390
388
387
388
389
389
392
396
405
413
411
405
399
397
405
405
413
431
422
419
415
409
407
411
410
400
402
410
414
419
419
409
411
429
432
444
437
412
415
425
429
432
424
419
419
427
435
434
435
439
438
435
434
438
446
451
448
453
464
449
455
436
430
437
445
444
447
450
452
451
459
475
478
474
476
476
476
474
469
466
469
472
477
477
475
470
455
466
485
487
482
478
482
484
485
484
485
485
497
510
509
490
470
483
484
484
497
483
465
470
480
489
477
454
487
506
508
513
515
505
500
494
489
486
480
490
515
492
475
480
484
486
484
482
479
482
484
481
478
471
467
457
455
455
456
462
456
450
443
437
437
445
449
448
443
448
451
454
444
437
434
436
439
442
442
442
441
442
444
442
442
441
439
438
440
438
437
435
435
435
433
434
434
435
439
441
440
436
437
444
450
448
449
450
446
446
442
437
425
423
423
424
426
433
436
439
435
458
441
417
430
436
434
437
444
456
447
436
437
432
433
436
437
434
430
430
429
421
413
411
404
400
402
409
414
413
448
478
504
526
545
566
585
609
639
697
740
777
827
883
931
966
989
989
988
988
988
987
986
986
986
985
985
985
985
985
986
987
988
989
953
860
727
626
517
400
327
286
253
263
293
316
328
338
348
348
348
347
351
360
364
370
371
352
350
355
342
336
336
351
364
367
366
362
360
362
363
363
358
357
364
366
365
369
355
349
356
370
361
352
356
368
375
378
374
381
383
382
376
376
382
393
391
389
389
390
391
394
397
401
406
408
407
408
410
410
417
421
419
411
411
415
421
424
426
435
437
427
423
426
430
447
441
435
437
439
442
439
438
438
446
459
442
426
436
436
442
437
450
471
472
471
469
469
490
496
467
468
473
472
463
451
479
497
495
491
486
488
489
488
488
492
499
509
511
510
501
501
510
516
517
520
518
522
516
517
524
527
532
537
545
544
539
541
536
533
524
532
548
550
546
545
544
544
541
541
547
557
556
549
550
556
553
543
544
544
539
538
551
538
534
543
543
537
533
528
524
521
528
527
519
515
515
515
512
512
507
502
497
493
492
491
492
483
480
464
457
458
459
462
456
449
438
435
439
437
435
431
423
417
413
410
408
406
403
400
400
397
391
391
388
388
395
385
388
385
383
381
398
417
389
366
372
375
366
370
371
367
372
372
389
371
374
386
396
396
378
366
371
378
387
397
397
393
385
380
378
375
379
378
381
386
395
396
398
399
399
397
386
392
398
398
396
398
404
404
410
414
414
406
405
410
415
411
407
411
413
401
402
432
436
434
430
427
428
431
432
433
433
426
420
424
428
425
423
435
440
435
443
444
447
443
432
435
435
444
467
447
444
430
422
426
433
436
437
447
451
448
451
445
438
436
451
464
463
463
440
444
453
459
492
473
434
448
453
460
470
472
471
469
469
472
478
479
477
474
470
462
480
486
482
474
469
477
475
475
475
478
492
494
484
486
483
468
465
495
498
496
495
491
491
496
498
502
499
500
499
491
499
504
507
502
499
502
508
506
498
497
498
505
495
479
473
478
488
505
505
495
492
489
485
490
478
478
479
475
467
460
453
444
441
441
448
451
460
460
449
432
429
433
435
430
431
435
430
440
442
437
431
433
438
446
445
450
472
458
426
414
427
442
438
432
433
436
433
433
447
462
431
422
430
432
425
429
429
428
438
434
439
445
446
442
433
419
421
427
411
401
406
422
416
416
433
432
430
429
431
431
433
437
442
441
440
438
434
440
437
441
434
425
428
426
419
415
409
402
396
390
389
390
395
409
434
473
502
502
522
537
555
575
588
611
663
706
746
793
847
902
955
989
989
988
987
987
986
986
985
985
985
984
984
985
986
987
988
988
989
971
882
786
691
575
452
356
293
257
250
272
294
310
322
327
339
336
328
332
347
355
355
354
357
357
365
364
343
339
346
354
359
348
353
366
373
383
366
354
349
351
350
352
357
354
354
358
359
359
360
366
372
372
375
372
364
366
376
376
377
372
382
387
383
383
389
396
398
394
392
400
409
405
413
415
414
415
418
421
424
423
417
394
411
433
440
441
440
440
436
434
431
433
430
428
434
446
440
449
457
444
450
453
449
464
485
486
455
448
454
467
473
473
471
472
471
477
477
474
473
489
490
492
506
495
482
482
495
500
502
504
504
509
511
511
512
513
510
511
514
518
520
521
523
527
527
533
549
549
546
537
533
548
541
537
552
536
536
539
546
552
554
554
552
557
556
552
554
556
560
564
567
562
562
563
555
555
560
560
540
522
524
541
543
544
547
543
544
549
547
540
529
519
509
509
503
496
493
493
496
498
493
491
491
481
474
469
463
460
458
457
449
445
443
442
445
428
417
413
413
419
422
416
406
411
408
398
397
398
400
403
397
376
374
382
382
371
370
370
373
371
368
374
377
368
367
367
371
376
375
382
383
379
374
368
368
369
369
366
370
381
397
383
377
365
372
374
371
371
373
378
384
385
386
390
392
394
396
392
386
391
419
418
386
382
381
382
386
399
394
388
400
408
405
401
410
423
421
417
413
412
415
417
420
421
434
408
423
436
427
426
428
432
431
432
428
430
426
427
427
429
438
415
415
430
438
444
443
443
441
443
447
443
437
439
443
446
446
451
450
435
429
427
438
443
446
449
450
452
452
456
463
455
453
459
464
451
449
449
451
457
454
453
454
454
453
460
466
470
466
475
478
475
489
498
486
479
486
489
487
481
479
476
478
480
475
471
473
476
484
485
488
492
499
501
496
493
489
487
487
486
484
487
491
490
492
497
500
500
499
503
507
512
539
536
500
485
498
498
504
511
508
493
493
487
482
464
480
491
507
496
475
476
480
482
479
473
464
459
458
454
449
447
451
457
460
449
455
455
462
439
430
425
424
433
439
440
440
442
452
455
451
447
446
441
440
436
433
433
435
439
451
443
433
432
427
435
444
446
443
445
444
441
437
433
430
429
432
432
432
432
435
446
452
451
449
454
449
443
449
456
449
438
432
434
438
432
431
431
439
448
451
444
441
439
435
440
449
446
443
439
438
433
429
419
411
407
403
396
396
401
410
427
445
463
488
515
539
539
561
582
602
636
670
713
749
795
845
898
952
989
989
988
988
987
986
986
985
985
985
984
984
985
986
986
987
988
983
896
801
703
585
453
358
298
272
250
268
297
318
332
336
343
343
343
351
361
384
361
344
352
364
353
347
341
338
349
355
355
357
359
364
364
362
363
369
379
363
352
358
361
361
360
358
355
355
355
364
375
377
380
380
386
404
423
387
382
368
368
371
381
386
388
389
398
408
402
398
398
400
400
401
401
407
413
414
407
409
417
428
436
430
424
423
420
429
438
440
445
449
449
438
427
444
460
460
458
455
453
454
457
460
459
462
466
471
470
466
467
471
474
476
480
483
487
487
485
480
480
483
484
486
489
492
498
497
500
487
490
498
505
500
474
496
518
520
534
549
521
500
506
520
532
536
526
525
530
538
538
542
538
540
548
541
546
548
548
549
548
547
548
551
552
552
553
552
557
563
566
563
549
552
547
539
537
537
545
543
538
537
536
535
533
532
529
528
527
521
514
519
519
523
526
527
507
493
494
497
495
487
482
473
469
467
470
466
461
456
456
450
452
462
441
422
413
418
421
420
434
425
419
416
415
416
414
417
395
376
378
383
383
380
380
382
382
388
391
387
387
384
380
377
377
381
382
379
372
371
375
378
373
359
359
380
391
387
385
383
380
382
386
384
371
366
375
379
383
393
387
389
413
420
401
390
392
388
398
420
400
391
386
380
382
388
395
398
397
396
395
392
392
417
428
433
438
421
419
418
418
421
423
423
419
418
419
425
428
427
427
432
452
442
421
415
420
424
417
415
431
443
450
448
443
443
445
444
443
444
444
439
438
441
443
442
441
446
450
449
448
447
446
449
449
447
450
453
458
456
449
455
457
456
457
454
455
465
460
450
453
458
461
465
464
471
477
481
488
494
485
474
472
476
481
477
474
473
477
471
470
472
473
473
472
474
489
500
490
487
487
486
487
487
490
497
507
490
485
493
483
489
503
480
474
484
499
510
516
508
494
483
482
491
496
501
508
516
514
506
506
503
496
497
495
491
497
486
476
478
482
483
478
470
464
456
451
447
441
436
446
449
450
448
450
456
456
449
453
452
447
445
446
449
449
448
450
445
443
441
443
443
436
434
436
437
437
436
438
443
446
451
451
445
457
462
435
434
436
444
444
448
441
441
440
430
433
433
435
436
433
424
432
428
423
435
449
453
454
455
459
455
445
437
436
449
457
448
445
462
462
469
450
432
415
420
435
439
445
443
430
431
437
431
422
415
415
423
428
423
421
423
422
439
476
496
517
539
563
591
621
657
697
725
758
818
875
905
953
989
989
988
988
987
987
986
986
985
985
985
986
987
987
988
989
934
864
788
703
609
609
490
390
325
284
266
270
290
312
323
324
331
329
332
326
325
331
347
358
363
366
370
376
378
376
379
381
368
360
360
360
362
364
369
375
380
387
370
362
362
359
366
370
370
376
380
371
357
359
377
391
392
390
411
427
434
400
393
400
398
400
400
403
408
409
410
413
419
421
421
422
421
420
428
430
426
430
431
435
453
445
442
443
435
433
442
443
443
440
444
444
451
454
458
458
454
451
451
454
460
466
463
463
464
452
445
477
491
491
496
494
489
485
473
473
478
483
495
484
483
483
490
495
510
513
503
497
498
503
508
511
518
518
509
507
508
515
525
526
531
547
552
547
546
555
546
539
545
551
555
562
553
550
555
558
561
564
566
563
562
564
570
571
566
563
560
563
562
559
559
560
558
554
553
566
570
559
544
537
539
539
543
547
542
534
530
529
530
520
509
514
511
508
500
491
499
510
504
487
477
475
481
496
510
487
454
446
460
451
439
439
429
423
427
431
426
422
423
423
421
405
401
391
392
393
387
384
395
395
382
378
384
398
400
390
376
373
376
382
379
377
375
382
388
381
379
376
374
368
363
368
373
376
378
376
372
371
377
381
384
380
383
387
389
387
385
385
384
387
380
380
384
396
397
392
389
376
375
382
394
399
400
403
402
399
393
393
396
403
406
409
406
401
405
412
413
415
425
436
434
434
439
443
404
392
404
413
413
411
418
418
412
400
426
449
443
430
430
429
431
435
442
446
445
446
440
440
448
451
437
436
440
439
442
447
449
444
440
444
451
454
454
456
450
451
455
455
452
449
453
457
461
477
486
491
476
463
469
477
481
481
477
474
474
473
474
469
471
477
483
483
484
489
484
474
475
489
489
481
480
489
496
518
495
482
492
498
496
488
490
490
491
488
486
488
498
499
502
500
497
496
502
507
502
498
499
504
503
500
499
499
497
498
500
505
493
488
498
486
476
475
479
484
480
465
460
462
460
448
440
442
454
460
456
438
435
439
440
441
439
440
444
447
424
434
445
445
448
447
448
448
450
449
448
448
446
445
444
444
446
444
445
446
442
441
445
434
438
454
460
476
481
452
431
429
435
438
436
435
441
441
449
454
454
447
434
418
427
442
449
453
447
444
452
447
430
440
448
444
436
432
436
439
443
446
450
452
447
441
440
439
437
435
433
430
426
426
432
418
415
420
426
441
463
478
487
498
520
551
583
621
639
658
677
716
759
819
886
908
944
944
990
989
988
988
987
987
987
986
985
986
986
987
988
988
989
942
873
796
730
655
557
441
351
303
274
273
286
301
317
317
327
331
329
326
330
334
337
339
347
357
367
370
365
369
380
385
390
381
379
386
387
386
381
380
379
379
379
381
381
384
385
384
385
388
398
399
388
390
397
399
390
389
389
400
409
413
416
413
410
410
425
431
401
405
405
408
411
415
419
419
424
427
432
429
430
432
435
435
441
442
445
443
450
462
449
456
459
450
448
447
449
449
451
450
440
450
458
468
467
467
468
465
467
468
464
460
466
484
488
488
489
490
490
487
488
492
497
496
496
497
501
504
505
507
502
502
507
507
504
503
508
515
523
527
515
512
521
535
531
522
525
533
534
526
524
539
562
548
538
543
549
563
573
550
544
545
551
557
553
553
558
564
559
560
565
561
548
549
548
544
547
547
545
547
552
541
536
541
544
541
539
544
552
551
540
527
524
529
529
529
519
514
510
503
502
501
496
492
489
487
485
480
477
475
472
468
466
454
462
452
438
433
430
428
428
425
423
429
418
406
396
391
405
405
399
396
391
390
394
400
391
396
386
386
390
394
380
375
372
377
380
377
380
382
384
383
387
388
386
386
383
374
367
368
379
383
374
371
372
377
380
382
383
382
383
385
385
382
383
387
388
384
383
385
387
390
390
392
395
395
396
389
387
388
394
406
411
411
409
407
409
413
418
426
416
421
419
415
412
414
416
419
417
417
418
422
425
426
430
432
438
431
420
413
401
426
442
441
439
437
444
463
452
421
415
426
436
438
439
438
442
446
442
440
446
438
435
440
445
445
449
449
447
448
447
460
449
430
426
441
451
453
452
447
445
447
456
461
466
472
470
468
468
466
463
459
468
467
466
466
468
469
476
478
485
480
476
483
476
475
474
484
478
478
488
483
469
467
468
471
474
478
484
486
489
486
476
482
490
491
490
499
502
500
497
496
500
504
504
498
495
496
500
502
503
504
503
503
501
500
500
500
502
496
494
495
490
483
479
479
475
473
476
478
480
480
477
473
472
467
469
449
434
440
438
434
434
437
440
441
441
442
434
433
435
438
440
433
435
435
444
460
450
439
444
427
447
441
432
433
429
438
454
466
452
443
444
439
439
445
446
460
479
456
449
419
421
427
431
436
444
424
416
422
430
432
433
431
430
435
438
439
437
440
441
439
438
436
439
444
435
433
448
453
445
444
438
439
445
445
445
438
424
419
422
421
411
400
396
392
396
403
421
479
479
455
469
499
524
559
586
609
637
672
711
757
801
849
903
903
955
989
989
988
987
987
987
986
985
986
985
985
985
985
986
987
988
989
951
841
747
656
543
430
355
298
269
275
294
307
325
335
338
335
332
340
357
366
371
372
368
364
360
355
340
339
384
382
363
346
346
362
363
350
355
369
370
351
346
346
352
362
381
372
358
359
364
373
378
376
372
382
397
388
381
382
390
386
386
391
389
376
370
373
378
383
397
390
396
396
404
405
409
419
431
407
400
409
416
419
420
418
412
428
438
432
430
431
439
440
444
442
444
444
445
444
444
442
444
451
461
467
451
447
451
456
456
456
458
456
460
466
471
480
487
473
480
470
471
475
479
487
492
503
495
481
480
494
503
503
504
500
498
501
503
506
506
506
509
513
515
516
515
514
520
524
523
525
530
533
548
551
541
528
534
546
536
520
537
537
562
564
558
548
539
539
540
539
535
542
559
557
562
547
538
552
549
549
539
536
539
538
537
537
531
528
526
523
517
518
520
517
514
508
504
498
491
482
494
502
497
487
480
475
464
450
456
458
449
441
438
444
443
431
428
436
429
419
423
423
433
415
389
394
407
422
399
381
379
380
381
382
384
387
386
384
384
381
380
376
374
383
386
380
373
370
379
407
381
381
362
374
387
376
369
374
377
374
373
372
371
372
374
378
380
383
383
385
388
386
385
387
391
397
397
395
397
403
413
405
393
389
391
392
391
390
392
397
398
396
403
412
420
419
412
410
419
423
431
425
417
419
421
421
424
424
422
419
425
425
431
430
430
432
432
427
431
441
451
439
429
430
435
439
440
436
433
427
425
447
455
431
453
477
435
424
430
431
432
432
432
432
433
446
458
456
449
446
453
454
446
442
442
436
440
442
438
438
449
460
464
462
455
455
457
457
457
459
463
464
463
461
461
461
462
465
463
461
461
465
468
466
467
469
474
482
489
487
478
475
475
475
483
483
479
474
469
461
480
480
483
483
482
481
480
483
489
491
493
494
496
502
506
499
493
492
494
496
500
497
498
500
499
499
508
491
474
498
511
511
507
507
508
508
507
501
500
498
494
489
482
482
486
488
492
509
501
495
487
471
479
489
465
456
435
423
425
432
433
427
433
448
455
455
451
450
451
450
454
458
457
445
443
436
434
437
439
436
431
443
453
455
450
446
444
446
452
450
446
446
449
449
448
449
441
434
433
436
451
446
436
435
439
442
441
438
437
440
442
441
439
437
437
441
443
442
442
445
454
454
462
445
441
444
432
433
434
438
440
448
445
443
446
441
436
430
425
421
419
408
397
392
402
415
426
439
456
474
496
521
555
574
596
619
637
668
710
756
815
863
899
943
976
989
988
987
987
986
985
985
985
985
985
985
985
986
987
987
989
989
960
862
766
670
551
428
345
293
262
257
280
302
321
332
337
340
338
339
344
355
362
368
366
364
367
358
353
347
348
348
359
368
379
387
371
355
347
355
369
363
365
374
364
356
357
360
366
365
363
364
366
365
367
365
358
380
386
387
389
391
396
396
396
396
396
398
400
403
405
406
407
407
407
411
415
412
417
420
416
430
427
417
422
431
428
425
429
432
433
433
432
434
441
448
445
439
442
451
447
442
444
451
457
467
457
453
464
460
455
456
457
457
463
471
474
477
491
489
474
474
465
468
481
487
487
483
484
483
480
472
497
506
507
506
508
509
508
510
509
506
506
513
519
522
527
528
531
537
535
520
520
527
533
534
534
540
542
557
544
528
532
544
554
553
555
557
555
555
555
553
548
544
543
550
551
551
551
549
551
551
548
542
535
535
529
525
525
523
523
518
510
529
534
530
531
517
501
498
494
497
480
477
479
484
486
482
479
463
451
451
450
446
442
438
437
439
431
428
425
425
437
434
421
403
400
405
414
405
388
380
382
382
377
377
385
388
383
380
377
375
376
383
384
385
383
372
372
372
370
368
368
367
364
365
367
370
371
372
379
383
380
379
384
391
414
391
375
381
389
389
389
386
383
381
382
385
385
387
386
389
395
399
393
379
388
409
408
400
399
399
400
400
405
406
423
423
404
402
417
417
427
425
414
413
413
414
412
412
414
420
427
426
424
425
427
425
426
427
430
438
441
429
432
428
431
433
435
436
437
437
436
436
440
442
435
441
437
435
440
451
447
434
436
436
439
437
441
438
438
436
436
445
452
456
448
438
447
448
439
439
437
435
445
458
457
455
469
464
460
460
463
476
468
446
443
441
443
450
451
452
455
465
471
460
453
457
472
476
467
467
466
465
465
464
464
462
459
460
465
468
470
469
470
472
473
472
470
469
469
472
482
484
484
485
483
484
483
474
473
475
478
481
483
491
506
504
497
498
500
497
495
491
490
493
495
495
491
494
502
508
509
509
508
507
508
508
509
508
516
516
511
501
500
504
504
501
494
477
490
500
493
492
498
490
488
484
480
472
464
460
466
454
426
426
433
438
444
442
443
443
451
449
444
438
433
439
444
453
459
456
452
458
471
466
443
425
426
424
437
448
439
419
434
453
444
448
452
449
448
445
441
441
442
444
444
449
459
459
446
437
439
441
440
436
436
439
441
442
443
442
443
445
445
443
441
438
441
445
443
443
444
444
439
445
449
438
436
454
459
437
447
448
438
436
429
424
419
412
400
384
381
383
421
437
453
473
507
524
538
538
564
588
614
648
689
734
770
822
861
903
946
989
988
988
987
987
986
986
985
985
984
984
985
985
986
987
988
989
941
842
744
643
524
419
341
289
268
282
313
315
315
324
337
338
333
333
337
345
363
371
363
362
360
355
356
360
352
353
361
361
366
384
392
357
343
337
323
349
377
377
367
358
354
353
353
362
371
374
378
383
382
377
376
381
387
386
389
391
398
398
397
395
390
388
390
395
397
393
406
412
411
417
417
410
412
417
416
416
420
424
430
433
430
429
432
435
438
436
433
443
451
453
448
440
444
435
442
452
454
457
464
466
464
462
467
472
472
476
469
456
454
459
466
481
479
473
473
474
476
476
480
489
506
497
485
482
484
491
496
489
495
501
508
520
504
502
505
510
515
510
511
507
507
511
516
523
520
506
529
529
541
541
539
540
544
558
563
538
539
542
546
550
552
545
546
556
551
546
551
548
539
553
554
547
549
548
551
550
547
542
540
537
536
542
541
529
531
534
527
529
524
514
515
514
507
498
493
492
494
490
488
480
473
480
467
458
460
455
451
451
452
450
447
444
440
437
442
448
422
414
416
413
414
426
397
379
386
394
392
394
391
387
383
379
382
379
379
376
373
373
375
380
386
382
378
373
369
369
375
376
374
374
374
374
365
363
371
380
384
386
409
391
381
389
379
387
388
376
383
392
391
388
389
387
373
376
400
399
395
394
399
401
403
403
400
401
400
405
408
404
402
394
401
415
416
418
419
418
418
418
421
423
418
419
420
418
418
417
420
429
422
421
429
435
439
439
430
427
433
466
447
422
416
418
424
428
431
430
430
430
428
425
425
433
428
442
441
443
442
444
440
438
436
430
430
437
444
447
451
450
450
452
454
464
455
464
449
441
445
449
453
459
459
455
451
452
456
457
456
452
454
453
449
450
455
458
458
458
453
452
456
459
459
457
459
462
465
465
465
465
466
470
474
474
465
466
463
465
468
469
473
479
481
484
495
480
467
465
467
471
486
467
447
471
476
483
489
478
481
481
492
488
479
481
491
495
495
495
491
496
500
502
505
502
499
507
515
520
518
520
518
502
497
499
504
499
486
487
492
496
500
507
508
510
508
502
493
488
486
486
485
483
484
485
483
474
459
456
460
467
451
441
446
444
442
444
443
446
446
446
452
461
453
444
445
447
445
446
445
447
448
444
444
448
447
446
437
437
445
449
454
446
424
427
438
441
441
442
443
443
446
445
439
437
438
438
443
445
442
448
456
443
449
444
434
439
444
445
446
446
447
449
447
447
447
464
443
426
434
438
441
442
425
427
449
448
445
432
439
447
438
428
426
419
411
410
406
402
402
406
415
432
447
464
489
514
533
565
594
594
618
640
664
696
741
795
856
909
963
989
989
988
988
987
986
985
985
985
985
985
985
985
986
987
988
989
945
846
753
753
660
542
432
345
292
263
263
282
301
317
332
333
334
354
354
330
326
338
353
359
359
362
360
355
352
350
353
359
367
365
360
359
360
357
355
359
361
371
370
372
350
349
355
356
355
356
367
379
386
381
373
378
381
379
379
375
385
395
398
398
399
392
395
402
402
402
413
427
419
408
408
398
386
417
424
412
410
409
417
436
435
428
426
429
434
429
429
446
440
440
438
448
450
451
450
452
450
449
453
458
460
461
464
463
459
458
464
475
468
463
467
470
474
481
482
479
477
478
480
484
485
488
487
488
492
497
496
496
500
510
527
534
499
508
503
486
487
497
508
518
522
528
523
518
524
528
529
528
536
536
542
540
530
533
539
544
549
548
546
564
560
550
551
547
545
547
549
547
548
550
550
552
547
540
535
536
544
542
537
537
532
529
538
538
527
523
522
526
524
517
511
506
503
497
494
490
484
485
501
509
491
456
446
466
476
470
463
469
461
446
442
441
435
429
426
421
417
413
412
410
407
406
405
403
396
391
390
389
386
384
382
385
385
395
388
380
379
381
381
381
374
376
378
371
363
364
368
377
381
387
397
374
366
367
368
373
366
369
368
371
376
378
378
378
379
378
378
386
394
394
388
401
387
367
379
397
407
394
380
382
383
382
383
387
390
391
392
397
402
406
406
405
406
410
411
410
409
410
413
417
417
414
419
420
419
423
423
421
423
421
411
423
432
436
431
423
416
421
432
434
423
427
432
431
437
442
428
427
429
429
432
432
421
438
452
452
447
443
444
443
440
439
436
436
436
445
443
439
438
438
443
436
435
446
453
455
451
450
453
453
444
445
443
442
447
444
452
446
446
451
454
454
454
452
452
455
463
453
448
449
452
456
455
452
455
458
463
468
464
453
453
458
458
458
459
462
462
460
459
462
463
456
447
446
449
460
467
485
478
455
465
462
460
464
466
470
470
471
471
471
467
466
466
463
462
463
473
482
484
483
486
493
497
499
497
488
491
495
499
493
484
500
507
493
492
497
493
505
502
502
504
505
508
503
497
499
514
513
507
513
503
480
480
491
500
495
487
480
465
458
488
494
489
478
476
469
464
456
448
444
442
441
445
447
445
446
442
440
442
444
442
442
441
446
446
443
442
444
448
446
442
443
450
450
449
453
451
441
446
446
444
442
432
427
431
435
440
446
445
442
440
437
448
447
444
436
429
427
428
431
433
439
439
446
439
414
410
421
442
442
443
438
444
450
454
453
445
439
446
458
447
442
442
441
440
441
438
435
432
433
439
423
405
400
394
385
394
402
422
434
442
463
486
505
526
551
583
617
649
683
717
751
792
844
900
958
989
989
988
988
987
986
986
985
985
985
985
985
985
985
986
986
988
989
948
852
759
663
541
426
349
302
272
262
275
290
292
306
337
349
349
347
339
343
359
366
364
359
358
358
377
383
369
352
341
339
351
354
354
355
356
363
376
352
340
344
350
351
354
361
364
365
365
365
367
368
367
374
382
382
388
390
384
382
383
388
393
390
394
401
398
399
402
407
413
417
432
411
399
421
420
411
420
421
417
420
424
426
427
427
428
428
428
430
433
432
437
444
444
444
450
450
457
457
458
456
454
457
453
453
456
458
464
477
476
466
467
467
468
468
471
472
470
477
482
482
483
476
473
479
484
485
484
491
496
499
501
502
500
493
499
528
515
510
514
520
531
531
521
522
523
517
515
519
523
524
525
538
533
527
532
537
546
551
548
546
545
548
552
553
552
545
544
545
557
575
547
532
537
537
541
544
548
547
550
546
545
538
532
527
521
519
517
518
518
518
521
513
511
503
497
496
492
495
490
487
481
474
469
469
470
467
468
461
456
452
450
450
446
441
439
437
431
424
418
419
423
419
405
413
404
397
409
398
389
390
397
398
382
374
369
368
376
392
387
381
380
392
383
374
371
372
372
371
374
380
362
365
371
371
371
377
371
360
361
370
376
387
385
385
370
376
379
378
377
380
382
387
397
410
385
377
385
383
372
379
388
389
388
383
370
364
391
408
414
415
411
406
402
402
403
401
403
406
406
399
395
404
416
422
424
406
397
400
402
402
414
433
428
421
422
420
420
422
423
431
435
421
424
424
418
418
424
427
426
426
430
436
438
434
433
432
430
432
440
441
439
438
438
439
441
439
435
433
444
445
433
433
434
434
433
452
455
450
449
443
442
441
447
451
437
435
439
442
442
440
437
437
437
441
454
460
445
442
442
446
450
440
449
449
464
464
463
471
470
447
439
451
465
467
449
442
439
443
449
445
445
440
448
491
488
476
471
472
476
469
482
478
455
456
460
464
466
466
467
467
473
474
471
479
481
478
473
473
477
479
486
487
476
477
495
506
523
516
491
483
488
488
489
489
501
503
499
494
488
490
487
486
485
486
486
487
484
479
483
480
473
466
460
467
474
479
467
457
437
430
428
433
423
423
429
444
436
420
421
423
433
434
415
424
431
432
430
421
420
431
438
441
439
439
433
432
436
434
431
430
425
420
416
423
439
440
444
436
441
437
428
430
432
429
425
429
432
431
429
427
426
419
420
427
427
426
422
423
424
426
411
427
454
454
455
457
434
423
414
413
420
431
430
426
423
432
427
425
433
441
427
419
414
409
400
401
403
405
398
384
388
400
412
412
431
445
461
486
511
533
554
578
624
653
676
709
748
800
858
909
965
989
988
988
987
987
986
986
986
985
985
985
985
986
987
988
989
975
885
783
698
589
460
362
293
257
247
255
271
287
306
324
333
336
317
312
315
314
323
335
345
350
355
355
355
350
348
347
349
354
359
357
354
350
353
365
379
356
341
365
380
343
330
336
356
360
356
356
358
360
361
362
363
363
365
369
377
379
373
370
376
375
382
391
397
397
390
391
396
404
409
407
404
402
404
409
406
398
398
405
407
416
421
423
420
417
421
427
415
434
436
424
423
424
425
413
438
452
445
443
440
440
448
453
455
452
443
446
453
457
458
461
467
467
468
465
468
470
474
481
477
470
471
479
482
473
483
488
484
481
480
472
496
511
511
510
516
514
505
502
505
506
501
501
508
522
528
532
529
530
532
535
540
543
544
532
531
532
527
529
554
549
527
535
542
544
536
527
539
544
549
544
543
544
542
538
537
536
535
531
533
530
530
528
515
514
518
513
501
502
509
516
509
489
490
481
477
481
481
474
464
466
460
460
451
448
447
459
452
440
440
442
423
414
417
416
406
412
412
390
376
396
399
392
383
377
372
372
372
385
375
368
371
371
373
369
376
372
349
350
354
354
347
347
355
359
357
362
372
365
360
353
342
356
368
359
356
365
357
354
355
358
355
354
354
354
359
364
369
369
368
371
368
369
374
372
373
374
375
379
378
380
377
378
377
380
388
389
387
394
400
387
392
392
387
386
387
390
398
405
409
407
404
394
407
424
420
407
402
393
392
398
399
394
392
404
413
413
420
423
421
421
427
427
420
416
419
424
428
429
428
424
417
427
423
413
419
427
435
428
427
431
434
436
428
412
438
442
438
437
436
432
428
427
432
437
441
449
457
458
429
425
432
439
441
447
450
450
450
454
453
451
451
453
450
453
461
468
489
493
443
438
447
447
452
454
457
455
448
457
470
474
466
469
467
464
462
465
467
461
461
466
471
476
481
473
470
476
480
487
480
491
494
494
488
485
483
484
486
493
492
489
486
494
492
497
497
502
494
481
478
481
484
495
494
485
467
467
472
469
464
462
461
465
466
462
454
453
455
452
444
432
427
431
433
428
428
431
447
455
428
419
426
432
432
432
433
431
428
430
432
438
434
434
430
432
433
432
430
429
427
426
426
428
433
438
437
442
429
423
428
417
403
407
439
448
444
436
438
445
439
429
429
429
431
433
434
431
426
424
430
427
422
426
417
425
433
428
418
410
425
436
435
444
441
449
439
421
423
425
427
430
439
440
427
416
412
407
405
408
408
406
407
425
437
452
471
483
501
530
539
558
588
616
645
686
725
764
809
863
914
958
989
989
989
989
988
987
987
986
986
986
986
986
987
987
988
989
944
867
793
724
645
558
471
397
323
249
234
258
278
304
313
313
313
320
316
315
318
322
321
326
336
345
352
364
368
372
371
365
363
380
371
361
373
371
369
365
362
367
369
368
371
373
371
376
379
372
365
363
372
381
385
391
401
387
384
394
400
390
378
374
401
407
406
406
410
413
416
413
408
415
419
419
423
423
422
420
424
432
430
430
434
450
447
434
427
427
430
431
431
434
447
455
457
458
456
455
456
457
457
459
460
460
466
466
464
462
465
478
484
485
474
466
469
476
474
474
480
485
491
483
472
476
486
492
497
493
489
498
507
517
514
520
532
521
514
512
503
514
511
518
523
526
523
524
534
539
543
545
544
541
540
545
550
550
546
541
549
557
562
561
554
554
559
558
560
565
569
568
569
566
567
567
564
561
572
572
568
542
536
537
546
543
532
532
528
522
519
521
521
520
528
528
525
519
513
510
499
478
497
513
496
485
483
476
464
466
466
461
460
452
448
445
444
432
424
418
409
411
416
408
402
393
386
388
386
387
390
391
384
379
377
376
375
378
378
374
382
372
357
358
358
356
360
365
367
365
363
362
364
366
368
368
365
362
366
367
364
363
353
357
363
355
353
359
369
385
376
369
367
373
385
374
369
369
376
383
383
389
394
377
384
384
397
406
391
384
386
386
387
386
389
397
398
396
391
393
396
400
402
396
397
399
402
405
405
398
403
406
405
406
411
410
403
413
419
420
422
423
422
423
415
415
420
420
409
401
419
440
436
426
426
430
433
436
437
437
440
440
438
437
438
438
445
446
438
439
442
441
437
439
441
444
443
445
444
446
451
449
459
458
460
471
457
449
451
458
459
459
455
450
455
455
467
482
477
462
466
476
479
476
472
471
472
466
464
463
463
468
471
472
472
470
464
468
483
504
492
481
484
488
493
493
493
498
488
479
482
485
489
497
509
485
473
486
486
488
493
479
477
484
485
488
495
508
516
502
497
468
458
469
475
475
478
474
472
475
472
468
469
469
461
451
443
436
443
438
428
432
445
436
434
435
427
428
431
443
446
441
441
440
436
436
434
432
432
433
433
434
434
437
441
443
440
433
429
432
434
426
416
443
449
439
438
438
434
435
458
437
422
425
432
433
427
431
441
439
433
427
423
421
424
433
436
433
431
430
430
433
434
434
447
442
440
448
440
431
433
436
438
439
441
441
439
431
432
431
429
424
415
403
395
396
402
410
411
421
444
463
477
487
509
532
554
585
576
609
661
693
731
774
825
825
885
933
970
989
989
988
987
987
986
986
985
986
985
985
986
987
988
988
987
901
820
732
642
527
409
329
280
260
259
272
290
307
321
327
337
332
327
337
347
352
353
353
343
339
359
365
352
357
368
362
365
367
369
372
374
378
376
373
361
361
363
367
368
349
348
355
360
365
370
371
370
375
382
380
381
386
389
391
388
381
382
385
387
390
393
400
405
409
413
413
410
410
412
413
413
412
416
423
421
421
424
428
432
432
430
428
432
435
437
439
439
441
442
447
446
442
443
457
457
439
440
443
450
454
455
453
454
460
462
463
465
478
469
467
466
462
467
477
483
483
483
478
479
486
487
487
491
490
491
491
494
491
504
506
506
503
501
499
501
511
516
506
504
512
523
531
531
532
534
539
542
541
540
549
548
546
544
540
542
542
553
552
548
558
562
554
548
550
550
545
552
572
570
555
540
533
538
540
541
539
540
537
538
542
544
543
538
533
529
527
522
518
507
486
495
518
517
508
498
490
486
493
477
472
486
492
476
457
450
454
455
451
442
434
430
431
430
420
413
413
408
406
406
403
402
400
401
400
405
395
388
389
389
384
383
383
380
382
382
374
368
367
368
369
368
368
373
372
367
367
368
384
385
369
358
365
374
378
378
375
373
373
371
372
368
364
373
374
380
383
388
395
398
393
386
389
408
399
390
391
387
391
390
389
390
395
401
405
396
400
414
409
407
402
391
402
407
408
409
409
409
409
412
416
420
431
431
413
412
412
416
421
427
438
429
420
417
418
421
422
424
425
425
430
432
431
431
435
438
432
425
427
432
435
442
445
444
443
440
440
436
438
440
443
440
422
428
445
450
450
449
457
464
451
446
441
445
448
441
441
444
441
440
456
462
460
458
457
461
464
454
450
464
471
470
469
478
488
458
452
460
464
470
473
473
475
482
483
478
474
474
475
482
483
477
472
469
470
476
476
494
480
473
476
486
494
497
496
486
483
486
492
494
494
494
493
494
494
494
499
501
495
495
504
507
507
491
488
493
493
503
515
527
513
496
475
477
483
493
483
474
475
476
478
482
487
484
479
473
463
455
453
450
444
442
441
443
447
450
443
438
438
439
434
431
440
441
444
446
449
444
430
432
453
455
450
448
448
444
442
442
443
438
440
448
449
448
446
442
442
445
452
460
445
435
438
456
449
425
422
426
434
436
443
443
436
430
431
436
440
426
425
435
442
438
438
449
455
457
457
451
444
441
437
433
435
444
436
438
440
441
441
439
437
430
426
426
422
414
407
401
392
391
398
413
430
448
473
504
530
551
577
597
614
645
697
725
759
812
863
914
960
989
989
988
987
987
986
985
985
985
984
984
985
985
986
987
988
989
989
955
859
763
655
521
413
337
289
261
263
281
301
317
330
339
338
334
338
356
376
362
358
358
356
358
354
353
354
356
356
361
366
366
359
350
341
345
370
373
368
360
366
361
351
357
354
352
363
362
365
370
373
374
375
377
390
378
375
378
382
383
382
382
384
395
403
402
399
407
409
411
418
412
398
400
412
416
413
414
413
417
420
422
421
421
428
435
440
456
456
449
431
430
430
435
441
447
443
454
450
458
446
442
443
454
468
462
457
459
461
466
468
470
460
453
472
486
477
471
471
477
484
486
483
485
485
487
492
494
502
492
487
493
496
498
504
508
511
519
519
503
502
508
509
522
520
521
528
531
534
537
536
536
537
536
536
542
550
555
555
550
546
549
550
552
550
544
555
565
554
529
547
566
573
559
550
557
552
539
539
533
536
541
556
548
540
531
524
523
525
526
521
519
512
516
531
518
497
496
497
492
487
485
485
483
479
471
467
464
464
464
457
449
441
436
434
432
432
431
429
434
421
417
426
417
392
391
387
391
396
390
383
381
379
381
386
384
377
371
375
383
380
376
374
375
376
371
369
371
376
377
380
387
386
383
379
373
369
372
378
380
379
372
373
385
389
388
383
384
384
386
393
392
384
388
391
398
394
393
392
397
390
388
389
399
410
411
400
398
401
403
403
406
405
399
387
410
419
420
420
419
418
416
413
413
415
416
415
418
419
421
423
427
428
429
428
423
424
423
421
423
425
440
442
443
445
432
434
445
432
428
441
441
432
435
436
439
445
446
459
466
444
439
436
431
433
445
449
449
441
440
443
454
448
444
448
442
444
448
448
448
448
450
454
456
455
456
457
458
456
450
449
451
464
463
446
451
462
468
472
466
462
462
464
464
464
463
463
466
466
469
472
474
473
472
470
468
470
475
479
479
477
475
476
482
479
473
479
481
481
478
475
477
480
481
483
483
484
487
493
501
500
484
481
482
484
491
496
504
512
509
503
499
501
503
499
501
505
507
512
509
505
520
516
497
494
507
507
502
502
499
497
492
489
488
487
485
482
474
463
469
503
508
483
459
447
454
451
448
452
443
439
447
446
442
440
434
431
429
429
430
440
447
451
452
454
453
450
445
443
445
447
444
445
449
449
461
465
453
441
440
442
443
442
453
457
438
443
440
437
440
438
438
435
434
434
437
439
437
433
433
444
444
439
443
448
444
442
440
446
448
443
436
438
461
457
440
444
442
442
438
438
441
441
439
436
435
436
437
431
426
427
411
399
393
398
410
418
432
451
465
478
507
538
562
579
605
637
672
672
706
744
786
835
890
950
989
989
988
988
987
986
986
985
985
985
985
985
985
985
986
987
988
989
897
792
676
566
473
385
319
282
263
274
293
312
329
337
342
341
335
339
346
355
364
373
379
361
347
349
362
371
354
354
355
355
357
363
366
366
362
358
354
357
363
370
361
358
352
352
365
377
364
362
361
377
374
368
374
383
386
386
391
391
393
395
393
392
393
393
396
400
402
402
404
403
403
407
413
412
417
426
416
413
422
427
427
426
426
429
433
433
433
434
436
439
439
442
458
452
438
438
439
444
448
448
445
447
453
460
469
474
462
457
468
476
481
479
473
471
469
482
487
478
478
485
491
495
499
499
497
489
480
486
498
488
488
493
487
493
506
512
511
507
512
518
513
513
529
528
522
515
542
543
544
553
551
550
546
546
546
551
540
538
541
543
547
548
551
553
551
557
562
561
558
559
553
556
555
566
564
542
536
538
536
537
538
540
541
534
531
533
534
528
527
525
522
514
510
506
504
502
501
494
486
482
482
486
483
486
480
468
465
463
462
469
464
443
433
433
430
429
427
425
422
415
412
415
409
405
400
395
393
391
391
389
385
389
394
389
383
382
381
382
383
379
387
398
380
380
378
372
376
381
384
386
383
378
382
384
373
359
359
363
366
367
371
390
388
393
385
377
382
387
386
389
393
382
384
396
397
393
384
386
396
398
395
392
391
395
403
402
392
392
384
384
414
421
416
410
407
422
433
420
419
425
415
406
407
407
414
421
417
426
429
431
442
439
423
421
423
424
425
428
427
429
431
431
427
427
429
431
432
430
434
442
446
444
443
443
444
445
452
474
479
455
429
429
433
438
445
445
445
444
443
445
444
440
441
446
454
457
455
451
449
448
454
458
459
456
453
447
449
456
457
457
459
460
463
469
468
466
446
449
456
458
459
462
469
466
466
466
464
467
476
470
470
475
467
467
456
459
461
464
465
465
468
474
475
478
477
475
483
491
488
481
476
474
472
469
473
482
492
491
487
478
484
494
497
497
495
490
487
490
493
494
495
498
501
500
497
495
482
481
520
523
518
520
540
537
498
500
507
503
503
503
494
490
492
491
490
494
490
488
486
484
480
482
497
485
476
471
458
451
451
448
443
442
445
452
457
441
427
445
450
446
443
445
452
452
454
451
449
448
448
447
444
441
440
442
443
444
444
445
447
452
451
441
432
443
447
444
437
440
447
448
444
438
437
437
439
439
440
439
438
435
436
435
434
438
444
444
441
438
440
441
443
443
441
438
436
437
438
441
444
448
449
461
442
440
442
441
439
436
432
429
432
435
424
412
408
404
401
408
419
431
439
456
472
496
514
530
543
557
582
622
673
702
737
737
784
845
908
967
989
989
988
987
987
987
986
986
986
985
984
984
985
986
987
988
989
965
861
764
681
572
459
367
311
311
277
263
282
305
321
329
332
334
334
328
328
335
328
342
366
372
378
361
349
353
355
354
360
364
366
366
362
360
361
361
358
357
359
360
363
365
369
368
367
368
369
370
371
378
378
380
387
379
379
383
382
387
396
397
401
393
393
391
394
394
396
402
407
414
417
409
401
400
424
422
431
438
423
421
424
429
426
425
437
447
439
431
435
442
463
470
436
429
442
442
446
442
447
449
456
459
462
460
463
467
468
466
468
471
480
484
484
485
480
480
486
491
479
476
480
483
486
490
489
494
499
503
504
502
506
507
506
501
499
511
514
517
516
514
506
520
538
534
530
531
534
544
549
534
527
546
562
550
555
555
542
539
547
545
544
549
552
555
556
556
555
556
559
555
550
550
556
560
558
556
552
546
550
553
554
549
552
546
530
530
527
528
527
527
526
522
513
515
515
512
511
511
519
499
481
479
477
477
476
476
467
459
456
452
445
440
444
447
440
432
430
420
418
417
414
410
406
396
403
404
403
401
400
405
399
407
414
380
366
383
394
391
390
387
382
379
378
379
379
379
379
377
377
377
377
376
372
374
387
390
376
373
376
381
381
380
380
382
386
391
393
394
394
399
399
389
387
387
390
390
389
389
392
387
389
395
395
393
387
390
400
405
404
403
405
413
430
413
401
403
392
381
410
421
425
423
419
416
417
419
421
423
431
430
412
417
415
414
421
426
438
437
432
438
453
437
422
421
427
435
433
428
429
435
449
462
449
444
440
440
443
444
443
443
447
452
446
440
438
442
447
450
449
452
459
447
444
449
457
466
466
452
449
447
446
447
451
453
443
443
446
448
453
455
458
461
454
455
452
451
453
455
455
453
454
458
460
466
458
463
470
462
460
462
461
462
468
465
460
461
463
467
473
473
474
476
481
481
485
486
469
464
468
473
474
475
476
480
480
477
475
473
471
479
482
475
479
486
500
500
501
484
488
493
494
492
488
484
492
498
494
492
499
503
500
503
502
505
512
514
511
507
509
509
506
509
509
503
503
503
497
506
519
514
481
481
495
496
497
499
506
497
475
456
474
474
466
459
455
446
449
450
450
453
451
445
443
445
447
450
451
447
446
447
446
443
446
448
459
455
448
445
450
460
460
462
449
441
438
439
441
446
450
444
442
444
449
457
445
445
437
436
437
441
445
446
442
440
441
444
444
445
442
441
447
456
453
433
428
435
436
432
432
436
442
440
439
443
450
450
449
445
447
456
445
439
454
475
445
428
429
430
424
415
410
407
401
403
404
410
424
443
453
474
496
518
538
565
591
624
657
694
731
773
826
881
929
976
989
989
988
987
987
986
986
985
985
985
985
985
985
986
987
988
989
925
823
727
621
621
501
403
332
294
267
259
285
313
331
330
329
336
338
337
340
346
356
367
370
368
373
362
358
354
352
357
364
370
366
366
361
363
362
360
357
361
371
370
367
362
359
361
362
362
365
364
369
379
383
386
389
378
377
383
386
387
387
393
395
395
396
394
403
407
408
407
399
397
404
409
420
421
423
425
425
423
425
431
433
435
437
443
449
448
445
439
436
440
440
440
439
439
438
441
447
446
442
443
451
457
457
455
457
461
465
461
466
468
470
472
471
471
470
471
474
482
498
509
492
492
493
494
483
485
489
490
498
502
496
486
492
502
510
509
514
511
515
527
526
524
531
539
535
527
540
532
516
501
533
556
543
541
552
548
543
543
544
540
536
538
545
555
574
572
562
557
561
568
572
565
559
560
554
552
560
559
549
545
543
543
541
539
534
526
530
537
534
532
527
521
522
518
509
502
498
501
497
491
485
480
478
474
480
477
478
489
474
471
463
463
425
422
425
422
426
425
421
417
410
405
402
403
402
395
391
395
393
388
393
395
391
395
400
392
386
383
383
384
387
380
367
370
373
376
377
376
383
374
363
361
362
365
369
375
380
380
386
391
386
383
391
418
400
370
362
370
384
379
366
366
385
400
402
399
393
392
391
390
390
391
393
396
402
400
405
410
417
412
407
408
398
396
397
399
400
403
409
410
416
416
418
412
401
414
430
420
418
417
421
427
432
432
429
427
428
429
430
429
426
430
435
435
433
437
442
441
442
442
440
441
437
432
430
433
434
431
438
449
448
441
443
454
468
461
436
437
442
450
459
449
440
446
450
456
458
453
449
448
451
451
470
463
446
444
452
453
451
445
442
445
456
462
460
457
455
457
457
457
459
459
453
456
456
457
460
468
469
477
472
472
460
472
471
463
463
463
466
471
476
492
482
468
470
468
467
469
472
471
470
470
459
471
494
489
489
510
499
473
475
483
491
489
490
491
500
503
495
492
493
494
498
499
498
498
502
504
505
505
505
505
506
509
514
515
515
517
516
510
505
505
497
495
493
485
485
484
486
482
483
486
482
476
471
461
459
453
450
457
458
451
462
445
433
440
451
436
429
430
436
436
442
445
447
446
450
454
447
451
464
460
458
439
435
436
430
417
418
441
438
439
446
442
441
453
455
447
443
442
443
442
437
437
438
437
438
439
439
441
444
450
451
449
452
435
424
427
433
437
440
442
441
440
438
443
446
446
448
451
452
452
448
447
443
443
447
449
441
445
445
431
420
414
410
409
404
396
397
398
416
441
467
484
493
504
516
541
576
608
649
649
683
704
737
805
860
918
967
989
989
989
988
987
987
986
985
985
985
985
985
986
986
987
988
989
943
847
755
682
564
428
342
292
285
262
265
297
310
320
325
324
324
330
324
331
350
349
348
354
356
359
358
360
352
360
364
370
370
367
369
369
367
367
364
364
370
372
368
368
367
366
370
373
374
380
389
393
379
370
372
375
378
385
399
391
377
384
386
390
407
407
412
404
402
402
402
399
396
409
420
430
430
423
420
426
431
429
425
429
436
435
429
435
448
440
431
432
446
456
461
458
449
453
449
461
475
465
456
457
455
447
467
473
469
468
465
469
485
492
490
492
488
485
488
494
496
493
489
492
495
495
499
494
491
491
496
500
503
515
522
514
510
512
514
526
545
543
511
514
523
531
530
533
535
529
536
541
540
547
558
558
563
559
555
559
561
559
553
556
567
563
556
555
551
553
558
566
568
562
558
558
559
560
558
556
557
559
558
555
554
551
546
536
527
535
537
529
535
535
532
526
521
514
512
510
508
513
519
508
499
497
490
488
469
466
463
453
441
437
436
436
432
429
429
426
421
419
415
408
403
400
398
395
389
379
385
402
403
395
388
384
386
385
378
378
380
382
383
384
381
381
379
374
368
355
375
378
377
376
381
388
387
379
374
371
374
371
370
372
373
371
375
377
377
368
372
379
378
377
379
387
385
391
393
393
389
387
393
395
393
390
387
389
391
400
392
388
391
403
410
413
411
411
413
416
409
408
414
420
416
416
414
415
417
423
424
419
422
422
417
409
421
424
420
425
425
423
424
428
431
432
433
439
448
437
426
419
428
449
442
442
430
427
433
435
438
437
435
448
455
447
444
450
437
431
439
455
435
440
448
445
448
462
453
444
432
438
441
447
458
466
469
467
463
461
467
468
464
461
460
464
466
466
476
490
483
471
474
480
490
490
489
477
474
479
475
472
473
472
474
474
477
477
482
481
483
487
491
493
494
492
501
503
503
497
488
480
473
486
493
496
500
503
503
500
499
500
500
498
500
500
506
506
504
505
513
524
504
495
483
474
470
475
478
474
474
468
481
486
483
477
473
472
466
439
450
462
451
441
437
443
460
456
444
438
435
430
435
440
439
441
443
436
436
442
446
450
450
451
445
449
463
442
433
444
445
441
444
444
443
443
441
441
443
445
441
440
438
446
443
435
426
439
448
459
447
438
437
440
445
447
444
444
446
446
453
448
439
440
448
448
462
458
431
427
433
436
436
437
444
448
448
452
446
442
443
441
439
441
442
436
431
420
411
408
411
424
440
451
465
481
496
503
516
528
583
623
650
687
722
745
774
820
873
922
970
989
988
988
987
987
986
986
986
986
986
986
987
988
988
988
989
929
850
779
706
630
536
426
347
304
284
282
288
304
328
335
343
336
320
324
326
328
331
342
357
372
392
396
376
376
374
376
375
372
376
382
385
385
384
376
376
379
372
368
378
386
388
387
384
382
383
387
386
384
384
389
397
402
404
401
400
404
421
423
399
403
415
404
400
409
417
419
429
433
427
428
433
419
422
427
421
428
433
431
434
435
437
439
436
436
446
453
454
450
440
437
445
456
464
469
463
477
474
469
466
468
471
475
477
475
474
476
477
476
477
479
487
491
491
491
492
489
482
476
509
509
504
507
515
516
511
509
502
498
499
500
500
506
511
515
523
527
538
558
568
529
521
529
527
538
554
549
539
542
552
565
556
550
550
551
557
560
563
564
562
562
565
572
575
573
571
565
568
576
573
569
568
579
573
573
565
566
562
566
564
555
551
554
552
549
544
539
538
541
541
536
527
518
523
522
512
507
513
515
504
485
479
478
473
473
465
463
470
474
472
461
447
439
436
434
436
430
425
423
433
422
420
414
385
388
387
393
392
386
379
391
389
382
378
377
377
378
379
380
378
373
365
368
378
382
372
364
358
359
365
369
369
369
372
375
376
377
370
366
369
368
355
365
374
374
380
381
382
379
371
372
380
387
383
380
384
382
376
372
375
394
391
377
379
396
400
393
393
398
408
405
398
398
406
406
411
410
408
409
411
412
416
417
413
408
407
412
415
414
413
414
413
413
410
409
420
425
427
429
424
418
420
423
441
463
421
408
418
425
427
431
434
432
428
431
433
438
438
438
438
438
438
435
436
442
444
449
445
446
446
438
442
461
455
455
452
449
444
449
451
451
452
454
456
463
461
465
453
456
464
470
471
468
467
465
466
467
469
464
465
471
480
487
484
484
476
477
491
480
475
473
475
476
473
473
480
491
482
479
488
494
495
495
493
483
481
501
504
500
494
496
489
479
486
504
501
493
497
502
505
505
499
496
497
500
503
512
508
486
490
486
478
477
486
487
487
482
475
470
467
467
467
462
453
453
456
454
445
441
441
441
441
438
434
434
437
435
437
437
436
439
448
450
456
447
440
442
440
446
448
447
452
447
446
446
457
448
438
435
432
435
435
433
425
419
421
431
439
441
444
449
448
444
438
443
453
447
436
437
448
440
437
433
430
443
443
444
442
437
436
430
435
440
444
444
442
444
453
455
442
426
429
433
434
433
438
437
438
433
427
426
421
414
410
410
405
403
412
422
420
431
455
474
490
511
534
572
586
592
622
655
695
732
772
826
883
937
980
989
989
988
988
987
986
986
986
985
985
985
985
986
986
987
988
989
932
842
744
653
542
427
343
295
261
257
276
298
320
334
339
334
332
331
338
346
354
358
361
365
367
361
361
355
350
348
354
361
366
371
368
365
375
365
361
363
364
364
367
369
374
375
358
359
367
367
367
362
378
384
385
385
386
384
385
390
392
394
394
394
399
403
406
404
404
406
404
404
410
423
419
414
426
432
428
428
427
428
418
415
420
419
423
424
424
429
433
434
436
428
434
443
442
439
453
459
456
457
459
461
464
465
465
461
460
463
465
462
468
476
476
468
469
472
479
476
479
482
490
504
497
491
486
489
483
492
500
497
498
498
500
497
492
502
508
508
510
519
532
531
517
515
522
526
529
530
535
539
537
532
524
524
561
557
553
561
555
553
555
551
546
545
550
553
553
553
555
559
560
555
552
554
558
560
559
553
546
544
547
551
551
541
537
539
539
526
520
520
524
523
517
516
514
511
510
506
502
497
490
487
485
469
467
467
459
446
436
437
442
467
471
436
431
435
432
421
414
413
412
403
401
399
401
397
396
396
393
388
388
385
392
389
385
384
381
379
378
377
378
378
377
377
372
378
375
376
363
364
367
371
370
365
366
369
370
370
372
372
370
374
382
390
385
388
377
368
364
369
375
382
387
391
389
393
390
384
385
382
382
389
395
396
392
393
399
400
401
406
409
412
402
402
404
407
409
412
424
421
400
413
429
411
404
407
407
407
409
411
413
416
420
423
419
422
436
436
437
430
428
428
431
433
438
447
445
425
419
425
437
429
415
420
419
415
431
445
452
450
444
443
445
446
445
444
440
440
439
439
439
438
440
445
444
428
434
456
464
466
462
455
451
451
455
458
462
460
462
466
469
474
476
458
450
454
457
459
461
465
466
464
466
469
473
474
474
474
473
471
472
473
473
476
479
480
477
475
475
475
479
479
475
479
487
490
493
493
492
495
491
488
487
486
486
488
489
484
490
500
506
516
505
498
499
504
525
503
470
482
491
488
487
491
494
496
495
495
492
488
485
490
493
494
486
480
476
480
479
474
474
475
467
449
443
440
439
438
435
436
441
446
444
437
448
450
447
445
445
442
441
439
440
435
431
439
448
452
440
440
445
447
443
442
440
441
441
441
436
436
436
437
437
438
435
432
436
436
438
436
437
436
438
438
436
432
432
434
432
434
435
435
438
444
450
434
425
416
442
452
447
444
446
441
434
436
440
440
445
451
463
466
434
424
434
440
439
444
421
405
399
395
395
389
400
410
419
437
458
476
495
518
540
566
591
631
659
696
743
778
818
861
913
971
989
989
988
987
987
986
985
985
985
984
985
985
985
986
987
988
989
931
831
735
638
518
410
410
334
289
261
260
276
297
323
334
337
344
343
336
341
351
358
363
359
365
368
355
348
350
355
367
364
356
342
347
358
358
354
352
348
353
357
353
354
359
354
350
351
361
370
370
362
367
373
376
379
378
376
379
385
389
388
385
386
387
377
382
392
398
402
415
406
406
409
409
412
408
405
404
409
413
419
422
413
415
415
406
411
434
436
436
437
435
436
439
442
442
445
445
445
474
473
448
441
442
452
452
445
450
464
466
464
462
460
458
460
465
467
470
479
493
498
480
463
464
473
473
481
492
493
491
494
500
510
509
491
487
490
492
493
502
506
507
508
509
510
518
526
534
535
535
536
537
547
551
545
544
546
549
552
556
555
553
550
551
555
563
557
546
546
548
551
552
553
556
559
554
545
547
554
552
549
545
539
542
542
542
540
539
534
530
529
526
526
523
529
524
509
505
509
489
483
487
488
480
472
470
471
469
473
470
446
441
443
445
440
440
434
431
428
424
417
413
407
408
408
404
400
396
396
388
393
393
392
400
386
376
377
384
386
381
375
374
376
376
375
375
373
374
376
373
367
363
360
370
374
372
369
372
378
374
374
388
384
364
365
366
356
363
383
383
377
379
387
394
393
393
387
386
388
391
390
392
400
396
397
407
403
386
386
392
398
400
401
404
409
412
407
412
403
409
415
415
415
417
425
425
432
421
430
419
404
412
410
411
413
424
426
424
421
421
424
432
444
430
424
428
432
432
434
436
437
435
431
425
423
436
436
435
436
436
436
438
439
441
439
442
440
435
435
436
440
450
451
450
455
458
455
452
451
456
447
442
446
453
453
453
461
460
442
435
440
445
446
446
450
456
463
465
458
454
455
457
476
488
462
450
455
459
459
459
458
461
464
463
461
461
464
468
471
474
478
480
481
474
473
470
470
472
473
469
468
471
476
478
478
481
486
485
489
491
480
477
482
489
492
494
495
497
493
486
482
477
504
503
492
496
511
502
496
501
508
512
506
511
500
513
507
493
495
496
493
497
500
494
489
489
486
486
486
482
480
478
477
475
470
461
456
454
457
462
440
435
446
457
464
447
446
438
437
441
447
455
447
438
435
435
435
436
440
445
445
442
443
442
441
441
439
435
441
446
455
468
450
430
423
432
456
453
445
441
435
435
435
422
423
430
434
438
439
433
439
442
434
433
442
451
449
440
436
438
439
437
438
438
441
440
438
438
442
447
445
443
439
439
441
441
445
440
440
453
455
436
426
418
410
403
391
384
381
390
415
439
437
457
476
495
515
541
573
601
629
662
697
737
782
782
831
882
934
972
989
988
988
987
986
986
985
985
985
985
984
985
985
986
987
988
989
929
824
717
615
496
401
328
289
263
257
277
300
316
326
336
354
341
333
346
352
355
365
368
358
350
346
344
343
346
356
354
349
357
361
367
373
359
344
344
353
354
364
367
343
343
349
354
357
360
363
368
370
366
366
370
377
381
373
376
382
387
391
393
393
393
396
397
396
396
395
396
398
401
405
409
416
423
427
428
425
403
403
410
422
437
424
420
421
426
430
432
434
442
444
438
443
454
449
445
447
445
441
438
448
446
440
456
464
466
460
455
455
457
461
467
459
466
494
495
495
500
495
480
474
484
488
492
486
486
479
483
483
488
499
500
506
506
508
510
509
501
489
515
528
527
523
521
527
532
532
532
531
534
536
539
541
542
547
547
550
551
547
547
547
550
562
563
569
554
557
559
548
551
561
559
555
543
542
544
545
548
546
541
541
543
545
542
540
537
533
548
543
540
556
530
490
486
490
493
494
491
486
484
484
485
490
481
463
463
462
457
451
439
433
431
432
435
434
434
428
422
428
431
427
403
395
398
396
398
396
379
374
381
387
386
383
380
379
380
380
380
378
373
370
372
372
370
367
367
367
369
373
373
368
367
365
363
361
357
357
368
373
373
374
378
383
387
382
384
389
388
378
377
395
395
393
389
388
388
393
410
395
396
392
378
378
386
394
391
392
401
398
398
398
399
401
402
404
404
411
406
405
409
407
409
416
416
410
410
395
415
423
420
418
416
416
419
423
423
422
418
421
430
433
436
445
451
455
459
459
432
410
415
425
431
433
432
434
434
440
432
430
432
444
451
438
434
438
446
452
445
442
442
442
444
443
443
445
460
460
444
440
443
446
445
446
448
449
452
455
452
450
461
470
459
451
448
445
446
453
452
451
464
466
449
446
449
449
452
459
456
455
459
462
462
468
473
466
466
456
455
454
456
458
460
461
461
464
464
461
460
456
453
460
476
479
483
485
478
472
462
461
468
475
480
480
483
480
480
481
483
490
489
479
482
498
493
492
493
479
478
497
501
498
496
498
497
497
496
499
502
508
512
520
535
508
499
506
508
508
519
515
490
493
497
494
493
496
486
482
487
489
483
475
460
456
480
480
484
469
448
447
442
442
444
447
447
446
446
444
445
444
443
446
449
450
449
446
443
439
442
446
446
443
439
438
451
459
442
436
442
444
444
438
433
436
439
441
441
442
442
441
439
435
431
434
435
438
441
433
431
437
453
459
448
431
432
435
438
445
452
449
442
436
427
426
437
435
442
439
435
435
436
439
445
447
439
440
443
442
439
437
435
430
424
422
422
418
412
399
399
401
393
400
414
434
454
478
478
507
530
542
563
585
613
651
696
759
787
813
868
932
982
989
988
988
987
987
986
985
985
985
985
985
985
986
986
987
987
988
989
915
816
720
627
499
394
321
279
256
260
272
290
315
340
353
344
335
334
341
359
358
352
352
351
353
357
355
352
347
349
355
354
351
349
354
363
366
366
370
374
371
367
377
372
361
360
361
358
361
360
357
356
358
355
369
389
402
402
392
389
389
391
387
375
402
414
405
404
419
425
414
406
407
409
412
412
413
411
416
426
428
426
427
428
429
432
430
430
429
431
434
436
436
438
440
447
447
446
445
445
445
445
448
448
450
459
464
465
457
460
461
467
460
474
469
458
465
470
470
477
486
488
506
500
468
475
484
486
487
490
492
496
497
499
500
500
499
497
506
514
527
533
537
537
542
534
533
533
535
532
540
540
532
537
538
540
543
549
551
551
553
555
555
557
556
557
559
561
560
554
554
553
553
554
555
560
563
563
563
576
564
534
529
537
545
537
534
535
530
512
518
533
539
537
527
518
514
514
509
499
503
503
501
496
491
485
481
478
474
469
461
455
452
452
446
435
430
429
425
422
415
412
411
411
407
403
400
394
393
391
388
385
381
382
382
383
378
378
377
378
372
369
379
373
371
379
368
361
361
370
377
375
375
376
375
373
381
392
370
352
351
357
364
366
366
368
361
361
365
370
371
377
371
369
369
373
387
398
387
382
385
388
387
388
389
387
389
392
413
455
395
375
382
383
387
394
398
401
412
417
406
400
400
407
416
419
416
411
412
413
417
421
418
417
419
415
412
420
421
421
425
424
424
432
436
440
443
443
430
420
422
425
431
434
432
428
434
448
447
443
442
439
425
420
448
451
453
465
443
433
443
439
441
440
433
443
450
450
452
452
459
464
446
444
450
451
453
454
457
454
443
441
442
444
443
441
447
451
454
454
453
452
454
455
456
466
460
450
448
450
454
459
458
468
462
451
458
454
447
446
452
456
456
455
453
454
457
460
460
462
458
453
453
458
474
464
453
453
464
481
483
481
486
481
475
470
468
477
493
474
468
469
466
473
489
477
471
471
471
478
486
488
486
495
506
494
492
492
501
506
501
492
489
493
496
494
494
498
501
504
506
506
499
502
508
510
512
513
517
514
505
500
498
499
499
498
493
491
494
496
493
480
470
467
470
466
456
465
466
468
474
453
444
447
442
444
442
441
441
431
426
453
454
458
457
456
445
445
442
444
442
443
440
440
440
444
446
443
441
444
453
454
442
436
435
435
438
438
438
443
444
438
438
449
444
436
446
446
440
428
420
423
427
433
440
440
435
435
434
435
434
429
430
442
453
428
423
438
443
445
448
448
445
452
457
442
440
445
447
444
444
449
445
434
433
429
420
409
400
393
399
391
392
398
414
436
459
480
494
517
545
576
603
631
682
726
745
745
784
836
892
949
989
989
988
987
987
987
985
985
985
984
984
984
985
985
986
987
988
989
912
816
723
611
486
385
315
315
280
267
274
283
297
313
322
324
329
327
328
333
339
346
356
361
357
356
353
355
357
354
346
350
371
364
347
336
339
345
343
356
358
359
351
347
351
355
352
354
350
361
376
374
371
375
376
378
387
411
415
394
385
371
374
376
384
390
396
396
399
399
400
400
399
403
407
408
405
415
418
417
418
421
417
416
424
430
431
428
427
432
428
427
430
437
444
447
446
446
445
444
447
449
448
439
430
463
475
473
461
463
466
468
467
465
471
474
472
472
479
480
482
483
485
486
490
492
493
489
492
492
486
489
491
491
500
508
511
507
508
512
518
519
511
513
518
520
523
526
527
526
529
533
529
531
541
555
543
543
537
539
543
546
546
546
549
544
555
575
578
570
558
547
553
560
565
562
547
551
552
552
546
545
545
543
541
539
539
539
537
538
540
536
528
520
515
512
508
507
507
505
508
502
496
487
487
480
478
482
481
488
492
457
441
442
441
442
448
451
445
434
433
428
419
418
423
421
404
388
381
386
391
393
389
385
383
398
383
375
383
381
377
377
379
379
377
371
375
375
382
371
365
368
369
369
370
367
367
370
375
373
374
384
379
382
388
374
370
375
375
375
375
383
380
381
382
373
377
377
402
403
395
393
392
386
390
392
395
395
395
398
399
398
404
401
399
401
403
405
403
406
407
410
413
418
417
414
414
414
420
424
420
413
415
421
422
425
428
428
419
413
414
415
425
425
427
430
430
425
423
432
437
425
421
421
426
437
444
444
441
436
436
439
439
442
446
448
446
444
443
444
445
449
450
450
448
447
448
445
442
445
451
451
451
456
451
452
453
453
451
449
454
463
452
449
463
463
459
455
455
454
453
452
451
450
457
452
451
452
455
451
451
459
462
451
454
458
457
457
453
451
452
457
460
462
469
469
460
462
458
462
466
464
463
463
463
465
466
475
493
471
460
467
473
475
484
481
478
478
473
469
470
472
473
473
474
480
474
474
473
477
489
488
504
495
488
490
496
501
512
500
479
484
492
496
496
495
494
494
496
500
501
504
504
508
510
509
503
503
506
508
507
503
499
500
500
499
504
495
490
486
482
479
479
483
486
481
479
470
466
458
453
447
444
446
444
444
445
446
449
451
449
450
449
451
451
450
456
448
442
445
447
445
440
442
449
457
459
459
450
447
444
450
450
442
443
442
439
438
441
446
446
443
443
442
443
444
443
442
448
448
437
434
439
439
427
445
444
444
445
442
443
453
445
438
439
438
442
447
451
443
437
439
449
448
442
440
440
440
440
444
445
444
445
442
437
433
428
422
414
405
398
400
410
419
423
441
457
474
491
514
539
567
591
620
655
698
738
777
824
878
933
982
989
989
988
988
987
987
986
985
985
985
985
985
985
986
987
987
988
990
900
806
722
627
503
399
322
276
251
251
262
281
317
351
341
334
328
328
324
316
310
321
346
352
350
355
361
362
361
358
355
356
358
371
377
374
362
371
389
371
355
347
354
365
367
369
377
392
391
390
385
378
376
381
384
384
385
389
393
394
400
398
391
392
398
402
403
400
403
406
408
412
417
420
426
428
424
424
424
433
450
433
412
413
417
423
424
432
439
439
442
443
438
440
439
442
443
441
444
448
458
465
466
468
463
463
466
466
470
469
466
464
461
470
470
478
492
497
480
495
508
478
466
481
488
483
484
486
488
491
498
509
510
509
511
510
509
511
513
510
511
521
527
527
532
540
536
523
519
531
541
540
540
540
550
561
536
526
535
536
527
563
575
574
572
569
569
569
563
562
568
570
568
564
565
566
569
570
565
560
560
564
565
562
556
553
550
550
547
546
545
542
539
527
518
517
515
515
516
518
510
508
517
520
491
478
475
472
470
468
460
456
460
465
460
453
444
441
445
428
417
418
416
416
414
409
407
405
399
392
388
388
387
393
400
385
372
372
375
371
371
371
368
368
371
376
366
364
364
366
366
360
358
365
377
385
365
365
364
366
374
377
370
367
366
367
367
362
374
376
363
356
362
370
361
367
389
396
394
391
388
381
387
396
401
401
389
389
386
392
400
412
394
391
395
400
398
396
396
406
405
395
399
406
411
411
407
407
406
408
411
423
413
403
394
393
421
432
431
433
434
429
432
434
428
425
426
429
434
433
430
426
422
422
426
431
434
435
437
442
442
441
447
451
440
432
434
434
445
445
441
444
443
445
448
447
453
452
444
440
443
442
440
445
447
448
454
455
456
452
448
447
454
446
448
455
456
456
457
462
461
460
461
457
457
464
469
471
469
473
478
481
480
472
465
469
486
497
468
462
476
481
481
500
466
463
467
468
468
472
480
484
484
480
484
491
494
504
495
483
483
487
492
493
493
487
485
496
492
494
493
496
509
507
498
495
501
501
514
509
502
496
494
499
497
485
478
475
481
480
480
481
480
483
485
480
462
462
462
451
444
437
434
434
439
448
445
445
445
446
445
446
440
436
435
433
435
434
438
446
452
459
450
443
441
440
435
438
444
447
446
445
445
444
445
443
439
441
440
440
443
442
440
444
444
437
431
432
430
432
441
443
432
435
448
455
442
437
437
438
440
438
433
435
436
437
433
433
434
435
437
442
442
443
445
460
461
436
432
441
445
441
432
428
433
446
445
424
416
417
420
419
417
416
426
437
453
453
473
488
508
536
561
580
603
633
667
708
740
778
824
877
923
967
989
989
988
988
987
987
986
986
986
986
986
986
987
988
989
970
899
832
752
670
578
470
378
319
284
272
281
298
308
319
322
327
329
337
330
327
327
326
337
351
359
365
366
366
368
367
370
376
387
384
382
380
376
377
380
380
380
377
376
379
380
378
385
400
403
378
385
394
384
379
378
379
382
382
385
389
392
398
406
400
401
404
407
410
415
429
409
402
412
416
416
419
424
427
430
432
432
433
435
435
435
436
438
442
445
447
445
444
450
457
456
453
453
456
459
459
458
459
463
469
466
468
470
470
474
474
474
474
479
482
481
477
478
478
481
487
489
489
491
494
495
497
497
498
502
507
508
506
506
510
514
517
514
515
524
532
527
524
524
540
540
532
544
544
536
536
539
542
542
539
548
557
559
559
563
567
569
570
568
565
569
573
571
571
573
585
592
572
572
578
585
571
563
565
567
569
569
566
565
562
563
563
558
554
549
552
554
548
543
536
536
536
538
540
546
541
514
495
493
491
489
489
484
484
481
472
467
462
457
454
452
447
441
435
430
427
422
418
414
411
405
400
397
397
403
389
385
384
383
381
379
380
390
390
386
360
359
363
369
371
369
367
368
367
367
365
362
363
363
365
363
361
363
366
364
362
360
363
366
368
366
364
364
366
367
372
374
379
378
375
370
370
375
380
377
369
365
377
385
382
374
373
379
384
400
384
383
389
391
390
391
396
404
404
414
412
405
405
408
415
417
411
413
424
418
410
406
397
401
409
403
404
417
424
409
411
418
420
420
422
423
419
412
412
410
427
440
427
417
428
422
423
423
421
441
444
434
432
453
467
453
435
437
439
444
445
443
443
443
443
445
446
446
444
444
448
447
444
441
441
447
448
446
446
461
469
457
451
453
451
465
465
463
464
471
473
475
473
474
473
476
478
475
475
473
472
474
482
501
495
472
471
478
471
457
476
486
480
475
474
479
487
489
488
485
482
481
484
483
487
488
484
484
484
485
480
492
503
513
511
493
491
502
510
508
502
501
503
511
511
501
492
494
506
502
500
498
474
474
476
475
476
477
478
475
467
471
466
460
451
457
464
441
421
431
443
453
451
445
441
439
439
447
445
445
440
437
441
446
446
447
447
441
441
444
446
440
436
429
411
396
430
430
429
427
440
454
451
444
441
441
444
446
446
445
443
438
434
435
435
435
438
446
446
435
429
436
436
443
436
434
431
424
435
442
442
439
438
441
435
436
436
435
438
440
442
443
442
447
446
435
435
434
430
426
422
419
419
426
420
409
402
402
408
420
442
465
476
498
523
560
585
589
605
649
680
710
753
801
856
907
954
989
989
989
988
988
987
987
986
986
985
985
985
985
986
987
988
989
989
901
808
715
619
503
402
342
291
250
258
270
292
309
309
322
320
327
331
326
324
340
349
355
357
355
356
361
351
347
347
350
356
358
358
356
360
361
361
365
371
365
356
353
357
358
357
362
362
356
357
361
374
371
385
402
377
365
370
378
389
381
379
383
387
391
395
398
402
405
403
401
403
405
405
405
403
406
408
413
418
422
423
430
438
429
409
415
432
432
430
433
434
437
441
443
443
454
469
442
428
428
429
432
432
440
445
443
444
451
462
476
476
482
472
464
465
468
472
478
479
479
483
498
491
464
465
475
481
487
496
513
510
502
487
490
497
504
510
508
506
508
508
512
522
529
514
515
520
525
533
541
540
538
540
543
544
543
541
542
544
545
545
546
546
556
564
569
584
572
548
555
558
552
555
561
563
563
559
555
558
557
548
555
553
542
534
536
534
539
539
523
517
518
518
527
519
514
513
511
510
519
520
487
478
480
480
487
484
464
457
455
452
449
443
436
435
434
431
428
428
426
421
418
418
421
408
396
388
391
409
392
381
378
380
384
388
402
415
372
359
367
371
380
407
389
361
354
352
352
356
357
360
365
365
370
371
366
364
363
364
362
363
366
372
373
372
373
375
373
372
372
376
381
382
383
380
383
383
382
386
391
399
389
389
385
390
394
393
393
394
393
393
395
402
404
406
407
400
396
401
409
395
399
413
421
415
410
414
416
418
416
417
421
424
428
428
426
421
417
421
424
423
423
425
427
428
425
428
434
433
434
435
434
434
435
435
436
435
434
438
439
439
438
438
439
439
437
436
441
465
450
432
432
435
442
444
442
440
441
444
445
446
447
448
452
455
452
451
453
457
457
454
456
456
465
471
459
456
453
453
457
459
462
464
469
474
470
475
479
477
476
473
470
472
474
476
476
479
479
478
477
477
477
475
475
477
480
481
481
484
489
490
488
488
489
491
492
491
490
489
491
493
493
491
493
496
497
496
498
500
503
503
499
499
499
499
500
499
498
494
491
491
488
487
488
491
497
509
505
477
460
467
485
456
447
447
449
444
439
438
441
434
430
430
447
442
437
442
442
439
438
439
439
441
441
444
446
445
442
442
437
437
439
440
442
440
446
458
441
440
440
435
429
431
433
433
433
436
440
437
431
430
432
433
434
432
434
436
431
432
433
434
441
435
428
431
431
436
440
441
439
441
440
440
438
439
437
437
440
441
445
440
439
443
443
443
441
437
435
434
431
426
425
430
416
400
399
395
394
401
413
431
453
453
475
496
520
540
563
590
621
655
691
732
777
824
875
928
978
989
988
988
987
986
986
985
985
985
985
984
985
985
986
987
988
989
939
834
736
642
511
393
321
285
269
275
290
306
341
336
328
331
328
327
338
346
351
354
361
357
353
353
352
352
350
349
349
348
341
343
348
349
349
347
347
346
346
349
355
359
362
363
359
357
361
372
362
362
363
366
369
371
374
374
372
372
373
375
379
384
386
385
387
390
411
411
385
388
393
397
397
398
399
400
399
401
407
409
415
426
429
434
443
453
434
414
417
426
429
427
428
435
439
441
438
440
442
445
451
460
453
441
450
465
473
458
432
441
451
457
467
474
472
472
468
468
470
473
472
476
483
490
498
501
498
499
501
485
483
488
489
494
499
506
512
519
512
509
514
516
517
520
526
526
531
531
521
520
522
527
525
522
529
539
544
546
546
549
553
558
565
583
585
562
552
552
556
552
549
549
547
547
548
555
562
551
548
543
538
538
536
536
537
542
550
569
557
522
516
517
508
501
498
500
499
504
500
499
495
488
479
471
466
466
466
463
461
457
455
456
456
456
437
433
431
425
421
414
411
411
407
403
398
391
388
386
383
389
384
380
377
366
370
370
377
374
376
378
376
374
372
370
366
366
371
367
362
361
366
365
367
367
368
365
363
365
372
374
371
367
363
357
357
370
379
388
387
380
375
374
380
380
389
389
383
375
381
393
387
384
394
396
398
395
392
391
389
396
391
389
396
400
400
400
400
405
410
416
419
420
417
403
387
392
428
434
432
411
405
423
412
404
414
420
420
418
416
410
408
415
416
425
425
425
428
428
427
429
428
432
436
443
450
443
437
433
435
434
432
446
449
448
447
445
442
434
432
439
439
439
437
441
448
453
451
445
441
444
447
447
442
442
446
448
443
441
448
455
457
457
452
449
442
435
444
450
451
455
459
463
461
453
453
453
453
450
453
456
450
458
483
466
469
467
467
476
468
470
473
470
466
469
473
470
463
462
458
454
469
489
495
490
499
499
498
493
499
499
479
468
464
466
472
476
478
483
484
483
486
493
496
505
502
484
477
501
515
514
505
499
499
502
509
511
500
504
500
496
495
491
485
478
474
479
489
490
492
489
484
482
484
485
482
478
472
460
461
470
455
443
438
445
452
452
455
455
451
439
426
420
418
422
429
434
442
460
469
465
456
455
454
451
441
438
441
446
455
456
445
443
449
455
452
452
447
451
435
420
427
426
427
432
444
444
435
427
428
427
428
433
449
454
450
440
438
445
449
441
437
440
442
440
438
446
451
439
450
438
429
428
429
430
447
452
432
426
438
453
453
443
436
427
421
419
415
407
396
392
388
423
432
436
451
451
466
491
509
539
587
609
628
645
678
720
767
815
876
925
972
989
989
988
987
986
986
985
985
985
985
985
985
985
986
986
987
988
989
959
848
757
653
523
416
345
307
281
281
284
298
318
329
326
327
336
339
335
336
340
347
355
356
354
350
349
349
347
342
345
361
368
365
361
359
356
353
348
345
356
362
372
364
366
371
360
351
352
353
354
366
361
371
374
369
369
375
381
385
388
396
385
379
384
392
400
400
399
400
408
411
424
400
390
394
397
406
412
420
430
423
404
411
419
420
420
420
429
435
432
433
433
431
421
409
425
469
474
462
461
451
445
448
453
462
471
469
461
457
458
464
461
460
458
462
481
486
482
481
464
468
484
495
501
508
505
495
490
492
489
487
487
493
499
503
505
506
509
514
516
517
519
514
515
522
522
521
523
531
536
540
546
542
536
536
537
539
545
548
556
568
555
543
546
549
554
557
560
560
565
558
560
567
556
553
553
550
548
557
555
550
558
582
552
519
524
536
533
531
531
530
525
518
514
510
506
503
506
510
508
501
497
494
489
484
482
479
473
468
463
462
456
453
450
446
431
423
417
416
423
422
419
418
409
398
398
395
396
395
383
367
368
395
390
383
383
384
388
383
376
369
371
374
367
368
376
373
369
366
365
363
363
371
375
371
368
371
373
373
375
381
396
407
379
365
365
374
369
365
360
365
371
376
380
387
402
391
365
367
373
379
383
386
387
389
392
394
398
400
396
398
404
398
401
406
397
401
406
409
409
408
407
408
413
415
419
412
405
408
413
415
413
414
418
423
423
423
425
425
427
429
429
430
426
423
423
422
424
426
431
431
429
430
433
435
436
437
435
437
440
439
438
436
441
441
440
438
440
444
445
445
442
441
445
445
445
444
440
442
444
447
447
446
446
447
448
449
448
449
452
455
455
457
469
472
455
435
429
439
466
465
449
456
452
430
431
440
442
450
454
455
455
460
459
452
454
457
455
454
457
459
462
462
464
463
461
464
465
465
467
471
475
475
472
473
473
473
472
470
469
471
472
474
474
474
474
472
471
472
472
478
483
485
487
489
491
493
493
491
491
496
497
499
498
500
500
506
502
500
502
501
503
505
506
504
504
506
508
507
504
503
503
501
500
500
493
489
487
485
483
481
483
483
481
479
478
472
471
466
456
449
446
444
441
441
441
442
445
447
458
462
446
432
428
435
440
445
461
448
429
438
444
440
434
435
435
438
439
441
436
437
437
440
442
443
439
439
441
445
439
435
433
431
434
442
457
470
430
414
423
432
436
437
441
440
440
438
434
432
434
437
434
432
432
436
438
438
436
437
439
440
439
438
440
443
443
439
439
440
440
441
438
434
430
427
426
416
404
397
392
392
401
403
408
428
448
466
482
518
536
561
593
629
664
696
722
752
803
862
920
973
989
989
988
987
987
986
986
986
986
984
984
984
984
985
986
987
988
989
944
845
751
650
525
414
341
301
268
260
274
294
312
323
324
330
330
332
332
342
347
348
360
369
352
347
346
347
347
347
357
362
355
356
359
375
381
355
340
343
353
341
342
349
352
353
357
361
361
357
358
361
366
369
369
368
371
376
377
379
380
384
390
403
396
391
399
401
401
402
392
390
399
405
407
408
408
411
412
413
416
417
417
418
420
422
422
427
430
432
431
432
435
439
440
442
441
445
446
447
446
448
449
452
454
456
456
454
453
463
471
467
463
463
468
471
473
472
475
475
475
476
475
480
485
488
486
488
491
497
502
495
493
496
500
502
504
504
509
514
516
521
531
527
519
528
529
520
520
525
527
529
531
533
537
540
542
543
546
548
550
551
552
552
554
557
557
574
566
560
572
583
557
545
550
566
577
566
537
539
537
548
549
538
537
540
542
537
531
531
533
531
525
521
518
519
519
517
513
510
507
503
497
492
488
483
480
477
475
472
467
464
460
454
450
449
451
434
427
423
425
423
422
414
406
402
406
402
395
393
392
392
390
385
383
384
384
383
380
376
375
374
373
372
369
368
368
370
370
372
374
375
380
390
380
366
366
364
367
369
366
366
368
371
384
377
383
380
367
370
378
390
372
368
372
374
379
389
385
377
378
384
388
390
393
393
393
392
395
395
393
395
398
403
407
405
403
402
402
410
410
410
421
392
392
404
408
408
411
411
412
413
416
418
422
422
422
422
423
423
423
421
424
425
427
426
427
426
427
434
441
430
423
430
436
432
429
432
434
439
440
438
436
437
438
437
437
441
441
440
442
441
440
443
448
451
449
445
444
445
450
453
441
441
447
450
451
455
470
446
436
437
448
460
463
458
458
446
444
444
447
448
454
464
458
446
448
450
450
447
448
454
464
453
439
445
454
458
457
449
449
452
454
454
457
458
459
456
453
459
465
465
463
460
460
473
471
454
457
465
470
470
468
466
468
474
475
472
473
474
469
471
477
478
467
470
470
474
473
472
474
478
482
484
484
487
490
491
490
491
492
493
496
504
493
488
492
499
500
498
498
502
505
505
503
503
503
505
509
514
520
529
531
511
489
483
487
492
496
493
490
489
489
489
486
489
481
473
472
469
469
466
465
453
439
440
449
444
442
443
445
454
447
436
433
433
442
442
438
442
449
449
447
447
446
448
447
447
447
444
440
445
445
444
446
447
447
445
443
440
441
441
442
442
442
440
439
438
441
442
437
436
439
440
441
439
435
432
434
437
440
448
440
434
437
441
441
442
441
442
444
454
453
440
435
437
438
436
436
439
438
438
437
439
441
445
446
444
453
454
434
423
396
383
380
388
397
407
425
443
458
478
501
524
553
577
602
631
668
709
752
795
843
896
955
989
989
988
988
987
986
986
985
985
985
985
985
985
985
986
986
987
988
984
884
785
691
581
455
362
302
271
258
272
290
310
328
334
338
343
336
338
343
355
357
367
367
361
348
346
345
344
346
346
351
355
360
363
363
364
369
360
361
365
352
348
359
356
348
352
362
375
366
362
368
381
369
369
374
381
383
381
381
384
383
378
388
410
397
384
389
398
402
399
400
399
401
406
408
409
410
415
420
418
415
415
415
420
426
440
431
417
419
427
432
433
432
435
438
440
441
441
446
455
459
454
467
454
446
449
453
454
457
462
468
476
476
472
464
468
477
476
472
473
480
482
479
481
486
494
502
489
486
499
489
487
491
496
497
501
502
505
509
515
517
521
527
512
511
518
527
530
529
531
531
536
543
539
536
537
542
543
545
548
553
556
557
563
589
582
539
537
547
541
548
555
555
560
559
558
556
554
549
548
551
552
551
553
554
550
542
537
532
528
527
527
530
530
524
522
520
518
514
511
508
510
510
514
497
489
484
480
476
469
464
460
461
458
453
447
443
439
435
428
433
428
414
416
415
410
409
405
393
391
391
392
387
388
390
388
387
384
380
374
373
373
374
374
375
363
373
380
385
380
376
367
357
349
348
352
357
359
363
363
366
367
367
370
375
378
359
361
370
378
378
375
381
384
383
388
384
381
377
380
383
388
397
398
393
384
382
380
381
383
379
380
380
390
392
390
393
401
404
407
414
421
424
418
415
414
417
429
437
420
409
405
393
402
411
419
423
417
421
424
408
409
424
433
439
435
427
430
450
434
422
429
440
441
420
422
430
435
437
431
434
437
437
437
438
441
444
441
439
443
449
451
451
452
444
434
435
441
447
454
447
441
439
441
441
427
414
436
446
448
456
466
466
462
456
448
451
461
471
452
445
448
448
448
448
453
463
463
456
456
455
458
470
465
467
449
447
453
458
460
456
458
461
458
468
468
464
474
476
459
457
463
473
475
478
475
467
469
477
478
476
474
473
471
469
468
472
473
476
477
478
483
487
489
488
491
494
491
490
490
490
491
491
492
496
511
506
500
512
525
503
493
498
500
497
498
502
501
502
501
502
503
502
501
523
511
479
477
479
481
478
476
476
481
488
485
477
476
488
476
447
442
442
443
442
437
439
442
439
441
439
440
444
440
438
443
442
439
437
439
444
442
443
439
441
458
459
449
459
446
442
431
431
439
443
445
440
439
442
445
445
440
433
436
444
442
444
452
440
436
441
441
441
438
440
436
436
436
440
448
457
450
441
437
441
438
435
432
431
435
438
439
438
436
437
442
447
446
444
444
452
453
453
447
442
436
433
440
427
410
418
424
408
390
400
412
421
434
448
464
486
511
536
562
582
610
645
677
721
758
796
852
903
954
989
989
988
988
987
986
986
986
985
985
985
985
986
986
987
988
989
931
840
764
703
559
429
325
276
262
262
272
272
294
312
317
320
316
304
304
314
319
327
335
343
343
348
359
365
349
353
376
377
368
366
362
349
353
356
346
350
354
354
368
378
378
376
374
370
363
359
370
368
369
379
390
398
401
400
398
395
389
391
397
394
391
400
407
410
417
408
399
404
410
416
417
415
417
420
425
438
438
435
423
424
428
430
434
433
433
440
441
441
447
449
449
453
448
451
456
460
464
464
464
460
454
453
457
463
466
470
454
443
447
460
455
440
455
473
493
504
507
509
508
513
492
484
490
497
498
501
510
510
526
513
512
512
509
508
502
502
510
519
537
547
531
503
499
535
546
550
549
551
548
545
545
543
547
555
559
565
570
566
564
565
568
569
566
566
567
568
571
569
568
572
570
569
569
568
577
581
578
564
559
557
556
553
548
551
556
558
566
566
551
536
540
521
512
514
520
527
530
516
499
489
494
494
487
493
499
500
496
472
457
453
451
446
445
444
440
437
444
444
425
408
404
408
405
402
399
392
391
389
388
386
381
377
377
392
414
376
361
360
359
362
361
364
368
372
368
365
367
378
380
368
367
353
357
366
366
366
365
371
372
369
360
354
362
365
367
367
364
368
376
383
380
374
360
382
404
413
390
390
380
378
373
384
393
384
383
380
383
389
393
395
395
395
397
408
411
405
395
397
415
411
397
405
402
400
403
407
405
405
413
418
416
414
411
411
406
404
406
408
412
421
429
425
422
424
424
427
432
437
442
436
428
438
439
431
433
432
435
441
443
446
439
425
436
431
433
435
435
439
442
442
444
444
443
448
448
444
441
442
444
456
466
439
439
457
458
457
449
449
441
444
451
453
450
450
455
460
464
462
456
457
465
462
456
458
463
464
461
462
460
466
472
486
475
467
463
461
464
464
468
475
472
463
466
482
489
485
485
482
472
479
485
483
482
484
464
467
499
490
486
480
484
498
505
490
479
477
484
490
495
500
501
504
503
500
505
492
494
496
502
508
512
512
506
504
497
497
493
492
486
480
475
470
475
479
477
478
477
477
470
462
456
454
454
450
449
448
449
451
456
455
455
452
445
441
438
440
437
435
439
444
443
439
436
431
428
433
438
438
452
453
443
445
455
465
457
463
440
423
426
429
432
435
435
453
434
419
431
445
446
447
447
435
432
426
431
442
444
449
437
435
432
431
434
438
437
436
440
442
445
443
439
434
433
437
444
450
450
444
432
418
452
459
453
454
450
444
444
444
441
424
418
416
416
406
407
409
415
428
448
471
482
492
519
550
571
596
620
658
697
733
768
813
882
919
946
989
989
989
989
988
988
987
986
986
986
986
986
987
987
988
989
988
922
839
770
700
625
506
385
322
286
271
281
302
328
328
342
338
319
303
310
317
323
331
346
358
360
363
367
368
372
373
368
362
360
362
361
374
374
378
388
387
383
375
373
378
377
377
378
377
375
377
384
391
386
382
388
390
387
385
391
396
387
374
374
413
425
428
424
417
415
420
427
425
425
424
424
424
425
423
427
434
435
434
433
432
436
452
447
436
432
444
459
450
433
433
439
453
463
449
451
462
470
469
464
462
464
466
469
476
481
467
466
469
469
474
482
482
481
483
495
504
503
492
470
476
483
493
507
512
496
498
510
513
505
501
499
499
505
511
515
517
521
524
525
525
527
530
532
534
536
536
536
539
546
548
549
547
542
549
553
551
552
558
560
565
564
564
565
570
579
582
584
585
580
568
565
571
575
573
572
559
556
562
578
581
567
559
564
559
555
553
545
536
540
543
541
537
527
524
517
513
510
508
513
515
499
489
472
468
487
484
473
466
458
452
450
451
436
430
430
426
422
420
420
417
415
415
408
397
395
391
388
383
385
387
384
390
383
380
391
371
358
359
360
363
365
368
374
360
358
361
371
361
352
351
353
353
355
357
357
363
360
359
361
362
368
374
376
379
380
380
373
355
357
371
393
389
374
374
376
374
373
374
374
374
378
384
387
386
388
391
390
388
390
393
396
397
393
393
393
395
400
400
398
399
407
422
415
402
404
407
410
410
409
410
412
412
411
411
411
412
411
418
426
432
424
416
422
426
428
438
436
425
419
413
410
412
413
428
442
441
440
441
444
451
439
439
440
437
428
425
432
441
439
438
441
436
431
428
417
416
452
461
459
460
475
454
431
439
455
462
450
450
451
448
442
442
452
449
443
446
461
455
454
454
456
470
462
458
454
451
457
467
469
457
451
459
485
489
456
448
456
464
465
471
472
472
469
473
477
474
469
465
468
470
474
479
479
477
475
475
475
478
481
487
485
481
486
491
495
491
490
494
502
495
493
493
494
494
489
504
496
478
484
490
499
506
483
478
496
500
503
498
488
491
496
492
487
482
480
481
478
475
463
460
468
479
485
480
475
473
461
442
443
456
460
459
456
443
443
454
462
437
429
434
436
437
437
439
445
438
435
438
439
441
442
442
441
439
438
439
440
441
439
437
435
434
435
433
432
435
438
435
432
432
432
432
431
429
424
428
442
465
455
441
426
426
435
443
427
420
423
439
447
418
419
435
436
436
436
433
434
435
441
436
425
429
436
444
449
426
435
442
438
436
432
428
426
426
420
414
402
397
399
404
402
406
422
439
443
444
489
524
545
564
595
621
655
696
739
784
836
886
936
980
989
989
989
988
987
987
986
986
985
985
985
985
985
985
986
987
988
984
897
804
709
602
491
386
309
272
255
266
286
309
325
325
333
338
342
343
357
353
345
353
357
362
370
352
342
341
340
341
345
351
353
350
351
351
353
353
353
355
356
357
359
359
353
350
353
354
353
355
359
362
363
361
362
368
376
384
383
387
401
386
382
401
389
379
384
391
413
408
388
385
394
394
397
400
405
413
416
412
413
412
411
410
407
412
411
415
431
423
419
435
450
442
437
447
447
434
434
440
440
439
448
448
461
467
465
465
458
458
464
461
461
460
457
456
458
468
474
479
479
473
473
477
481
481
478
485
493
488
490
492
495
498
499
494
496
499
504
508
512
514
523
514
512
514
515
509
500
526
537
535
537
542
547
541
541
534
540
547
553
567
570
570
549
546
550
550
551
553
555
557
555
557
557
557
556
554
552
563
574
539
530
540
548
553
542
533
531
528
517
519
522
522
524
532
532
532
538
532
508
496
488
479
482
478
474
471
464
459
458
461
465
458
451
449
444
436
431
428
426
422
419
411
407
406
401
398
394
392
397
395
384
380
378
379
377
377
378
375
371
370
368
365
367
369
366
365
365
386
381
352
354
354
357
363
381
372
366
366
365
366
374
372
365
367
377
378
366
366
369
369
373
373
372
375
375
379
378
383
384
391
394
394
396
415
407
414
405
382
376
384
389
386
375
394
405
408
409
414
409
401
407
403
397
402
409
411
405
407
415
424
436
429
420
416
414
420
425
423
419
417
422
429
421
408
415
430
439
442
444
457
437
420
425
429
428
433
431
429
429
428
431
431
439
441
447
434
430
433
438
439
440
446
447
442
443
444
452
464
457
440
437
444
448
451
458
429
426
431
433
441
453
453
462
457
460
466
459
451
449
446
448
449
447
446
448
448
447
457
458
460
463
468
469
475
472
465
465
468
470
469
470
471
479
496
473
469
473
476
468
466
468
471
477
475
462
463
471
477
473
480
481
484
500
511
486
478
481
490
505
496
489
489
487
483
486
486
484
496
503
498
502
500
496
500
505
510
506
505
502
506
514
516
504
503
511
502
483
473
477
501
515
515
482
476
493
477
469
471
473
470
466
457
453
446
432
434
443
445
443
450
437
436
435
436
443
445
445
442
435
433
432
436
440
425
420
457
468
458
446
448
448
444
441
446
432
428
441
443
440
445
459
452
441
420
428
446
440
435
428
428
427
427
439
432
435
445
434
431
447
448
424
420
423
430
436
461
482
462
417
402
417
439
441
432
430
437
456
473
450
414
412
412
419
431
444
454
421
417
415
412
417
407
396
403
405
414
455
461
443
441
463
516
562
581
614
650
670
737
802
783
814
880
924
962
989
988
988
987
986
986
986
984
984
985
984
985
985
986
987
988
989
932
816
713
607
486
391
322
279
262
280
280
275
277
295
309
319
321
327
357
371
375
377
371
359
344
336
338
341
336
328
337
357
371
375
369
363
344
348
371
361
361
343
337
334
330
327
336
356
377
395
394
375
366
356
359
373
378
354
366
377
389
395
383
400
437
430
384
395
395
399
389
378
385
394
395
398
397
398
408
409
410
412
416
421
424
426
443
440
415
409
421
425
419
429
430
439
434
457
458
432
432
432
428
429
434
434
436
449
457
468
477
477
454
456
464
466
466
468
471
477
477
478
475
473
481
480
473
479
483
491
491
492
494
508
489
465
490
504
504
505
514
518
533
541
543
538
532
530
526
533
547
533
525
527
527
534
536
540
541
560
579
545
535
538
539
539
539
547
564
576
580
569
556
552
570
577
540
535
554
575
584
553
547
540
532
530
532
533
533
535
535
552
555
527
523
531
535
510
499
500
503
514
518
499
488
487
486
491
496
493
455
462
489
472
440
438
424
416
416
417
417
416
413
412
406
402
401
402
416
402
388
384
393
406
386
369
377
402
374
360
364
360
365
362
363
379
368
362
359
354
345
355
359
359
368
367
366
367
370
372
366
363
356
339
365
388
391
383
379
387
376
372
388
399
370
360
372
362
375
392
392
389
384
390
394
389
388
395
413
409
384
382
385
403
405
395
397
399
404
424
430
416
422
440
427
441
400
380
386
392
392
390
395
400
405
406
411
418
428
437
430
444
412
406
425
446
420
411
420
432
460
440
398
406
407
396
421
438
446
432
441
444
444
439
435
459
475
451
421
406
410
419
424
426
448
464
460
461
462
467
466
455
442
436
434
437
439
456
454
445
445
438
432
438
443
457
453
440
435
445
456
455
455
453
441
439
466
462
450
457
455
448
436
467
488
464
458
459
461
460
460
479
453
444
452
468
470
475
471
452
454
465
468
474
492
473
468
501
521
476
485
493
487
457
444
474
476
460
460
472
479
466
463
464
471
473
479
485
488
493
495
497
513
490
476
477
483
497
504
506
506
505
512
501
498
499
504
499
479
487
487
501
516
529
518
498
503
514
505
484
485
477
477
479
476
476
479
480
485
510
501
474
461
428
420
425
438
442
451
454
454
447
464
462
447
437
446
454
438
430
437
447
455
443
438
439
426
420
431
433
428
431
443
454
457
455
450
437
431
432
435
430
443
431
426
427
436
439
445
448
444
438
436
438
433
427
429
428
434
438
439
451
451
444
431
417
441
451
452
444
444
440
442
445
446
445
450
447
440
445
453
450
420
420
432
440
434
429
432
412
394
394
396
401
398
394
401
415
443
493
493
515
506
523
541
569
592
623
656
703
760
803
842
899
962
989
989
988
988
987
986
986
985
985
985
984
984
985
985
986
987
988
980
893
806
714
602
478
380
315
282
275
284
295
313
327
333
332
334
335
335
338
345
370
370
357
355
352
344
349
349
358
360
351
341
341
340
335
336
341
350
358
360
357
354
356
362
371
371
347
335
341
354
353
342
331
357
373
379
383
383
385
390
392
387
391
400
397
392
391
392
399
411
440
419
399
375
370
398
408
408
401
402
406
405
400
409
424
436
433
433
437
430
432
444
437
421
419
421
428
432
435
444
455
467
454
451
460
462
455
461
457
459
461
458
452
455
462
468
478
478
490
495
489
483
480
478
480
486
493
485
481
482
484
489
493
493
494
497
509
513
517
521
519
515
513
512
517
522
520
520
516
519
530
536
540
540
538
545
555
552
552
559
563
550
542
539
534
541
546
546
557
569
579
582
578
571
567
577
577
575
576
551
548
553
563
559
550
534
541
542
538
537
534
532
528
527
531
531
524
516
504
506
511
508
502
495
490
486
485
485
483
478
473
465
459
451
444
442
445
445
438
430
425
424
420
415
407
399
395
393
394
395
393
388
385
383
380
379
385
385
385
380
375
371
371
371
371
370
369
369
372
373
368
365
365
365
362
361
361
361
364
365
365
367
367
367
368
364
364
370
375
378
375
375
376
381
385
384
382
380
379
378
380
380
382
388
392
389
385
386
393
394
392
392
393
393
395
400
400
400
397
393
394
399
403
403
407
408
409
415
415
411
414
415
412
408
410
416
417
416
418
421
422
422
422
421
419
418
417
417
415
417
422
421
422
426
433
438
439
436
432
432
431
434
436
438
439
440
441
445
438
434
437
438
437
441
436
443
454
491
493
440
410
419
434
440
441
443
448
447
448
449
452
452
450
446
448
451
448
443
441
443
444
446
458
459
457
458
456
456
453
450
451
454
453
452
456
459
460
459
455
450
450
451
456
459
459
462
458
457
456
455
456
460
461
464
465
468
470
470
480
486
457
447
455
465
480
477
481
476
464
454
445
448
456
465
467
465
466
468
471
472
471
473
473
473
474
474
474
475
478
480
481
480
482
486
489
489
490
493
495
494
506
510
495
491
495
497
498
500
503
504
504
505
509
509
506
503
502
502
506
505
501
496
494
494
497
493
490
487
484
482
481
479
477
478
477
472
464
455
449
444
441
440
442
443
444
442
444
444
446
447
445
441
437
439
444
448
446
443
444
451
452
447
438
435
441
446
447
445
443
443
444
442
440
438
439
440
438
436
440
443
440
440
438
439
446
449
439
439
442
444
435
433
437
452
450
432
425
430
435
437
435
435
430
431
434
439
444
444
448
449
446
446
446
438
437
442
444
445
448
447
445
445
450
442
445
420
410
406
401
398
395
393
395
401
408
425
444
444
461
476
499
524
552
577
603
633
670
711
751
798
850
903
960
989
989
988
987
987
986
986
985
985
984
984
984
985
985
987
987
988
989
888
792
698
583
461
372
313
278
262
271
288
306
321
325
328
335
332
332
337
342
349
357
354
351
351
353
353
353
353
352
355
358
359
360
356
349
351
353
352
355
358
357
358
357
356
356
357
364
365
365
366
368
369
370
371
371
371
372
373
375
377
379
381
383
385
386
388
394
396
398
401
404
408
410
410
408
406
407
410
412
415
418
421
426
424
423
422
423
427
430
428
431
433
435
438
439
438
439
439
441
442
446
449
457
459
457
456
460
463
463
459
460
466
468
467
466
466
468
474
477
476
474
474
480
481
480
476
479
490
498
500
499
498
501
503
504
504
505
508
511
512
512
513
515
516
518
518
521
524
528
532
534
533
535
538
541
543
541
542
545
548
551
553
552
556
558
558
556
555
559
561
559
557
558
557
560
561
561
559
559
555
552
550
547
541
540
541
544
544
544
542
536
531
528
526
525
520
513
508
507
505
501
496
491
487
485
485
482
477
472
470
469
464
459
455
449
443
437
430
423
419
415
412
406
401
398
397
397
396
396
398
395
391
386
382
380
380
382
383
379
374
374
375
373
370
367
366
366
366
365
363
366
370
368
368
369
370
367
365
363
365
365
367
367
369
368
369
370
370
369
370
373
373
374
373
374
380
381
381
380
380
382
383
383
384
381
382
387
392
392
394
398
400
399
395
396
396
398
401
403
401
400
401
403
405
406
406
407
411
413
412
409
410
414
414
413
414
417
423
426
426
423
424
424
424
423
423
422
423
425
426
427
428
429
432
434
434
436
437
437
436
435
434
437
436
439
438
437
439
438
441
441
442
444
447
448
450
444
444
446
447
447
447
446
445
446
452
451
448
447
447
448
447
448
450
449
448
450
452
453
455
451
450
450
452
455
455
456
455
456
455
454
453
452
454
461
461
461
460
459
459
457
453
451
453
451
452
453
450
452
460
464
459
454
454
456
456
455
452
452
456
458
459
458
457
459
462
461
461
461
461
459
459
460
461
462
464
467
467
466
468
471
472
472
471
471
471
470
472
471
473
474
475
470
469
474
478
479
479
480
479
480
480
479
481
486
490
490
493
495
498
494
494
495
496
497
497
500
501
503
504
506
509
509
508
507
509
508
505
505
508
506
501
499
494
496
501
503
499
495
493
492
492
490
486
484
484
482
479
473
469
462
457
451
447
444
444
446
447
447
442
443
447
449
447
444
445
446
447
447
447
445
446
445
443
443
442
439
441
446
450
448
446
443
441
440
438
438
440
440
442
441
442
442
444
441
439
442
441
440
441
449
446
441
441
440
440
438
438
436
438
441
440
436
440
440
436
433
433
437
439
438
437
440
443
445
441
441
445
448
447
445
445
441
437
436
436
428
421
415
411
408
404
399
397
410
420
413
423
444
461
478
502
528
558
587
614
645
682
722
765
810
859
915
974
989
989
988
987
987
986
986
985
985
984
985
984
984
986
987
987
989
949
856
768
676
560
443
357
304
274
264
278
295
307
320
320
328
330
328
326
328
336
340
349
357
359
357
351
347
348
351
355
361
362
363
364
361
355
353
355
357
362
361
357
357
357
361
362
362
359
364
367
368
370
369
373
373
374
376
380
383
388
390
388
389
394
396
400
400
397
400
406
410
412
411
409
409
415
414
414
418
431
429
417
414
422
424
427
428
430
437
442
442
441
439
440
445
448
447
448
449
450
451
450
451
451
453
461
463
462
459
466
480
466
461
464
468
471
476
477
476
480
486
486
483
484
487
492
495
496
496
498
502
503
504
504
507
509
511
511
511
514
516
520
521
521
520
523
529
530
532
532
534
535
537
537
540
546
552
555
552
551
553
559
560
556
557
558
561
565
567
567
567
567
566
568
570
570
566
565
564
563
569
571
557
551
550
551
556
555
551
549
549
547
541
541
535
528
526
523
520
517
515
510
508
508
502
496
488
483
481
477
470
466
461
461
461
452
443
440
437
431
424
420
419
419
422
417
411
405
405
398
389
384
387
387
384
385
383
376
375
374
373
372
369
372
377
375
372
368
366
363
361
361
362
367
370
365
365
365
366
373
369
367
375
385
373
361
362
361
362
365
369
371
374
376
379
380
376
380
381
380
382
382
382
382
386
386
381
384
382
386
388
386
389
392
396
393
396
396
395
395
398
398
395
398
405
409
408
409
406
408
408
410
409
409
415
416
420
421
422
421
421
421
422
421
422
428
428
422
423
426
428
430
424
424
425
427
431
435
436
432
435
438
441
438
436
438
436
435
435
437
440
442
444
444
442
444
445
445
445
448
452
452
450
446
446
448
446
446
447
447
450
452
452
452
449
451
451
454
453
450
452
455
453
453
453
452
456
458
458
462
461
458
456
457
456
456
462
464
461
463
465
470
472
472
473
473
477
476
478
478
477
474
472
473
477
478
480
480
480
477
472
470
470
478
481
481
484
485
489
492
490
487
487
489
487
487
490
495
497
492
495
500
507
506
503
504
506
512
512
508
507
505
505
504
502
499
500
499
497
494
488
485
483
483
481
478
476
474
474
474
473
470
467
461
454
446
439
436
442
444
445
444
443
443
445
443
452
452
444
445
441
437
440
440
443
443
446
441
442
445
447
448
452
448
442
444
441
442
442
441
441
438
436
439
442
441
439
439
437
440
438
439
439
440
441
443
440
436
437
439
441
442
440
444
446
446
444
437
440
441
442
441
437
438
436
435
436
436
436
439
441
444
446
446
444
444
444
443
441
440
441
435
430
427
424
420
416
413
415
421
432
444
460
478
497
517
542
565
589
617
648
686
724
724
757
797
849
900
944
989
989
988
988
988
987
986
986
986
986
986
986
986
987
988
989
960
884
806
727
645
542
432
352
309
282
273
283
300
313
319
320
323
323
324
324
325
331
338
343
348
354
360
364
365
365
369
374
373
376
376
375
378
379
379
378
374
373
373
371
371
372
371
370
373
373
375
380
383
386
389
386
387
389
394
396
397
394
399
404
406
407
409
414
414
416
416
413
411
417
420
422
423
422
427
428
426
427
431
434
437
439
438
438
442
443
442
442
440
441
446
448
447
445
446
452
454
457
463
466
467
465
466
469
474
474
476
476
478
479
481
478
477
479
484
486
489
491
491
492
492
493
494
493
493
498
505
512
511
508
508
516
519
517
518
520
521
521
526
532
534
534
533
539
541
546
549
550
552
552
555
557
559
559
559
561
565
567
570
571
571
571
572
574
577
578
580
579
580
580
577
578
581
579
575
576
576
572
571
574
570
569
570
565
561
559
560
562
557
550
546
545
542
538
532
526
522
518
516
514
509
502
496
488
481
475
474
471
468
458
450
444
444
440
440
431
429
426
423
421
415
409
405
400
395
393
391
391
388
385
382
384
383
381
373
368
366
368
368
367
367
364
361
360
360
358
362
359
361
360
357
355
354
354
357
360
359
360
357
357
359
361
366
367
366
363
363
365
369
371
375
380
383
382
382
385
381
375
373
375
376
379
377
379
384
385
384
384
388
388
388
385
385
386
389
393
394
395
397
399
398
399
401
404
404
404
404
402
402
405
413
414
411
412
414
415
415
414
416
418
420
419
420
419
421
422
424
425
426
428
427
430
429
431
431
433
432
432
432
433
435
439
439
436
435
436
440
439
436
435
441
442
441
441
440
444
445
444
441
445
451
452
456
460
458
457
457
458
455
459
463
463
464
465
465
464
464
466
466
470
472
473
472
470
470
469
