532
532
534
517
514
512
514
510
507
508
514
518
498
490
484
479
484
475
457
450
444
437
468
471
451
454
441
433
436
436
436
433
432
436
434
426
416
408
408
408
411
409
408
407
423
420
407
398
401
410
410
399
400
403
406
404
397
391
383
376
376
374
383
394
394
399
405
407
397
399
402
409
405
399
396
397
404
412
419
417
408
404
400
400
407
410
408
410
414
415
418
427
431
418
416
414
411
421
432
440
439
436
431
429
430
438
440
429
423
434
455
452
440
438
438
438
433
447
444
439
439
448
448
450
443
435
439
441
443
445
464
469
445
440
444
443
449
457
459
458
464
461
455
448
449
455
460
464
469
477
477
481
480
462
461
464
474
473
473
474
474
472
468
467
485
476
459
446
452
472
491
493
498
502
505
497
490
485
486
496
504
510
506
500
489
485
486
486
485
481
487
496
502
502
496
499
504
501
499
507
511
514
513
507
497
495
495
502
513
527
527
522
513
525
518
515
526
532
527
525
536
531
528
524
514
514
510
510
505
502
489
496
499
496
502
501
506
508
505
497
497
476
472
469
479
475
459
472
480
472
470
466
451
445
450
444
448
457
462
468
460
452
451
462
462
455
454
458
457
463
463
465
473
471
464
462
459
457
456
452
451
451
459
462
461
463
461
454
453
456
460
461
454
446
448
451
458
463
464
460
460
457
459
466
466
447
439
441
449
467
474
469
459
458
458
463
462
462
457
459
455
444
448
453
456
455
442
427
427
446
446
463
478
484
494
507
530
564
584
601
623
655
709
756
774
814
872
920
966
989
989
988
988
987
986
985
985
985
984
985
986
986
987
988
989
955
887
808
731
642
530
410
327
269
245
248
268
286
306
324
333
341
347
340
336
358
376
391
395
389
389
387
400
402
400
400
400
398
407
410
407
405
402
397
399
403
400
402
407
416
417
423
411
385
397
406
410
411
410
411
411
417
416
418
417
414
419
426
440
440
435
434
435
440
446
444
442
442
442
448
457
459
459
455
454
458
466
473
464
457
463
463
469
473
470
465
466
470
466
461
460
481
512
483
450
462
482
496
493
500
502
510
517
500
495
489
491
497
502
505
505
506
514
519
519
515
521
530
535
530
527
532
540
538
533
532
540
545
547
544
554
555
546
550
554
553
549
548
554
557
557
559
561
572
574
572
574
586
589
592
594
594
594
599
582
577
584
586
590
594
591
591
593
589
585
594
606
597
581
579
583
590
593
587
586
587
583
582
583
584
587
583
574
567
561
560
555
547
547
542
543
547
546
543
541
535
529
522
530
530
530
516
508
503
501
498
491
482
467
463
478
490
479
468
459
458
448
443
437
438
454
448
434
427
443
454
413
403
409
409
409
412
413
412
406
413
411
397
396
392
393
403
404
402
406
411
399
395
398
391
388
391
393
391
390
397
404
403
399
404
399
404
421
392
389
399
408
407
415
417
410
406
407
414
419
421
424
428
426
421
420
421
418
416
418
418
429
426
415
424
424
437
437
440
425
435
445
452
447
442
441
437
436
442
444
444
442
440
438
439
445
446
445
446
445
447
454
458
456
463
463
461
451
449
448
456
460
457
460
462
465
467
472
472
484
486
489
496
495
473
457
466
480
485
488
485
488
487
479
475
472
480
494
496
488
484
488
499
502
495
492
492
500
498
488
494
496
493
495
500
501
510
514
525
532
516
515
512
508
509
509
508
507
510
509
514
514
521
523
523
526
520
518
521
516
514
519
515
510
518
523
517
514
510
508
511
507
497
494
498
498
507
500
490
485
487
483
478
474
474
471
461
455
469
471
460
459
463
469
464
461
459
453
457
460
460
463
465
476
476
455
449
459
461
464
467
466
460
459
461
462
460
463
469
467
460
454
448
447
449
449
448
451
456
456
462
464
458
455
453
453
456
464
469
468
452
452
445
450
458
461
462
466
464
465
474
470
464
465
471
464
457
451
455
466
475
474
454
450
455
455
453
449
448
447
457
471
473
484
498
512
522
538
561
590
622
655
680
711
755
791
830
882
928
982
989
988
988
988
987
987
986
986
986
985
986
987
988
989
983
923
862
793
731
667
579
452
353
300
271
268
275
293
310
336
355
363
359
347
346
346
350
359
374
383
396
407
413
417
417
425
407
398
385
393
404
408
410
412
410
401
408
416
408
411
410
407
404
405
402
402
412
424
428
420
418
419
419
424
430
425
420
428
421
420
421
427
430
437
437
439
444
453
455
456
460
457
458
462
459
461
462
468
470
469
470
469
464
467
471
469
469
473
477
478
486
483
494
496
489
479
482
484
491
510
508
491
486
489
494
494
492
490
495
500
502
498
501
514
534
540
525
522
527
527
523
525
530
539
535
535
535
534
537
544
547
541
540
544
550
550
552
544
543
550
558
550
557
566
566
567
569
570
576
575
583
593
575
566
575
583
587
587
585
581
587
585
580
581
582
586
578
563
563
586
595
587
588
594
588
586
581
577
580
587
586
580
569
566
565
567
561
552
548
542
549
549
538
530
530
530
534
533
530
523
521
517
503
494
494
498
500
495
482
486
484
482
486
468
453
453
445
431
436
445
435
425
420
425
423
423
418
417
414
419
416
417
420
417
412
408
405
397
396
403
415
426
388
385
384
385
388
389
392
388
389
402
408
410
408
395
390
392
393
397
403
399
393
399
402
405
411
408
410
404
405
405
408
413
411
408
405
409
405
415
434
444
431
426
425
425
421
423
429
433
426
429
433
432
436
440
440
433
435
439
444
450
447
441
438
423
433
436
441
442
443
443
451
452
449
449
449
450
451
454
453
451
460
480
479
464
462
462
459
460
455
466
475
466
466
461
463
463
474
472
463
466
474
479
484
472
467
473
477
482
488
490
493
497
497
493
499
496
497
491
486
496
498
496
493
489
485
488
498
502
504
509
512
516
517
517
518
518
511
507
500
498
503
514
515
513
523
524
521
526
522
515
511
517
520
520
514
518
523
525
525
526
524
519
521
521
520
516
506
499
494
492
489
492
502
500
504
501
493
481
478
484
481
469
470
470
468
469
464
461
462
464
474
460
450
450
462
451
444
453
463
471
471
459
457
464
462
458
453
459
468
466
465
460
451
448
449
459
455
450
456
458
462
457
456
456
454
447
448
447
455
468
449
443
452
458
453
451
457
467
469
469
449
441
449
458
458
458
459
451
447
455
462
462
463
463
458
452
445
446
448
451
448
448
440
436
438
444
446
454
470
500
533
535
546
557
577
606
645
680
711
753
795
838
877
934
982
989
989
988
987
987
986
986
985
985
984
985
985
986
987
988
989
970
886
806
730
637
513
396
330
273
252
255
295
295
319
323
334
341
348
360
371
385
394
398
395
393
390
386
387
389
388
394
392
389
381
384
381
383
384
380
379
377
378
378
383
382
380
383
391
394
390
392
393
393
392
405
406
399
404
407
404
399
395
393
410
421
430
432
425
428
433
437
436
426
423
424
423
429
430
444
455
435
421
423
439
447
451
453
447
441
443
455
464
457
457
469
476
481
479
475
480
481
482
482
487
484
481
480
484
485
485
488
487
481
481
488
495
493
488
489
487
497
512
511
502
491
494
499
510
512
503
505
503
503
507
514
521
523
531
536
540
539
543
548
546
554
542
535
544
550
546
547
550
551
551
557
554
555
558
554
561
571
574
576
571
563
563
566
569
574
564
561
566
571
575
575
564
569
565
558
552
554
558
559
558
558
562
551
541
540
538
536
541
541
534
515
516
522
521
512
509
507
522
519
509
502
501
500
497
486
486
482
481
479
479
474
465
457
450
445
446
445
446
446
434
422
430
439
435
442
458
426
411
409
412
416
411
405
403
404
406
408
412
409
406
403
399
394
398
399
402
405
400
397
394
399
406
408
399
389
392
398
401
402
406
395
394
402
405
408
414
425
421
413
411
407
413
418
427
418
411
412
418
418
413
401
405
408
413
419
426
428
427
438
432
427
423
429
433
432
428
436
446
446
448
450
451
447
451
454
449
445
441
441
436
434
441
443
447
448
450
460
468
461
448
439
432
453
464
457
450
449
455
461
457
454
457
459
457
461
465
477
473
468
472
478
476
458
459
461
466
469
475
475
476
488
490
481
470
465
459
470
483
491
499
490
493
503
501
488
488
495
497
497
485
482
484
492
496
497
495
492
494
498
495
491
494
496
504
514
525
503
503
508
513
513
508
510
516
501
504
505
512
512
514
511
509
519
522
521
521
520
519
528
532
524
519
509
508
508
512
508
499
494
489
495
503
504
498
488
489
493
490
481
478
473
466
458
460
459
452
452
449
453
456
455
451
454
461
459
465
468
467
465
479
467
454
452
451
451
451
452
459
459
468
460
454
452
456
455
456
456
455
453
450
451
450
449
446
441
453
466
456
453
456
457
432
419
416
421
441
460
462
462
454
453
453
454
457
461
455
456
457
453
447
448
449
444
463
459
441
445
454
451
432
421
434
436
428
425
430
432
433
446
461
487
515
541
561
587
611
622
631
662
706
759
811
862
913
965
989
989
988
988
987
986
986
985
985
984
984
984
984
984
985
986
987
988
989
929
843
748
653
522
390
307
265
258
271
295
310
331
337
328
335
347
369
386
389
385
383
382
377
377
372
368
366
372
377
385
379
361
365
371
366
361
361
367
376
382
368
359
361
368
369
368
367
367
369
380
392
393
389
386
387
395
391
387
393
393
393
398
403
410
410
409
400
403
409
423
432
408
405
424
434
435
427
429
434
432
432
431
435
435
438
439
444
458
457
449
445
458
437
435
448
456
453
451
464
474
479
477
478
478
480
481
479
480
478
477
478
479
481
481
478
480
485
494
489
485
486
489
493
490
496
507
512
514
509
509
511
517
520
520
534
527
513
512
512
517
524
531
534
541
534
539
549
540
531
529
530
536
547
554
556
563
562
552
555
563
565
565
570
570
569
573
573
574
579
573
563
565
558
558
551
552
559
559
554
546
544
548
554
546
537
532
544
556
537
527
523
526
528
521
514
511
511
511
508
504
503
502
497
497
488
480
478
474
463
454
453
457
458
457
453
437
432
436
447
442
426
420
421
433
428
426
419
419
417
423
406
392
388
391
401
405
405
402
396
392
387
391
398
397
389
378
382
393
399
396
387
380
389
396
390
387
391
391
392
394
391
400
413
413
414
407
410
410
404
401
397
399
412
416
404
401
403
406
414
430
423
414
413
416
414
408
413
416
416
413
409
420
419
419
419
417
427
433
445
435
426
428
430
432
436
434
426
428
436
437
432
436
439
442
440
442
450
442
443
444
448
447
445
449
454
455
450
450
460
466
449
443
448
457
457
455
456
455
459
458
458
455
453
460
466
470
468
476
478
451
442
450
462
462
468
472
473
469
466
464
460
461
467
477
474
466
468
468
478
492
480
493
505
492
490
492
483
472
471
480
484
483
487
487
484
482
483
481
485
493
506
510
497
490
489
497
501
501
506
518
514
505
500
498
503
523
533
529
506
505
517
521
515
516
518
521
523
521
524
526
522
518
515
509
509
522
509
495
496
493
499
502
493
487
483
482
478
475
468
461
460
460
457
457
454
455
448
45
379
378
1
354
360
360
361
363
364
367
368
368
369
373
372
373
373
374
376
372
369
376
381
378
379
378
379
378
378
377
373
376
380
383
386
386
384
383
389
394
394
397
402
405
401
400
399
398
400
399
401
400
397
398
403
404
401
405
411
409
413
415
416
417
416
420
437
442
423
401
405
421
418
414
418
421
421
422
426
428
429
428
428
432
432
427
422
424
424
431
436
441
441
436
436
448
447
434
427
428
433
434
436
438
441
441
441
444
445
439
444
448
450
450
451
455
457
455
455
455
456
456
453
454
458
464
461
457
463
469
460
459
463
466
468
468
469
462
456
460
468
470
468
467
473
477
468
469
471
477
486
482
495
484
465
469
477
479
480
488
497
496
493
496
499
501
496
493
494
499
503
499
495
492
496
494
494
486
486
483
482
483
484
482
486
490
497
474
454
449
457
463
463
454
444
435
433
434
433
434
435
437
437
432
432
431
434
436
436
435
430
430
431
431
432
435
441
444
437
434
441
431
429
431
432
432
435
443
443
424
417
421
427
428
430
432
430
445
443
443
427
415
418
426
423
425
428
431
429
428
428
428
430
433
435
439
431
423
428
435
434
427
429
433
435
433
432
436
436
437
434
428
428
432
443
439
426
419
423
422
419
415
420
417
411
399
405
419
444
465
485
504
522
553
570
585
612
651
651
679
709
756
805
853
906
961
989
988
988
988
987
987
986
985
985
984
985
985
986
986
987
988
989
926
840
750
650
539
415
326
267
228
222
239
264
288
303
307
311
319
332
336
341
352
363
365
361
359
356
354
354
349
350
355
361
360
359
354
354
352
360
362
356
355
364
369
357
359
366
361
362
365
363
361
364
368
380
383
368
368
374
377
376
379
386
393
393
393
393
402
401
400
403
399
395
400
420
426
402
393
401
410
411
413
421
423
424
422
423
439
432
431
434
431
436
436
435
437
435
436
437
443
446
447
448
452
457
456
451
452
454
461
465
467
465
469
473
477
477
473
474
476
480
487
485
481
484
482
482
480
482
487
493
497
504
495
494
496
502
505
506
508
509
514
512
513
518
527
533
532
534
536
540
542
543
542
543
542
542
544
551
549
554
562
560
560
546
549
557
560
559
559
557
561
564
561
557
559
563
558
552
553
553
556
567
557
553
541
542
539
532
533
536
537
535
529
520
518
515
508
507
511
498
498
496
490
484
483
483
482
480
481
467
461
453
444
445
449
449
437
431
429
426
421
417
414
412
410
409
405
394
382
380
385
391
392
388
384
382
379
379
384
386
378
372
369
370
363
363
362
364
367
367
370
382
387
372
365
368
379
370
363
364
373
363
365
372
372
372
377
378
389
382
369
367
371
374
377
375
376
380
380
384
385
390
395
403
402
387
391
396
394
396
408
406
399
398
396
398
404
405
407
415
415
407
404
403
407
407
411
414
417
421
419
419
423
427
433
431
425
421
415
414
418
419
429
432
427
426
430
432
432
434
436
435
438
444
448
448
433
432
441
433
439
441
429
435
443
448
452
453
456
460
460
456
456
452
451
452
452
454
457
462
462
462
461
479
478
458
459
464
465
465
470
475
478
475
483
483
471
456
455
463
465
470
472
474
475
478
478
480
489
495
494
486
489
492
493
493
490
487
491
496
497
497
509
501
501
500
505
505
503
506
510
512
511
507
504
500
499
500
512
486
481
479
476
476
473
473
477
477
478
477
476
476
470
461
459
459
459
453
448
444
441
448
454
441
435
435
439
445
455
455
432
434
439
441
442
444
445
446
443
443
441
443
446
456
445
435
435
437
438
439
448
451
447
443
433
433
441
443
437
433
431
438
445
448
448
448
445
444
445
448
443
442
443
444
447
452
438
435
438
443
448
440
439
443
447
447
446
445
449
455
456
465
464
454
452
452
442
442
445
441
435
430
431
428
430
436
442
448
455
464
475
487
512
538
563
598
610
631
668
708
742
781
828
885
933
980
989
989
989
988
987
987
986
986
986
985
986
986
987
988
989
944
878
803
737
659
567
456
357
294
256
241
252
275
296
296
309
319
322
330
337
342
357
354
360
379
398
386
384
384
385
384
380
391
400
403
399
397
396
394
393
388
389
395
397
397
396
392
391
396
398
398
404
404
396
392
395
401
404
408
409
407
404
407
414
421
425
429
426
426
430
428
428
433
441
446
444
443
443
443
445
446
456
466
460
467
459
451
450
455
462
462
461
458
467
474
476
473
470
473
476
478
476
476
480
480
490
491
481
482
483
489
496
494
494
499
501
501
499
495
500
508
512
509
511
517
519
517
516
522
527
518
523
525
527
527
534
541
537
532
533
541
555
538
531
537
545
548
551
553
555
560
569
577
580
584
583
577
581
584
579
572
576
587
593
596
600
598
599
599
595
595
596
596
592
600
600
586
583
585
597
588
588
589
586
582
581
578
581
580
575
569
564
564
557
557
549
550
549
545
538
538
538
535
531
521
517
517
512
501
499
496
490
488
484
474
469
462
459
477
466
443
435
435
436
436
432
428
425
425
417
412
406
408
407
408
414
405
392
394
400
399
394
392
391
394
395
381
385
388
388
388
387
388
389
392
397
399
379
386
393
393
395
395
398
398
383
381
389
395
389
383
384
390
403
415
413
403
399
402
408
408
407
409
407
407
411
397
396
414
424
421
417
419
426
416
413
414
424
434
431
429
426
430
437
438
434
430
432
439
441
436
437
437
443
443
446
441
441
446
451
453
458
462
454
463
465
441
445
448
445
447
452
457
456
460
467
471
467
465
468
478
471
463
478
485
478
476
470
471
479
482
480
482
480
483
488
493
493
492
491
497
499
502
501
510
501
499
497
484
481
494
500
498
503
503
506
509
506
504
503
510
515
514
512
510
512
514
515
514
519
517
523
521
519
518
518
512
509
510
518
523
521
519
521
521
522
538
516
506
506
510
513
499
503
506
504
502
501
497
484
475
471
471
470
481
487
469
455
453
446
448
454
456
461
458
459
460
459
459
456
457
464
467
467
465
476
474
457
458
458
462
468
469
466
461
460
464
465
461
458
460
462
461
455
455
454
460
466
467
463
457
456
459
461
461
459
460
462
464
465
476
469
465
467
467
466
465
466
464
459
457
462
469
473
473
461
455
458
469
478
469
458
464
471
472
469
467
465
466
464
457
456
462
466
472
481
488
500
513
524
539
551
576
607
638
664
696
732
770
815
859
904
958
990
989
989
988
988
987
987
986
986
986
986
986
987
988
989
938
876
817
754
704
634
634
555
437
347
306
290
293
292
302
316
337
338
344
356
362
371
373
373
379
394
409
424
426
414
413
419
423
422
421
424
424
429
432
427
426
434
419
412
417
418
420
423
423
421
423
427
433
434
433
430
433
440
443
441
437
437
442
445
443
443
446
451
454
455
450
450
453
459
462
465
464
467
469
469
469
472
474
476
476
476
479
482
481
481
485
486
490
486
485
485
485
487
490
499
506
494
494
521
516
495
493
501
510
512
507
500
500
509
512
512
517
531
527
518
516
522
531
541
528
513
513
519
529
532
532
534
538
540
540
539
539
545
550
555
556
550
550
554
562
569
566
558
562
572
574
577
576
583
583
586
589
589
590
590
594
596
610
621
595
585
590
596
601
601
601
601
600
599
601
604
604
603
605
614
600
586
598
591
581
582
582
585
584
588
580
574
573
569
566
564
566
573
559
542
543
544
535
529
524
528
526
521
514
511
510
522
530
475
464
470
470
471
468
461
456
457
454
446
442
445
446
439
431
423
423
424
421
419
416
410
403
403
403
403
405
418
430
399
386
392
398
398
397
394
392
394
396
396
393
395
396
396
389
382
383
393
399
398
399
402
405
408
406
401
402
403
405
404
404
406
406
409
414
400
392
397
403
404
402
403
407
425
431
419
409
412
417
422
426
425
423
422
426
431
437
435
430
431
431
434
434
436
437
438
435
432
437
441
442
442
444
447
440
438
439
440
445
449
449
448
451
450
449
453
451
448
452
453
452
456
456
462
470
471
459
458
466
476
468
463
466
468
474
474
469
470
477
483
484
486
484
480
486
498
506
488
482
488
492
491
491
495
510
509
493
492
492
492
493
493
494
498
503
506
504
497
493
501
507
510
506
503
506
509
509
507
508
511
517
519
519
516
515
524
525
518
508
505
511
514
509
501
502
506
513
516
511
507
506
504
502
501
500
501
500
493
488
481
477
480
479
465
456
454
461
468
460
452
454
458
459
456
451
450
451
461
459
451
456
463
464
457
458
458
460
462
456
451
455
457
457
451
446
443
446
447
447
455
462
451
442
442
441
443
445
449
447
443
440
442
441
441
443
447
449
454
458
457
454
453
453
456
453
450
454
457
453
453
447
449
453
458
461
462
472
458
450
437
437
443
448
450
452
449
436
441
441
431
435
450
442
451
473
491
507
525
546
567
590
614
637
661
696
735
780
831
891
928
968
989
989
988
988
987
986
986
985
985
985
985
985
985
986
987
988
989
967
888
808
725
634
525
406
326
276
251
255
280
305
320
340
348
346
355
366
375
379
387
387
381
381
374
372
371
373
370
372
381
386
386
384
383
384
384
380
376
374
378
387
395
374
365
373
377
379
391
386
375
379
391
395
383
388
397
395
394
395
399
404
406
414
406
404
407
408
413
418
420
424
425
421
416
424
434
438
439
438
436
440
436
436
425
433
449
451
441
437
437
446
449
453
452
455
460
461
463
476
469
465
465
469
472
461
451
460
472
475
479
480
483
483
489
483
479
484
490
494
501
487
485
492
497
500
496
500
507
529
522
504
511
506
503
508
513
521
527
527
524
524
528
530
531
533
537
541
545
544
544
541
542
545
550
550
550
557
563
563
563
567
564
566
568
565
565
569
571
570
571
572
571
571
567
564
562
563
569
572
563
556
556
558
555
554
546
541
545
548
542
537
534
527
524
520
519
516
517
525
520
503
502
502
505
502
498
490
479
474
469
466
466
464
467
450
444
456
436
426
423
422
422
422
420
419
419
417
421
418
408
405
402
397
398
398
393
387
389
399
396
380
379
384
391
393
392
387
388
400
398
386
378
381
385
388
390
391
392
394
392
390
393
393
399
403
400
396
389
386
385
396
406
396
394
401
402
399
402
403
409
410
408
403
408
418
408
408
409
410
415
418
416
416
415
415
423
431
420
417
425
438
436
439
422
416
422
428
430
428
431
435
439
437
435
434
434
439
437
437
438
441
441
438
436
443
448
445
441
440
440
443
446
448
446
446
450
454
453
453
453
458
462
464
461
462
463
466
463
460
462
465
476
476
488
479
477
476
478
478
477
478
480
483
481
477
479
481
483
481
478
479
481
483
483
485
487
491
493
491
487
486
502
502
505
496
495
497
500
503
504
501
502
506
506
502
501
501
507
510
511
512
517
529
525
503
492
510
509
505
499
488
482
486
493
494
489
479
480
482
482
480
474
470
468
461
453
449
453
456
453
449
447
446
447
450
446
441
444
448
453
451
462
462
458
454
443
437
441
446
448
456
449
439
446
449
449
444
440
444
448
449
442
432
439
446
448
442
440
440
442
441
437
437
435
438
439
441
444
453
449
443
441
436
435
437
440
446
453
452
450
456
444
441
439
447
451
456
454
451
448
448
445
443
443
445
443
433
424
420
418
417
417
418
428
443
463
483
499
514
536
556
575
595
619
647
676
721
765
814
864
917
963
963
989
989
988
987
987
986
986
985
984
985
984
984
985
986
987
988
989
970
886
797
698
588
466
375
298
249
241
261
292
292
313
325
338
343
348
356
367
379
378
377
374
370
359
360
361
363
370
359
360
364
364
362
365
372
370
364
359
359
366
377
376
370
360
359
363
366
364
365
370
374
374
371
376
385
386
399
393
384
388
394
395
391
394
399
403
406
409
410
412
412
413
408
403
403
418
428
425
424
428
436
438
438
438
434
432
434
438
442
447
449
450
446
448
452
454
459
457
455
454
454
457
468
477
459
455
465
469
471
471
474
474
474
480
479
485
490
485
482
485
488
491
493
495
492
494
496
498
500
501
500
501
505
507
507
512
529
529
519
520
523
528
537
538
539
533
532
536
540
545
555
544
545
549
558
548
549
552
554
556
556
560
572
563
559
561
563
564
565
561
561
557
558
560
562
562
563
561
554
549
550
553
557
555
549
542
541
536
538
530
530
525
525
526
526
521
515
509
511
514
510
497
496
495
492
487
478
470
468
467
467
459
437
430
433
428
424
426
424
420
415
413
412
412
410
408
405
399
400
399
408
397
380
383
387
383
369
370
381
400
384
380
384
389
392
407
379
356
364
377
377
379
375
375
378
381
377
376
377
379
380
371
369
370
377
383
384
384
387
388
388
388
391
398
396
386
390
401
395
398
398
399
395
398
400
403
406
405
404
403
406
408
411
409
410
414
412
408
409
416
424
422
419
419
421
424
423
423
419
421
427
427
429
427
426
424
426
429
432
443
436
434
434
432
429
430
441
428
427
433
440
440
439
440
444
452
453
447
442
442
442
448
453
449
454
466
458
455
455
450
451
448
450
457
456
454
463
475
464
467
471
474
477
477
478
475
477
478
474
471
471
474
474
473
475
473
475
485
479
473
480
480
483
489
489
491
489
491
496
494
493
489
485
482
485
492
494
496
502
502
503
506
511
509
507
513
506
511
512
503
501
498
501
510
505
480
477
482
484
481
483
484
483
486
484
495
478
464
462
457
457
449
442
442
448
456
458
442
439
443
441
439
440
443
441
441
444
443
441
436
434
436
441
447
449
448
443
445
443
443
443
442
441
448
455
456
442
438
437
438
439
442
442
444
440
438
439
436
434
432
432
431
435
442
443
441
440
440
442
447
442
436
436
435
440
441
444
448
437
438
440
441
439
432
433
442
440
441
444
445
442
434
425
428
429
421
414
407
410
415
415
425
429
446
471
497
517
533
549
572
604
615
643
680
726
773
824
873
925
987
989
988
988
987
987
986
985
985
985
984
984
984
985
985
986
986
988
989
945
853
760
661
544
422
329
270
247
248
266
302
315
326
337
337
333
341
349
356
368
367
363
361
359
364
360
355
355
353
359
363
365
369
377
368
360
362
359
356
357
358
357
360
360
364
367
368
369
372
370
374
374
378
380
380
380
381
382
383
384
391
392
389
391
395
398
394
397
405
407
403
406
412
424
420
407
405
412
418
420
422
422
432
427
422
425
431
430
433
441
443
450
453
441
445
447
444
439
443
454
466
464
452
453
462
466
464
468
463
464
468
466
471
476
481
481
477
480
484
486
484
486
491
493
484
483
488
494
504
509
507
505
505
508
514
522
522
510
514
519
524
524
527
523
528
530
533
537
536
537
542
544
542
541
544
550
554
553
550
555
564
568
563
559
560
574
572
560
552
551
555
555
564
568
557
558
563
563
563
562
547
540
546
551
548
543
542
538
544
526
520
522
522
517
516
515
512
509
502
497
495
492
493
489
483
477
473
467
463
459
456
454
451
447
442
440
447
432
413
410
412
412
409
407
406
406
407
400
389
386
387
387
394
396
385
377
377
379
380
378
377
377
378
375
372
371
376
380
382
379
372
374
383
391
376
370
379
380
372
368
373
373
382
384
384
383
384
386
393
385
382
393
390
388
403
383
369
378
387
395
395
394
396
401
405
407
413
404
405
406
403
399
403
407
411
407
409
410
412
411
410
412
417
418
420
422
419
421
421
420
418
422
427
425
422
422
423
427
429
428
428
428
436
452
439
430
430
432
436
436
436
438
442
441
440
436
433
433
437
439
441
441
445
451
452
449
445
447
448
451
463
463
446
441
447
451
452
452
455
459
461
461
456
455
459
461
462
465
467
469
475
475
471
472
476
482
496
488
474
472
478
475
469
468
466
465
466
466
470
475
480
483
486
489
489
493
490
489
491
494
501
502
490
483
484
487
491
492
497
502
505
505
506
497
494
500
505
508
508
508
508
501
494
504
500
485
483
485
484
474
469
472
476
474
473
471
464
461
456
459
447
447
440
439
439
439
440
441
445
447
448
442
440
435
432
433
438
441
437
434
436
438
442
442
445
437
433
436
436
433
435
434
431
435
435
435
442
460
447
419
422
428
429
440
429
424
427
429
432
432
431
432
432
431
428
432
436
437
439
437
440
440
442
439
434
429
429
439
451
446
435
432
436
438
437
434
438
442
442
439
431
428
426
422
412
409
406
415
414
424
424
424
429
448
473
491
507
533
563
589
609
633
666
710
753
795
837
895
952
989
989
988
987
987
986
986
986
985
985
985
985
985
986
986
988
989
972
886
798
711
598
463
354
286
241
230
246
271
295
308
313
314
315
324
339
361
352
352
356
357
352
352
352
352
356
360
357
359
365
370
370
361
355
363
356
353
354
352
356
364
372
359
355
358
361
369
365
364
368
378
377
377
373
374
382
383
385
386
383
385
389
389
389
394
398
404
407
402
401
409
417
421
415
409
414
417
420
426
429
429
433
437
436
434
434
433
435
437
433
434
442
449
452
449
444
448
461
457
444
450
461
455
453
455
455
459
461
463
460
460
471
471
481
483
482
483
486
490
489
488
494
485
493
490
484
486
492
500
506
506
504
509
514
525
514
510
515
523
527
524
526
526
531
531
529
532
536
541
544
538
537
543
551
554
549
552
550
556
558
554
551
554
560
565
569
566
563
561
561
567
569
567
556
554
548
549
549
555
571
560
551
557
540
538
536
534
531
530
529
524
521
521
522
521
514
509
503
500
495
488
480
480
478
479
479
475
471
464
456
453
450
444
438
442
449
435
417
415
417
414
408
402
400
394
389
391
395
404
393
385
380
380
380
384
385
382
377
376
374
372
373
372
368
375
388
378
373
372
371
373
371
370
375
377
380
384
377
369
361
365
371
372
373
375
375
380
384
381
382
385
387
385
379
380
382
385
385
390
390
397
402
395
388
388
393
397
401
408
399
398
404
404
410
417
416
403
405
404
406
410
417
419
413
407
408
412
418
421
418
418
421
423
420
422
428
437
425
421
429
433
433
433
430
425
424
429
431
441
448
430
424
431
434
437
438
442
447
444
454
456
443
442
444
448
455
454
450
453
453
452
456
456
454
457
457
466
465
463
461
469
464
464
467
466
462
466
474
477
474
467
465
467
462
463
467
466
472
477
476
482
499
499
495
480
477
474
479
481
482
487
484
482
486
485
483
485
492
493
495
492
494
492
496
498
496
495
499
503
503
497
490
490
491
496
491
485
481
478
479
478
472
469
465
465
466
463
456
454
454
454
451
446
442
445
452
463
463
448
434
433
428
424
428
431
434
431
428
434
435
439
439
438
435
435
434
432
432
433
439
445
447
445
432
418
420
426
430
431
432
431
435
435
438
440
438
432
427
428
432
434
437
434
432
428
427
428
429
430
431
434
433
433
432
433
438
450
439
432
436
439
439
439
436
440
442
435
429
433
437
440
445
447
444
430
425
424
425
424
422
422
427
436
445
457
470
487
501
511
527
558
592
622
647
679
716
752
798
850
900
957
990
989
988
988
988
987
987
986
986
986
986
987
988
989
989
939
872
810
735
660
595
595
469
349
280
244
236
252
265
274
289
303
312
318
324
329
335
340
346
356
371
384
384
373
371
373
379
384
384
384
391
391
388
381
377
379
382
375
373
378
392
386
388
393
386
384
387
388
393
396
397
398
399
393
394
397
401
408
410
405
405
416
424
427
423
428
425
420
412
411
417
423
428
431
431
435
438
438
437
435
435
437
445
448
446
447
451
453
458
458
460
460
469
459
450
450
452
459
462
466
466
467
473
478
481
480
480
479
481
479
481
485
491
487
486
496
497
486
488
490
500
500
501
500
501
498
496
499
506
509
511
511
516
521
530
531
533
529
526
527
533
536
532
538
542
547
559
566
549
550
554
550
551
558
561
571
569
567
567
566
561
559
562
572
587
577
565
572
576
578
575
573
574
575
575
572
569
567
567
568
564
564
556
552
550
548
542
538
534
532
534
536
532
522
523
526
525
512
504
506
503
491
481
476
477
480
479
475
459
454
453
453
451
450
435
430
431
428
421
415
421
421
403
395
397
404
398
388
382
383
388
386
378
370
375
380
378
376
382
380
367
368
365
361
360
364
368
366
365
364
365
370
370
368
369
370
368
376
382
354
363
374
368
363
363
366
374
377
376
376
379
379
382
380
376
376
385
384
377
380
383
385
388
390
389
392
396
396
395
397
402
411
403
399
395
394
399
407
410
408
410
410
422
417
419
421
410
412
412
408
409
412
414
420
423
417
413
417
421
430
426
421
423
426
426
424
421
422
428
430
430
434
439
443
442
439
437
441
444
448
450
451
452
446
447
455
455
443
449
455
457
459
464
468
466
467
467
467
468
478
480
480
465
463
468
467
458
457
466
476
476
476
479
484
485
478
476
474
477
483
490
492
478
475
477
475
479
481
488
491
487
487
482
491
496
492
496
496
486
483
487
495
498
493
487
481
480
479
482
496
488
470
464
469
473
470
467
456
453
454
451
447
446
440
438
438
441
441
436
440
443
442
437
435
435
438
437
437
434
435
436
436
435
436
437
437
436
435
442
445
447
447
444
439
437
439
441
450
435
428
430
433
429
423
424
438
437
429
430
435
439
438
436
440
440
440
435
432
429
426
430
430
435
443
441
430
426
431
433
430
431
435
437
436
433
432
436
440
440
438
441
443
440
440
441
439
435
432
430
426
428
437
437
442
448
462
485
485
486
501
521
542
565
592
622
659
694
737
777
817
863
911
964
989
989
988
988
988
987
987
986
986
986
986
987
988
989
959
897
839
779
722
667
591
499
393
311
266
249
255
266
281
299
319
313
310
319
330
338
338
340
340
353
368
376
380
383
385
389
390
390
385
399
395
394
392
389
382
380
383
385
387
391
396
396
397
398
396
401
402
392
391
394
397
400
403
403
401
406
411
413
413
418
426
410
407
415
420
424
425
426
426
431
435
432
434
434
436
439
441
442
442
441
450
458
453
454
459
451
440
447
449
450
456
460
461
460
457
458
464
465
466
464
465
470
475
477
476
486
486
484
484
484
485
485
482
476
474
483
492
498
504
502
500
502
506
507
506
503
507
514
519
513
507
510
509
511
515
521
524
528
530
528
528
529
534
539
541
543
545
548
548
546
550
558
565
583
565
554
557
560
561
557
552
551
559
565
562
562
563
568
568
575
572
563
561
563
565
563
561
557
556
554
551
549
550
546
543
540
534
534
536
537
537
525
517
521
526
508
501
496
496
490
490
488
486
486
487
485
478
470
468
454
451
451
443
439
436
430
423
421
414
408
405
403
405
405
407
404
399
393
393
391
391
389
380
379
379
379
377
375
377
375
376
380
385
369
367
369
368
368
374
376
370
370
367
371
379
378
374
368
368
367
371
374
371
376
384
384
381
387
370
369
375
380
382
381
383
387
387
386
386
388
391
393
393
392
398
405
406
402
402
402
402
405
411
411
409
420
412
404
405
403
406
412
411
415
411
411
418
421
421
415
417
422
419
418
415
414
417
421
426
426
428
430
430
432
437
423
427
435
444
434
430
437
438
433
433
440
444
445
442
442
446
450
452
451
449
448
449
448
448
448
449
453
458
460
460
460
465
470
470
469
464
464
467
467
465
470
475
478
476
472
474
478
489
481
472
469
476
489
489
481
477
480
500
477
464
471
477
481
486
488
488
487
488
489
488
484
484
486
490
491
492
491
488
493
498
499
495
499
504
492
476
475
474
473
474
473
471
471
474
471
467
460
453
447
441
435
432
433
438
440
436
434
431
430
428
424
424
430
430
434
435
436
433
430
433
435
435
433
435
433
430
426
430
432
435
444
445
428
424
428
429
427
423
424
428
429
424
417
417
432
438
430
426
428
428
432
434
430
424
425
431
439
431
424
426
428
431
431
422
424
441
451
429
421
423
429
435
434
431
435
434
430
431
427
429
431
430
426
419
413
412
409
409
417
427
442
462
479
493
510
532
555
577
586
602
634
673
719
719
764
810
866
919
961
989
989
988
988
987
987
986
986
986
985
985
986
986
987
988
989
938
859
778
696
605
492
380
307
307
256
232
239
263
287
307
317
325
332
338
343
350
361
374
374
369
362
359
359
371
368
369
355
349
355
356
353
355
354
353
358
360
359
361
361
359
361
361
366
366
366
363
367
368
371
375
375
375
378
378
379
383
387
392
393
400
400
393
394
394
394
392
393
396
404
409
410
408
410
412
417
417
416
419
425
426
422
425
434
442
435
436
443
442
422
427
436
436
437
437
443
442
439
440
444
451
455
456
451
453
460
474
463
452
452
458
467
476
469
471
472
481
467
465
475
482
489
492
482
480
485
486
483
484
491
496
497
498
493
494
500
506
508
510
515
517
517
512
514
521
528
530
524
524
527
527
529
530
531
531
549
551
538
542
543
547
552
551
548
547
548
555
553
542
537
540
546
549
547
545
542
542
540
535
532
535
534
531
527
527
526
524
527
526
515
508
506
505
504
502
499
497
494
491
485
482
480
480
475
472
470
452
452
451
445
440
439
438
434
428
422
422
423
420
413
411
421
414
403
393
390
389
390
398
396
380
377
382
391
379
372
378
380
380
374
367
367
374
376
376
378
383
380
378
373
368
372
372
360
362
367
369
378
387
371
370
371
375
377
378
380
383
384
385
389
388
385
386
390
390
391
393
393
392
396
397
396
395
397
401
405
405
390
389
399
404
403
402
401
403
405
407
408
406
409
410
413
414
419
422
420
417
419
425
438
429
404
405
414
420
422
423
422
419
426
426
421
426
433
436
439
443
433
427
436
427
423
428
436
436
440
439
441
445
447
444
439
436
433
437
446
449
449
450
458
452
441
443
447
453
457
457
458
463
466
468
465
460
458
458
460
465
466
467
467
470
470
469
465
467
472
472
471
468
475
475
474
479
482
483
484
486
488
482
482
486
487
487
486
487
492
494
493
486
482
487
494
498
495
492
497
503
501
499
500
500
492
494
480
470
474
476
474
472
471
474
475
476
471
471
468
467
461
453
443
435
435
439
442
439
433
446
453
439
428
426
427
432
435
435
434
439
446
445
440
441
429
428
429
429
427
436
424
422
424
426
428
437
436
430
429
432
442
438
427
428
427
427
424
419
423
425
420
424
428
431
432
430
429
432
433
431
431
433
433
434
440
446
438
429
425
424
425
427
427
435
437
437
438
436
431
430
435
434
428
419
417
418
415
415
414
406
406
419
434
452
470
483
504
527
547
566
588
617
649
693
740
787
829
880
936
983
989
988
987
987
987
986
986
986
985
985
985
985
985
986
987
987
988
989
920
822
707
610
493
379
308
259
238
248
269
292
309
319
331
335
343
357
365
374
368
361
354
350
351
348
346
350
352
352
355
357
356
357
360
362
360
354
354
352
353
353
349
349
353
358
358
357
352
352
354
363
365
369
378
375
370
373
374
377
374
373
378
380
381
384
387
390
393
397
396
397
400
401
403
409
410
412
412
412
413
418
418
418
414
414
417
420
423
428
428
428
429
430
443
430
427
435
439
439
441
444
446
446
444
445
451
453
454
460
457
453
459
466
477
464
461
464
466
469
472
473
477
477
475
479
486
490
487
485
486
485
488
492
500
509
499
498
505
505
506
509
514
515
515
514
518
523
528
527
526
524
523
523
533
535
536
548
542
537
537
543
546
550
551
553
554
552
546
546
543
546
558
545
537
535
539
538
543
544
538
534
534
536
536
535
529
527
532
537
518
509
508
507
504
511
518
496
492
497
494
490
480
474
470
465
459
456
456
455
450
448
443
440
435
429
424
421
421
420
414
408
406
406
408
407
396
398
400
400
385
385
391
386
380
373
378
380
378
379
376
375
373
372
373
374
373
370
369
369
365
361
365
367
371
374
379
378
379
379
382
379
371
368
370
375
377
376
377
379
382
385
386
385
387
389
390
390
398
387
387
391
401
401
391
391
395
396
396
403
412
404
400
400
399
401
404
406
410
412
414
413
411
412
426
419
414
416
416
418
425
424
419
418
420
423
427
425
419
419
417
427
429
431
429
428
431
437
439
432
432
437
436
435
436
437
435
432
432
427
430
442
446
439
435
442
449
437
437
437
443
444
448
448
445
441
444
445
447
448
450
454
459
463
461
463
473
453
453
459
463
469
472
472
470
467
464
462
461
460
462
467
476
478
472
473
471
471
468
465
470
485
486
477
489
480
472
477
482
485
487
489
492
492
490
492
496
500
503
503
501
498
500
501
501
503
501
500
501
500
492
486
487
494
497
490
481
481
481
483
479
483
484
471
469
468
461
455
450
450
446
441
437
437
441
442
439
438
441
463
442
420
424
430
425
429
434
436
435
431
431
431
434
437
440
435
436
438
440
441
438
435
428
425
427
431
433
432
431
432
434
432
437
429
424
430
432
432
433
435
435
431
425
426
429
429
432
429
430
430
429
431
430
427
428
431
434
432
434
439
441
444
452
437
430
430
434
435
434
433
429
424
417
409
408
411
411
411
419
419
427
442
463
479
493
514
539
563
586
603
629
668
713
757
799
846
905
953
989
989
988
988
987
987
986
985
985
985
984
985
985
986
987
988
989
944
861
779
684
577
444
347
290
258
233
245
275
302
321
328
331
336
346
354
356
365
372
371
373
373
363
350
353
355
360
357
353
355
357
361
361
359
357
353
346
346
351
356
354
354
363
364
362
360
360
360
364
365
367
367
372
370
370
377
380
378
380
383
387
390
389
391
395
399
397
394
396
398
402
404
408
405
407
416
436
425
415
417
411
411
415
422
423
429
436
434
430
431
437
441
452
451
440
438
440
440
440
444
455
459
454
451
457
463
465
462
460
463
469
469
471
468
463
463
471
486
477
467
473
480
482
482
489
492
480
481
484
484
491
497
499
500
507
512
511
511
513
511
509
509
517
520
518
520
524
530
540
535
520
523
527
526
533
539
541
543
542
543
546
548
553
554
550
550
549
557
560
552
549
549
547
548
549
540
539
543
544
542
540
541
542
537
529
525
523
525
528
522
513
509
505
503
500
505
494
488
497
491
474
474
469
471
467
461
459
459
462
459
450
442
436
435
436
433
425
418
411
410
410
410
412
426
409
389
391
393
396
396
391
391
389
386
387
383
380
373
375
379
378
368
361
370
388
382
373
369
365
369
372
370
367
367
366
368
372
374
379
377
378
375
376
383
374
376
378
376
378
378
380
380
387
390
388
391
399
386
385
388
388
384
377
382
392
400
403
404
405
408
406
406
402
403
412
416
409
407
409
408
409
407
406
408
411
417
419
420
422
422
423
420
419
419
417
422
426
426
422
424
423
423
425
424
421
420
428
432
432
438
439
449
463
428
417
424
434
437
438
439
440
439
440
439
442
459
460
438
432
437
436
440
442
445
448
454
442
434
435
436
439
446
453
454
450
458
461
445
442
450
454
456
457
453
453
459
463
466
470
469
466
466
464
465
463
462
467
469
468
466
465
467
470
469
463
465
466
470
473
477
479
482
482
483
484
485
489
495
499
498
492
492
493
495
493
491
494
499
502
498
495
498
496
495
495
495
497
498
499
497
491
485
482
482
483
478
475
475
475
478
486
478
461
468
457
443
437
440
440
457
441
429
432
436
437
443
438
427
429
434
435
428
427
433
436
434
430
434
441
440
436
436
434
433
434
434
431
432
435
439
436
437
429
431
434
435
433
432
437
434
433
429
427
429
433
433
428
426
428
427
427
427
426
428
431
432
432
430
429
432
438
440
437
438
437
435
433
432
433
437
439
437
435
432
435
437
436
432
427
425
424
417
410
405
406
409
416
426
431
451
473
493
521
545
560
583
608
634
665
717
767
807
852
906
962
989
989
988
988
987
986
986
986
985
985
985
985
985
985
986
987
988
989
954
853
764
668
549
426
320
258
229
231
249
272
293
314
325
328
329
336
336
345
352
361
367
368
361
358
352
349
349
355
361
365
366
365
363
359
359
366
371
353
341
343
349
358
368
368
363
356
358
359
366
368
366
369
372
371
371
371
376
384
386
395
386
386
393
394
391
396
406
409
406
404
400
403
407
410
412
413
413
419
421
426
421
415
419
426
430
427
429
434
433
431
424
423
440
445
438
438
442
446
450
448
454
456
446
454
459
457
457
457
463
475
464
457
455
457
462
471
481
473
470
477
483
484
487
489
487
488
479
479
486
495
498
499
496
497
506
513
515
515
520
509
506
511
512
518
522
521
520
524
529
531
533
534
536
539
545
555
541
534
540
545
550
548
545
547
548
550
550
548
546
548
552
550
550
553
554
557
553
545
543
543
542
539
538
542
534
528
526
522
518
518
515
511
508
502
500
499
499
496
505
491
485
484
479
474
475
477
473
467
458
453
450
452
447
439
434
429
430
429
426
421
424
420
407
402
402
401
404
401
395
388
390
393
396
396
385
383
396
399
373
367
377
385
386
381
373
371
371
371
370
374
380
381
381
378
375
376
376
383
390
373
365
370
373
373
379
384
380
381
382
378
378
381
385
398
395
380
383
383
383
394
401
397
397
398
398
400
400
405
403
401
393
391
400
407
409
409
408
410
408
408
406
406
409
422
423
410
416
426
411
411
413
416
420
420
425
429
423
423
426
430
430
431
431
433
434
433
434
437
437
435
430
426
432
440
442
436
431
433
441
442
439
438
442
448
450
438
438
438
441
442
436
432
436
442
444
442
443
441
451
451
439
442
448
453
454
459
455
450
450
448
445
441
442
448
454
453
453
451
455
469
457
442
440
443
454
457
455
454
453
458
473
479
458
445
452
460
461
461
460
463
466
465
465
465
471
472
471
470
472
470
465
463
469
464
459
470
479
487
490
495
494
491
489
489
495
493
486
484
488
491
497
499
497
500
505
504
504
507
508
506
507
508
508
504
501
503
501
493
484
478
479
478
477
475
476
477
476
473
463
452
446
442
439
438
442
447
447
448
443
438
435
439
439
438
437
439
441
441
440
431
434
443
450
456
431
418
428
434
431
434
445
446
435
430
427
429
432
437
437
432
431
432
433
432
431
430
433
434
432
432
432
435
436
434
428
429
433
436
435
434
434
434
432
431
430
431
431
438
441
433
434
435
438
440
439
438
438
441
439
435
433
433
437
434
426
422
422
423
420
409
403
403
406
414
431
449
449
472
492
511
530
554
580
606
633
665
706
750
797
843
893
949
989
989
988
988
987
986
986
985
985
984
984
984
985
986
986
987
988
981
884
791
691
579
446
339
271
234
227
245
271
290
306
318
323
321
335
337
342
353
363
366
361
358
354
351
351
350
353
359
364
366
360
358
357
356
355
370
365
345
345
346
350
354
360
363
363
359
363
364
365
368
367
375
379
372
372
375
379
378
381
381
384
390
392
395
397
398
398
401
402
403
403
409
418
407
405
405
404
411
426
429
428
420
420
424
425
424
423
425
433
436
436
432
434
437
439
442
447
446
446
447
445
447
452
457
461
458
457
462
467
473
458
455
459
467
467
474
476
480
483
477
480
481
484
488
493
491
489
490
496
505
497
490
488
491
499
505
507
508
511
514
515
511
511
516
516
520
526
526
528
528
529
529
533
533
533
538
541
541
539
542
546
547
544
540
539
556
579
555
530
532
541
547
549
542
542
543
543
539
536
539
538
538
540
545
533
530
527
523
516
514
512
509
508
503
500
500
498
500
494
484
486
487
479
478
478
476
475
469
460
452
451
452
450
446
435
431
430
428
422
418
417
419
416
410
407
404
402
401
398
396
397
395
389
390
390
391
390
389
394
390
377
378
377
377
377
381
380
377
375
367
367
375
380
381
380
374
375
377
380
378
368
373
380
381
380
379
380
388
389
385
385
385
386
389
387
382
380
385
390
392
389
392
394
397
398
398
398
401
404
397
390
397
407
402
402
407
415
404
400
406
416
420
418
407
407
407
411
417
424
427
424
421
423
425
426
427
424
424
425
429
428
429
434
438
438
437
436
439
439
439
438
433
430
435
435
431
427
430
432
434
437
437
439
442
442
441
441
442
446
448
447
439
433
437
443
447
447
443
444
447
448
447
443
443
439
443
447
451
448
453
454
450
450
463
451
448
452
453
452
451
449
446
449
458
458
463
463
459
456
464
475
469
463
463
460
462
466
469
470
468
468
467
466
465
469
471
482
472
468
474
478
479
481
485
485
481
481
483
488
486
489
497
490
475
476
484
493
498
496
498
501
505
505
501
503
506
507
505
507
509
510
492
485
482
483
486
489
483
478
474
475
473
471
465
460
457
456
449
446
441
438
437
436
436
439
441
445
442
437
437
440
446
447
439
439
436
438
436
433
434
437
439
442
440
439
439
440
444
453
440
433
437
441
445
442
441
436
434
436
436
436
439
436
432
432
431
433
438
430
432
433
434
435
440
448
437
426
426
431
437
438
434
436
438
438
436
432
435
438
437
433
435
440
442
439
433
435
437
441
441
438
430
428
425
423
416
416
419
416
423
433
451
474
497
510
520
539
571
600
631
670
695
719
756
756
806
868
929
982
989
989
988
988
987
987
986
986
986
985
985
985
986
987
988
990
915
830
747
663
592
453
325
263
226
226
217
232
254
278
297
302
308
311
315
319
329
339
350
356
365
362
363
362
362
369
373
379
386
387
384
382
379
379
372
371
372
371
368
371
381
384
378
377
379
385
390
391
386
385
385
385
388
393
397
397
400
398
399
404
416
422
414
414
424
424
416
415
423
426
423
423
422
419
422
421
425
432
434
433
450
449
445
441
440
440
446
450
453
454
461
466
462
458
460
460
458
455
458
461
471
468
465
469
470
470
478
477
477
473
472
474
481
490
500
488
478
482
488
492
496
489
491
501
498
496
498
503
508
512
519
510
510
514
518
521
520
525
530
535
535
537
540
541
542
540
539
543
545
550
550
548
551
552
555
555
553
554
564
568
567
568
563
561
571
569
560
557
560
562
563
561
572
573
565
563
560
554
554
554
549
546
548
553
555
555
556
558
551
539
536
530
522
518
523
517
508
504
499
497
497
504
490
477
479
480
474
469
463
463
465
467
445
440
442
446
428
420
415
421
421
424
417
394
392
395
395
389
385
385
386
384
377
376
375
374
376
375
377
375
373
367
362
362
366
366
366
365
362
366
377
374
371
366
364
365
366
370
374
371
371
370
365
360
359
363
369
375
377
380
382
382
381
384
384
384
379
384
381
381
379
386
393
390
389
388
387
393
394
388
389
397
405
408
404
412
413
406
405
400
400
407
413
413
409
412
425
422
419
417
418
421
419
415
414
424
427
424
432
428
420
430
429
419
416
423
430
433
432
428
434
435
435
432
431
431
434
441
442
438
439
441
446
445
449
451
447
452
453
447
443
439
444
450
453
449
446
447
446
451
451
454
456
465
469
469
471
472
471
455
452
450
462
471
473
472
469
473
478
473
464
470
473
474
474
476
475
481
486
484
482
478
479
488
485
477
469
465
473
489
497
493
487
486
484
488
491
492
495
494
492
492
494
499
495
494
493
490
489
487
481
478
471
469
469
469
465
467
469
470
473
466
456
457
454
437
429
431
434
443
451
438
430
440
436
428
431
428
432
436
438
441
440
436
437
437
441
442
442
443
442
438
431
428
430
431
428
431
432
433
435
439
437
432
429
432
439
442
440
428
430
433
433
432
433
434
431
437
435
425
430
432
431
434
438
441
441
438
437
435
433
433
434
436
434
437
438
435
435
436
442
439
435
435
439
439
446
446
444
437
433
433
429
424
428
433
445
461
470
478
493
517
538
555
573
604
634
667
701
736
777
826
881
928
965
965
989
989
988
988
988
987
987
986
986
986
987
989
989
961
887
835
775
714
649
571
475
373
303
260
240
244
260
272
281
299
319
335
337
324
323
332
340
359
379
371
368
376
383
388
388
387
389
392
396
397
395
394
394
387
381
385
391
396
397
397
396
397
404
403
390
389
391
396
398
398
398
397
406
412
412
408
410
410
416
420
430
430
418
424
420
416
418
420
423
423
428
430
434
438
439
439
438
445
450
449
446
442
444
451
451
451
457
456
452
457
462
474
478
466
465
464
465
468
469
472
475
470
471
477
482
484
484
487
492
495
493
490
491
500
501
502
486
489
494
499
508
508
505
508
515
515
516
518
524
524
523
521
518
520
528
535
538
536
538
542
549
565
549
542
547
552
550
556
558
561
562
561
561
564
571
576
577
571
573
573
582
580
577
575
583
576
569
567
564
569
578
582
578
580
584
574
576
566
558
566
569
561
546
539
542
546
550
551
548
545
545
540
532
522
515
517
515
508
496
487
488
491
488
481
476
473
469
460
454
450
446
442
435
432
429
426
424
418
408
408
407
406
406
404
395
393
390
388
386
386
387
377
379
376
374
374
377
375
370
363
360
366
368
368
361
361
362
363
365
365
361
364
367
363
359
362
364
367
369
366
363
366
377
385
378
360
361
378
366
356
363
377
394
391
381
377
375
372
383
386
384
387
394
398
400
392
395
392
389
394
395
399
402
404
396
393
400
408
411
406
404
401
402
413
412
405
410
412
416
416
417
412
415
417
420
417
421
422
423
419
413
412
414
416
420
426
423
424
431
436
434
433
438
443
441
432
432
439
446
446
447
444
441
444
445
446
446
446
449
450
446
444
449
455
464
464
460
473
469
468
459
455
457
460
464
466
465
466
469
472
468
463
464
469
470
477
478
484
487
483
483
483
478
478
479
478
475
471
475
481
481
482
482
486
512
518
483
478
489
489
494
498
493
492
489
488
492
492
491
494
492
485
472
463
464
469
474
477
463
460
460
457
455
449
446
445
445
442
440
440
436
436
437
434
434
435
431
431
431
430
431
435
436
436
435
436
437
436
436
434
435
435
433
428
429
434
435
435
431
429
427
430
435
435
430
429
432
433
432
427
424
423
432
423
421
426
432
432
427
427
427
432
434
430
428
435
439
438
441
441
433
428
426
432
429
428
432
438
454
439
427
427
426
431
431
436
439
435
437
435
426
422
424
429
433
439
450
465
471
471
460
470
499
514
530
546
571
598
625
662
697
735
769
804
854
903
945
985
989
989
988
988
987
987
987
986
987
987
988
989
939
866
801
755
697
638
563
483
388
309
262
240
241
254
266
278
291
307
316
319
319
321
326
334
344
360
370
379
386
386
386
384
381
384
389
389
385
388
388
383
384
386
389
380
377
385
396
379
384
381
385
384
383
388
397
400
401
403
406
406
407
402
399
392
392
399
411
413
417
419
422
423
418
416
421
427
429
426
426
432
438
441
437
435
435
445
463
444
436
443
444
446
445
443
445
454
460
457
454
455
454
454
450
452
459
464
465
463
458
458
463
467
473
480
488
500
486
475
475
475
479
475
481
484
485
486
486
487
487
491
497
502
500
497
506
512
515
519
516
508
513
519
520
520
523
525
530
534
535
535
535
542
548
547
545
552
567
563
557
551
550
555
556
560
561
562
569
578
581
580
581
581
582
590
570
562
565
568
571
568
565
565
567
565
564
563
558
559
557
552
556
548
553
546
537
534
534
530
525
519
514
516
515
515
512
505
501
499
493
493
485
479
476
478
472
464
459
458
455
451
444
443
443
433
423
416
422
412
406
404
395
387
385
395
396
378
381
386
388
388
385
381
383
380
377
372
365
360
360
365
374
372
368
368
367
363
368
371
359
361
367
370
359
359
361
362
364
360
363
365
369
368
371
371
371
377
388
374
368
375
390
380
376
378
383
382
382
381
381
386
391
391
391
392
393
391
396
401
402
402
403
397
394
398
401
404
405
405
398
397
404
411
413
416
420
423
418
415
415
419
425
423
417
419
416
424
433
419
417
417
421
424
425
425
427
429
427
425
423
427
434
436
433
431
432
444
448
444
443
441
448
449
447
447
443
443
448
449
444
443
444
453
456
456
458
462
462
462
464
461
461
462
462
465
468
476
481
479
463
471
475
465
466
466
469
474
480
479
477
477
476
479
482
479
475
474
482
486
485
482
495
487
491
493
488
485
491
498
504
498
492
493
496
491
482
480
489
500
491
491
474
468
470
469
468
465
461
465
467
464
460
456
455
451
441
435
430
431
441
438
431
432
450
444
434
438
434
434
437
438
438
437
442
443
429
429
430
436
437
435
435
433
432
433
435
431
432
438
437
428
427
427
427
425
426
423
422
427
432
432
431
429
429
433
434
431
422
424
424
425
427
429
432
439
435
423
427
424
439
436
438
435
435
436
435
435
433
429
433
433
439
434
431
428
427
431
431
423
418
419
420
417
416
420
433
449
466
478
495
517
532
548
565
588
616
647
679
717
751
794
842
888
928
968
989
989
989
988
987
987
987
987
986
986
987
988
988
989
938
866
794
721
647
566
467
363
294
251
231
231
234
254
267
293
315
333
333
335
335
332
341
357
370
381
378
379
378
377
373
374
377
374
372
371
370
377
382
380
374
374
371
375
380
384
385
387
397
403
405
407
381
372
382
389
393
398
405
398
383
379
385
393
397
399
400
404
409
415
420
417
411
416
419
418
413
419
429
436
425
422
425
430
430
435
433
418
421
439
437
428
432
438
440
446
450
460
453
454
461
461
459
458
473
467
456
458
463
472
475
482
488
481
457
459
471
473
477
481
485
490
492
487
492
502
505
505
505
509
512
512
513
511
510
511
513
513
517
524
525
528
540
545
535
537
543
543
544
548
556
566
566
573
575
571
573
570
567
573
584
587
592
595
596
605
591
579
580
585
594
604
618
617
601
597
598
592
591
598
607
592
584
586
589
597
596
591
587
580
582
582
590
585
573
562
557
555
551
549
568
538
514
517
531
531
544
526
504
489
482
481
483
481
470
467
464
457
448
436
432
432
429
430
427
419
416
414
411
405
402
400
397
392
388
388
390
387
380
372
367
367
368
369
368
367
366
368
367
361
359
363
362
358
359
361
363
363
361
361
358
365
374
372
366
366
377
372
376
398
384
370
362
362
364
365
369
373
376
379
378
378
378
386
387
386
386
387
392
392
390
394
394
397
395
393
397
401
403
411
412
397
402
407
406
398
399
400
404
412
420
420
416
405
409
414
416
411
411
417
420
420
417
415
417
419
420
420
422
427
432
430
427
426
429
433
433
434
435
435
436
440
438
438
440
444
442
441
441
445
449
447
450
452
458
461
460
458
458
460
466
463
455
458
465
469
471
469
483
490
473
473
451
451
461
470
474
474
471
468
471
480
476
470
472
474
476
483
470
464
475
469
476
470
472
484
494
495
494
498
500
500
504
504
490
487
491
493
493
487
487
487
484
476
469
466
467
466
466
470
471
468
464
462
463
449
435
435
435
435
438
446
448
443
440
438
447
441
428
427
430
431
429
433
434
435
437
445
451
435
433
442
442
433
434
438
438
438
433
431
432
432
434
437
438
433
433
436
435
431
427
431
433
431
428
431
441
457
437
426
423
423
427
431
435
433
432
436
439
436
430
430
432
435
435
431
434
437
437
438
434
433
435
438
438
443
447
439
426
424
427
428
430
434
436
433
438
450
465
482
494
500
518
534
550
576
594
617
649
682
718
763
815
852
903
934
958
989
989
989
989
988
987
987
987
987
988
988
989
944
877
877
809
756
698
644
570
499
412
332
279
245
236
251
275
296
319
335
324
333
345
346
352
376
384
386
395
397
397
400
395
395
398
392
381
387
393
388
383
382
385
387
386
382
383
390
393
389
388
389
392
395
394
403
398
403
408
407
405
406
404
416
414
400
407
411
411
409
412
417
426
432
426
410
410
420
422
422
423
424
428
431
428
427
431
437
441
442
444
447
452
452
453
451
450
450
450
447
447
445
447
452
449
446
446
452
456
462
463
473
464
464
470
468
467
468
472
473
474
480
476
476
471
474
477
477
482
485
483
481
488
483
482
487
487
488
492
497
503
508
501
499
502
505
510
516
526
519
516
516
518
522
527
522
518
522
532
538
539
546
532
523
527
534
537
537
544
548
548
549
547
545
544
543
536
536
540
539
539
540
538
538
540
545
547
539
524
529
528
526
523
524
529
523
516
512
505
503
503
502
498
498
492
482
482
482
470
470
477
472
462
462
456
455
454
448
443
435
431
429
422
416
415
415
419
423
419
416
417
422
406
394
393
400
404
396
390
389
389
393
402
386
373
378
385
388
388
383
380
378
375
372
373
380
395
392
371
368
372
373
374
376
377
378
377
380
383
384
387
390
390
390
389
387
390
405
399
393
385
384
390
395
395
403
403
397
387
386
389
398
404
401
397
398
407
414
415
416
407
401
403
403
408
411
411
411
414
416
417
417
419
420
419
418
421
424
422
428
427
426
426
425
422
424
431
432
434
432
430
433
439
444
443
447
445
437
430
430
428
426
431
439
447
449
445
447
447
447
440
442
446
449
450
450
450
453
450
449
450
456
487
487
473
454
453
456
456
461
461
460
458
464
471
469
466
467
469
471
469
467
466
465
479
472
466
474
482
470
473
476
478
478
481
484
485
484
486
494
496
487
488
490
501
508
491
480
479
484
492
490
483
489
491
488
487
485
490
490
484
477
468
468
474
479
475
478
471
463
467
465
460
455
453
448
441
433
430
436
440
446
431
430
433
429
437
433
429
431
435
446
435
435
436
450
454
441
436
434
438
443
443
438
433
444
435
428
431
428
427
433
433
431
435
441
436
430
432
433
434
437
434
434
430
434
434
431
435
434
430
430
430
424
423
431
435
433
432
436
436
437
450
453
434
426
434
441
442
440
438
435
433
431
424
418
420
420
422
424
435
448
459
472
481
495
513
529
548
565
583
598
618
653
693
730
769
802
833
860
892
933
972
972
990
989
988
987
988
987
988
987
988
988
989
970
916
858
760
687
638
580
514
424
345
305
295
280
287
305
333
343
345
345
363
380
395
407
415
418
416
408
413
403
393
389
387
387
389
388
385
384
380
376
374
376
376
389
395
386
380
381
380
383
382
381
378
379
382
383
384
387
393
395
400
396
393
396
396
397
394
398
403
408
411
411
409
411
414
420
418
424
423
423
417
417
421
418
420
429
431
436
432
421
428
436
451
430
421
427
437
437
432
435
446
463
451
438
441
453
449
449
452
452
455
460
460
456
451
452
460
465
462
462
461
469
475
481
468
465
469
466
469
470
470
466
467
472
476
477
483
485
479
477
477
482
491
497
495
493
500
516
509
498
500
507
508
510
515
503
501
509
516
521
517
517
523
527
526
521
525
530
530
530
532
531
537
544
525
515
518
523
526
529
529
530
541
530
519
516
517
518
514
516
514
516
516
510
508
516
514
499
498
498
497
494
488
486
484
480
476
477
480
478
472
468
469
461
453
444
439
441
447
453
449
429
423
427
423
419
417
416
420
420
412
405
396
396
399
401
403
404
401
396
388
387
386
394
396
392
400
383
381
383
388
401
392
390
395
394
386
385
388
388
392
391
388
387
390
391
386
380
381
394
399
400
398
401
398
401
401
396
397
402
402
404
405
406
406
410
412
410
408
408
412
412
409
408
417
418
408
410
415
416
419
419
424
426
419
419
420
421
422
425
431
432
429
429
430
432
433
433
430
430
430
427
428
425
428
432
436
434
432
431
432
434
430
433
431
431
439
442
446
449
443
437
442
450
444
432
430
433
437
437
441
448
451
443
441
446
447
447
446
447
450
453
452
451
449
448
451
461
453
439
439
449
457
455
459
466
475
473
469
469
469
469
472
469
465
457
458
463
463
460
458
457
462
463
458
458
464
470
478
479
478
481
480
483
484
485
491
497
495
485
481
480
485
491
494
494
495
498
494
487
485
489
502
492
489
489
489
490
491
490
491
490
485
462
465
473
476
475
471
471
469
470
470
467
462
459
452
449
449
447
443
440
439
446
448
442
443
442
450
458
441
430
435
442
445
444
440
436
437
437
439
444
450
440
440
443
439
435
435
437
439
440
437
438
439
440
441
436
434
438
442
439
434
436
441
442
437
438
437
442
441
435
440
440
436
437
438
435
435
439
438
437
437
441
447
455
447
433
434
437
438
435
432
433
435
432
433
433
424
424
432
439
443
452
467
486
502
508
519
533
553
577
605
615
633
673
707
742
771
801
831
872
909
945
983
989
989
988
988
988
988
988
988
988
988
989
967
907
844
775
709
653
604
547
468
387
329
296
284
290
305
323
342
355
365
379
393
401
405
410
414
413
408
400
399
400
401
403
412
414
397
383
382
380
380
384
386
380
377
377
384
391
390
390
391
393
394
395
391
391
387
390
397
400
401
402
409
409
397
399
400
405
412
409
405
403
411
418
410
415
423
426
428
427
404
407
415
423
425
425
424
425
430
430
429
430
430
434
440
443
444
445
447
447
446
444
438
437
445
443
445
451
451
452
457
458
459
462
464
467
465
466
466
469
477
463
473
483
471
466
466
464
468
475
476
475
476
479
479
481
480
482
485
492
493
493
499
509
496
496
489
492
496
498
505
508
507
505
511
515
516
513
511
511
516
519
518
517
520
522
523
525
527
529
531
530
533
528
530
530
535
534
529
528
528
531
531
532
530
522
525
530
531
516
509
509
511
512
513
514
517
515
507
506
508
521
524
490
464
466
475
478
480
476
474
474
469
463
459
458
457
451
444
440
440
441
439
430
423
423
431
425
413
408
409
412
410
404
402
402
407
407
400
395
395
396
398
400
397
393
395
397
395
392
390
391
393
391
386
387
393
399
397
392
387
385
385
386
395
395
394
384
384
386
386
385
388
394
400
396
393
396
403
407
396
394
401
405
408
404
403
409
404
403
404
407
415
405
405
409
410
412
413
415
416
428
422
422
424
420
419
424
427
427
425
422
420
425
431
430
430
432
435
436
435
432
434
440
438
438
427
429
436
438
434
432
434
438
442
442
442
441
443
445
448
444
443
447
450
447
443
439
442
444
445
444
442
443
447
447
455
449
439
442
445
446
444
448
451
448
446
444
449
453
455
452
450
450
452
451
450
452
452
459
463
462
461
457
456
457
457
471
467
453
445
449
461
458
453
455
460
462
465
479
475
467
464
467
470
478
486
469
463
477
470
459
462
465
463
463
461
467
470
473
478
481
483
481
481
485
487
488
489
490
493
495
497
501
500
500
499
497
493
492
497
501
497
495
491
491
495
497
497
493
490
487
485
479
475
468
472
480
480
475
467
462
459
455
455
451
449
450
452
452
444
443
443
444
440
440
443
446
446
442
443
446
442
444
445
446
448
446
444
437
438
445
447
453
454
443
441
442
440
441
452
433
430
435
436
436
437
441
443
445
442
441
437
436
437
437
438
437
433
430
431
436
442
443
444
445
439
442
445
441
438
441
443
439
438
438
440
443
459
450
428
430
439
449
445
439
434
436
444
445
439
434
440
457
474
488
497
509
525
542
565
582
599
635
658
682
723
757
792
835
870
897
928
969
989
989
988
988
988
988
987
987
988
989
969
902
834
773
720
678
613
536
450
359
302
302
265
256
270
293
308
322
335
347
362
377
390
397
403
409
414
412
407
404
401
406
405
400
403
404
402
399
394
395
397
397
393
393
393
399
393
393
399
406
393
393
394
396
399
395
398
400
402
398
400
421
413
395
394
397
403
409
416
415
420
424
420
418
419
419
424
428
424
427
432
438
438
434
427
428
432
434
433
432
434
450
459
433
431
437
442
446
448
448
450
450
457
460
456
453
463
474
454
445
450
456
463
468
468
464
460
465
472
473
469
466
471
475
479
479
479
483
484
482
473
473
476
486
492
494
493
488
501
496
491
492
493
496
500
498
497
499
503
502
510
513
506
511
515
514
515
514
517
521
521
521
534
535
530
537
539
527
521
527
529
528
530
533
534
534
530
532
536
539
537
532
528
528
543
538
517
513
518
520
521
521
519
518
519
515
513
510
508
509
513
510
497
509
504
495
495
496
513
481
459
462
464
463
463
463
461
453
448
449
446
446
439
433
431
432
434
431
427
427
433
428
418
410
405
402
402
407
403
403
400
399
401
398
399
404
400
394
392
390
396
397
394
390
390
390
387
383
379
379
384
387
389
387
388
394
397
394
391
391
396
404
394
388
387
393
395
397
398
398
404
404
404
398
394
394
400
407
408
412
415
426
429
415
405
401
407
413
415
414
414
414
417
419
422
424
423
422
423
430
448
448
440
420
417
416
417
420
427
436
447
437
425
425
425
426
427
432
437
435
433
435
439
444
443
439
438
445
435
437
440
443
443
444
444
442
439
443
445
440
445
455
449
447
449
447
449
453
455
454
450
445
443
444
439
443
446
448
450
448
451
451
453
455
456
455
453
454
454
453
454
451
450
449
450
448
448
452
459
460
454
452
467
484
465
440
441
446
449
451
455
455
454
453
454
456
454
456
461
469
474
472
465
458
457
457
461
466
472
477
482
487
474
460
459
461
462
463
466
471
474
472
475
475
476
477
479
478
477
485
494
501
500
501
504
506
499
497
501
503
504
500
500
499
500
500
497
493
493
494
494
494
496
495
486
476
475
474
471
473
476
477
470
462
457
457
458
439
431
436
446
450
446
444
443
451
444
436
435
437
451
451
440
442
457
445
443
441
432
429
438
445
451
449
441
437
440
442
442
440
445
448
450
445
440
435
437
438
437
434
435
437
435
432
431
433
437
438
442
451
441
437
439
432
435
439
443
443
445
447
435
435
442
441
437
436
437
435
433
432
434
434
438
438
438
439
436
439
441
435
428
429
433
437
446
458
472
488
499
509
528
551
572
592
606
630
659
695
735
763
796
796
841
886
939
960
975
989
989
989
988
987
987
986
987
988
988
989
959
893
823
756
691
621
540
432
330
269
231
221
228
248
276
303
324
332
343
355
370
385
393
395
393
402
404
404
397
405
393
388
393
397
405
404
392
388
388
391
395
395
390
390
388
396
393
385
388
391
394
398
400
398
400
400
403
402
403
409
403
397
400
401
403
407
427
426
431
414
403
408
411
411
413
416
424
433
437
433
433
433
436
438
433
431
435
438
436
437
437
438
443
445
444
448
454
455
455
451
448
452
457
463
460
456
459
460
461
469
466
464
463
459
460
461
469
476
480
478
478
479
480
482
480
479
481
484
485
485
485
487
490
490
492
494
492
491
498
500
498
498
504
509
510
509
506
508
511
513
516
516
519
522
526
527
515
519
522
525
527
531
536
536
540
546
539
529
532
535
537
537
535
535
538
546
548
528
528
536
538
535
535
533
538
537
532
529
529
535
529
515
521
517
514
511
510
502
501
505
503
501
502
503
504
500
494
489
485
491
485
468
461
457
457
457
455
452
453
455
454
448
442
442
437
436
432
426
421
421
424
419
416
418
415
404
405
407
408
409
405
401
398
399
401
402
397
392
391
393
391
390
391
391
387
388
388
389
390
390
395
394
388
385
387
384
385
385
384
389
390
393
398
398
396
397
398
399
397
395
402
410
408
406
405
407
410
412
411
410
411
411
412
411
410
413
418
423
423
407
411
418
419
413
417
427
445
436
436
422
416
423
427
427
431
439
437
432
432
425
430
439
438
437
434
435
441
443
445
440
442
446
449
444
444
441
444
446
438
440
452
454
443
443
441
443
443
444
447
446
441
439
440
443
447
449
448
447
448
450
451
447
449
452
448
445
447
451
454
454
449
447
450
452
451
447
447
447
448
450
452
450
451
454
453
454
455
455
460
460
456
451
453
454
452
450
448
448
451
454
451
452
456
456
457
456
450
454
462
466
467
468
457
460
463
464
461
456
462
465
455
455
460
468
475
474
483
474
461
463
461
458
462
462
481
478
467
466
467
470
475
478
476
477
484
488
489
492
492
493
495
496
492
497
501
502
504
505
500
498
498
496
496
498
503
507
520
499
481
479
481
479
471
465
468
473
471
465
460
458
454
451
445
442
444
448
449
446
447
450
448
448
444
444
446
445
443
441
440
442
443
444
443
440
441
447
453
454
443
434
434
442
446
434
431
435
437
439
439
438
437
437
440
440
439
435
437
438
439
440
440
438
456
455
433
430
433
434
437
438
435
432
432
435
436
435
439
444
444
442
449
434
434
435
432
432
438
442
442
439
439
437
432
425
423
425
429
429
434
440
456
473
491
506
520
535
554
571
594
615
639
671
706
706
742
780
830
879
926
966
990
989
989
988
988
987
987
987
987
987
987
988
989
978
902
826
754
690
608
502
383
292
242
242
213
213
224
246
269
293
310
333
335
339
352
365
371
378
386
390
390
386
383
385
386
389
390
390
394
392
389
389
386
381
378
384
386
380
385
397
412
391
375
379
383
383
385
389
405
393
394
401
399
396
402
404
407
416
408
404
409
411
412
412
417
421
420
420
424
416
421
423
427
425
429
433
435
434
433
437
440
441
440
439
442
445
443
442
438
443
447
444
446
446
447
452
456
462
463
463
466
467
464
466
467
477
473
463
462
468
473
472
471
470
472
474
474
477
479
483
488
488
486
485
486
489
495
496
493
496
501
503
498
498
502
512
518
511
505
506
517
516
515
517
520
522
525
524
522
525
530
532
535
535
539
534
533
536
533
532
537
542
547
546
542
539
535
536
547
550
541
547
558
543
528
530
534
536
534
529
527
530
530
530
527
524
531
525
514
510
510
507
504
499
496
497
501
508
492
479
478
481
484
480
478
466
457
455
457
458
455
453
453
449
446
437
429
423
421
417
417
417
421
421
416
411
412
405
403
399
397
399
401
401
394
387
382
385
390
388
386
385
389
389
385
390
396
380
373
371
369
372
373
375
377
380
381
381
385
385
382
381
382
388
388
384
381
383
389
395
393
392
392
392
394
396
396
393
395
395
397
395
394
399
405
406
403
402
403
406
409
409
408
411
419
423
431
440
420
405
405
408
414
417
421
426
425
442
441
417
417
421
424
427
424
424
425
426
429
429
430
431
432
436
439
438
434
432
436
441
444
443
442
442
441
442
446
434
426
435
440
443
442
440
441
447
448
442
445
449
463
445
428
431
438
446
451
451
450
450
454
456
453
453
449
448
452
455
455
454
453
456
454
451
452
462
461
448
450
450
451
452
450
450
448
452
460
461
455
452
451
456
459
457
451
450
451
452
452
452
453
454
454
453
455
463
469
471
466
467
467
476
474
460
464
469
471
469
461
456
459
464
477
477
485
464
460
466
472
477
483
483
478
476
479
479
483
490
494
493
486
489
495
500
502
505
509
514
506
500
498
501
502
502
502
496
495
496
496
491
483
479
478
478
484
477
466
465
468
468
457
450
449
446
447
444
440
441
442
440
439
440
447
455
438
434
436
442
444
447
440
441
445
445
445
443
443
443
443
440
441
437
437
438
441
440
436
437
438
442
447
435
424
424
429
435
434
429
430
429
430
436
449
434
427
425
425
427
432
438
439
437
441
443
440
437
444
442
430
435
440
441
437
437
434
440
445
434
428
431
436
438
434
424
420
420
424
427
431
440
456
456
466
482
502
531
559
569
589
613
637
667
702
747
800
838
878
917
959
989
989
989
988
988
987
987
986
986
986
986
987
988
989
950
863
791
723
639
539
419
316
256
217
217
204
218
240
264
282
303
307
306
318
327
340
351
364
374
375
377
376
376
375
374
375
380
386
395
391
378
379
382
384
384
384
380
377
377
383
384
371
385
388
378
378
381
384
394
392
384
385
390
398
400
393
394
402
405
409
414
422
415
410
411
417
410
409
417
419
419
418
422
427
426
425
424
429
434
436
432
429
434
434
435
437
439
442
442
443
444
443
442
447
447
453
448
452
456
459
460
459
465
462
455
464
470
468
467
468
464
465
466
474
480
483
482
482
483
488
490
488
484
484
484
490
488
489
493
498
501
502
501
494
504
509
505
501
506
513
518
520
523
522
523
521
520
538
544
520
527
528
522
525
537
543
547
569
566
548
540
538
542
545
550
557
559
557
548
545
549
550
546
546
551
551
551
547
541
540
540
541
530
523
523
522
521
528
529
521
512
511
513
512
502
500
499
493
484
481
484
483
480
476
475
474
469
463
461
455
455
451
447
440
440
433
434
432
427
422
414
414
412
414
412
405
399
403
399
393
388
384
381
388
388
378
385
389
386
381
379
382
381
380
374
369
372
372
369
371
367
361
364
366
365
361
364
366
366
365
363
368
369
373
373
370
371
386
378
374
386
385
373
370
370
369
383
400
390
387
387
390
393
391
390
390
388
391
392
389
394
395
395
402
406
406
402
404
407
407
403
406
410
412
412
411
409
409
410
415
418
419
416
422
426
427
421
410
411
417
420
419
421
424
424
421
423
425
427
429
430
431
434
437
435
432
428
428
430
431
431
427
423
425
428
429
425
429
435
441
442
439
437
437
437
434
431
434
437
442
444
441
438
437
437
435
436
440
443
444
444
445
445
443
436
442
448
451
446
448
452
452
450
449
455
461
447
439
440
449
451
440
445
449
449
453
457
459
459
460
460
462
458
461
467
470
470
467
462
461
461
465
480
473
458
458
466
477
466
465
473
478
475
473
476
477
478
476
471
474
483
492
497
506
502
494
499
501
500
503
505
507
504
498
498
496
495
493
484
478
473
469
467
463
463
462
463
461
460
456
452
452
450
442
433
428
429
436
437
432
430
435
438
434
432
432
434
436
437
436
432
434
437
436
436
432
432
432
433
431
428
425
427
431
432
432
428
427
430
431
427
424
427
428
429
426
428
429
430
428
421
422
430
432
429
425
425
425
425
422
413
415
431
431
427
427
428
431
431
430
428
424
429
430
428
430
429
430
433
431
424
422
423
425
425
422
417
417
413
415
434
442
447
466
482
501
524
548
574
597
625
654
692
736
782
825
879
924
975
989
989
988
988
987
987
987
986
985
986
985
985
986
987
988
989
980
890
799
713
623
509
373
270
210
188
197
215
234
253
277
290
296
301
330
332
326
332
344
357
366
366
363
356
349
349
356
366
372
379
384
367
366
363
360
361
367
369
365
364
367
372
374
373
371
371
373
374
376
376
376
380
379
380
383
387
392
397
409
401
399
387
384
392
394
392
397
405
406
406
408
412
412
411
414
414
416
420
422
424
427
423
428
432
434
432
435
437
438
438
435
432
435
437
444
443
443
449
452
455
458
451
457
460
458
455
459
465
471
472
471
469
470
474
477
474
472
475
479
480
479
485
489
496
495
493
494
498
501
502
503
500
498
502
519
519
523
512
513
511
509
511
516
525
530
530
526
526
529
531
533
540
543
547
547
542
539
539
547
554
553
551
554
554
552
552
551
552
560
560
557
550
547
547
547
551
560
539
540
539
540
542
537
531
531
528
527
522
519
524
525
520
512
507
502
499
493
488
486
491
489
485
481
477
477
472
464
456
450
452
450
445
439
433
432
432
428
421
415
412
407
409
424
414
395
395
391
392
386
384
390
389
383
383
384
386
384
383
379
370
370
372
369
369
371
374
370
368
366
367
368
371
371
369
369
369
370
371
367
361
365
369
372
369
366
368
371
373
369
368
374
379
378
377
378
382
383
383
384
381
381
385
384
387
385
387
394
396
395
390
383
390
400
405
406
407
402
399
400
412
409
408
410
412
412
413
415
417
415
413
413
415
416
418
418
418
418
419
421
421
419
421
424
426
429
431
434
444
433
423
424
431
434
435
433
431
433
435
438
437
444
443
450
439
424
424
426
428
437
442
436
428
429
435
440
444
443
440
439
436
434
435
441
448
450
451
449
450
459
457
438
432
435
438
444
448
450
451
455
453
449
446
448
451
454
452
449
448
459
465
463
464
467
462
459
456
456
460
462
463
463
467
471
471
468
468
464
465
468
474
480
478
473
472
473
479
484
478
490
484
480
477
478
482
493
492
489
494
501
507
508
503
499
502
504
504
497
494
494
496
496
496
489
486
485
484
481
475
473
475
479
462
455
453
451
448
447
447
436
429
433
435
432
429
432
438
440
433
433
430
432
435
432
430
430
428
430
435
444
435
431
431
431
432
436
438
431
424
422
423
428
435
432
428
427
427
429
429
430
426
428
430
423
421
422
425
427
429
429
436
424
416
418
421
422
428
430
431
433
431
427
428
430
429
434
434
430
428
430
426
426
429
436
438
434
429
426
423
422
418
415
412
410
417
429
425
434
460
482
497
524
544
558
584
608
637
675
718
757
797
848
906
959
989
989
988
987
987
987
986
985
985
985
985
985
986
987
988
988
979
882
792
715
610
460
460
338
263
213
189
195
220
244
266
287
295
297
302
311
323
337
342
349
355
354
354
355
359
362
362
360
364
369
370
370
370
367
369
369
369
366
352
351
356
363
363
363
367
381
377
367
369
376
372
380
384
382
380
383
385
388
393
401
390
388
396
398
398
401
404
409
408
408
411
421
428
422
406
403
411
417
422
418
418
422
426
426
423
425
436
441
441
443
444
447
447
448
446
449
451
450
453
454
457
458
460
457
457
461
462
467
467
465
468
473
476
476
475
475
477
478
477
476
476
483
483
492
495
497
494
499
504
506
503
503
502
507
515
527
511
509
515
521
529
533
530
524
526
529
540
535
538
541
545
545
543
542
541
537
540
545
550
551
554
557
559
552
554
558
558
557
559
554
548
549
554
558
563
560
553
552
551
551
548
542
542
538
537
538
535
528
524
523
525
520
517
517
515
514
525
516
487
477
481
484
480
476
474
473
469
465
464
461
453
445
445
443
439
435
426
417
417
420
422
419
415
410
406
405
402
400
395
390
389
389
385
390
391
390
389
380
381
384
382
374
368
366
367
367
366
367
371
377
376
374
370
368
367
364
370
370
369
371
372
376
378
381
371
372
373
371
371
379
385
376
376
375
381
386
390
391
389
386
393
406
398
387
386
392
396
400
400
399
399
404
403
402
399
400
407
410
404
401
408
413
413
412
414
413
413
416
412
410
413
423
426
424
424
423
425
429
429
425
422
427
436
425
421
429
436
424
421
421
422
431
433
431
430
435
438
436
436
434
435
439
442
440
436
432
435
438
439
443
448
449
449
447
444
443
443
448
448
444
443
443
443
445
449
456
452
449
441
445
455
445
448
452
453
456
460
458
458
459
453
449
449
450
452
453
455
457
459
458
461
464
464
469
471
470
463
456
459
470
474
477
474
469
474
475
481
465
461
467
477
476
471
475
478
481
484
484
488
490
490
486
482
486
491
487
484
484
490
495
499
497
499
504
519
514
494
499
504
500
499
499
495
495
494
491
496
485
471
471
468
464
464
463
465
464
458
450
444
443
443
441
437
434
432
437
447
435
431
433
442
430
430
437
445
446
440
434
438
442
444
439
439
433
429
430
430
430
430
430
431
435
436
433
429
433
443
442
440
437
434
434
434
429
425
427
430
431
431
432
430
432
434
432
428
428
431
433
431
431
430
428
428
429
430
432
436
448
431
431
435
440
443
440
437
435
433
430
422
416
413
410
410
409
404
408
416
426
439
456
475
501
535
542
559
585
616
651
686
723
763
813
869
927
975
989
989
988
987
987
986
985
985
985
984
984
984
984
985
986
987
988
989
923
824
718
620
500
371
282
231
209
201
218
242
264
285
310
321
309
308
316
326
342
355
356
357
361
357
354
353
350
355
364
367
363
361
363
365
362
359
362
368
366
362
358
362
369
357
358
367
371
371
372
374
374
372
375
381
387
389
386
383
387
390
388
388
390
398
401
405
406
409
406
404
406
404
407
413
415
418
421
421
424
426
427
429
427
431
435
433
432
432
434
437
441
439
438
437
440
444
451
454
452
447
452
477
464
451
466
471
455
455
464
470
470
470
472
472
473
475
478
479
482
489
494
501
495
485
491
496
494
497
499
502
504
507
510
513
517
521
521
521
520
523
529
531
530
527
529
535
533
533
534
536
541
547
553
555
557
562
559
556
553
557
565
570
575
574
559
558
556
556
553
552
554
559
561
559
556
556
559
556
551
548
549
554
551
548
543
540
542
540
536
535
533
533
528
518
507
499
502
507
507
499
494
493
489
493
479
473
473
469
463
464
480
454
432
441
438
427
428
427
423
417
414
420
420
415
411
401
395
395
391
387
387
389
401
395
382
381
380
388
390
385
378
376
375
372
371
365
365
369
366
369
369
370
374
372
365
366
367
367
370
375
377
378
374
374
374
371
369
372
376
378
375
373
375
380
384
380
380
383
391
387
385
384
386
391
398
397
393
397
399
394
396
405
396
394
399
403
405
406
411
413
410
412
416
420
421
418
416
419
422
422
420
412
409
413
416
417
422
422
427
440
432
425
430
431
438
445
433
430
433
431
435
444
449
433
429
432
435
433
437
442
445
440
437
439
444
445
446
446
441
443
445
444
446
452
454
452
452
446
441
444
448
452
453
452
451
451
452
447
447
449
453
457
456
455
458
459
457
453
455
451
454
457
454
454
457
459
459
457
457
462
483
473
464
466
470
469
467
466
470
485
479
466
463
467
466
469
471
471
472
471
474
485
493
483
479
483
490
493
502
491
484
485
485
482
486
488
491
497
496
495
499
499
505
512
514
509
509
509
509
506
504
509
513
512
504
501
497
499
493
478
470
472
488
481
471
465
461
463
458
451
447
441
443
445
441
443
442
444
445
442
436
436
440
440
440
436
438
441
445
442
441
443
445
444
439
439
439
441
442
442
437
439
440
443
446
440
436
436
435
434
430
431
435
440
439
436
433
437
441
446
445
442
444
439
429
427
429
431
436
442
448
436
439
449
435
430
433
433
436
437
439
441
444
446
440
439
438
434
432
429
426
422
422
414
413
417
417
425
437
461
482
505
519
536
566
595
621
641
669
714
754
796
845
904
963
989
989
988
988
987
986
986
985
985
985
985
984
985
986
987
988
989
967
867
764
663
541
541
416
319
260
224
217
230
256
281
302
316
320
321
326
332
338
345
354
362
364
359
360
358
360
360
363
361
363
365
364
364
363
360
358
358
362
361
364
363
367
367
367
368
367
373
370
365
366
367
371
375
381
385
386
386
386
386
388
395
400
404
403
403
406
404
400
399
401
405
411
415
423
419
411
413
418
414
412
421
439
442
444
441
430
429
428
427
430
437
438
438
442
447
441
447
461
452
449
451
455
458
456
456
463
468
473
475
472
473
476
478
481
487
483
478
480
484
486
481
485
485
493
494
493
496
499
506
507
505
506
509
513
516
518
514
516
520
527
532
532
534
536
535
538
539
542
546
549
550
549
555
561
565
566
564
562
563
566
567
567
575
582
587
583
580
580
581
581
579
573
570
571
577
577
578
577
568
562
557
551
551
553
557
557
552
551
551
550
546
540
536
537
539
537
523
516
513
513
512
505
497
500
497
484
474
469
465
462
460
457
457
449
445
440
437
430
425
423
420
416
411
411
411
411
407
398
391
390
394
394
389
386
387
386
386
385
379
374
372
372
370
372
374
377
374
370
373
376
373
366
365
364
368
373
373
367
366
368
378
380
377
394
388
377
373
371
369
381
387
380
380
381
379
381
375
371
383
393
391
388
389
404
392
387
393
399
399
402
406
409
408
404
401
404
405
402
400
403
409
412
412
414
414
416
418
430
427
411
413
418
424
427
426
427
426
423
422
425
427
429
430
428
424
423
430
434
433
435
447
442
448
446
436
436
439
435
438
434
433
435
439
440
440
443
447
444
441
440
443
447
448
446
441
442
447
453
458
458
453
451
451
451
454
470
464
445
463
468
444
447
457
461
460
459
460
464
470
467
464
463
464
467
476
479
478
478
477
478
472
469
469
472
474
474
473
474
480
495
492
476
475
478
481
485
483
488
487
485
486
492
498
493
500
506
503
502
505
511
512
513
511
508
511
508
493
490
499
503
501
492
489
486
486
482
474
474
475
474
469
465
459
456
454
450
449
454
459
461
453
445
445
441
439
441
438
432
428
437
444
442
443
450
438
436
445
456
443
443
448
442
437
440
444
444
439
437
441
446
452
440
440
424
421
428
434
435
434
433
439
446
441
431
430
434
439
448
436
433
438
437
435
433
432
437
440
440
437
439
442
442
440
436
438
441
447
443
433
432
434
436
438
439
435
432
428
425
420
423
431
432
441
463
472
480
497
516
531
550
576
601
601
626
658
695
727
765
818
869
918
968
990
989
988
988
987
987
986
986
986
986
986
987
988
989
963
879
806
728
660
585
585
497
389
307
255
232
236
251
265
282
301
319
324
329
333
337
346
353
359
373
384
388
390
387
384
383
385
388
391
396
399
394
383
377
377
379
383
387
389
391
391
388
390
389
390
392
394
392
391
394
399
397
398
401
402
404
409
413
412
411
411
415
418
422
421
419
425
427
428
432
434
436
440
442
444
441
440
441
440
439
442
448
449
448
446
452
457
455
454
453
453
454
456
459
461
458
458
463
468
468
465
465
471
480
477
478
479
484
486
481
477
481
489
495
495
496
499
507
512
510
509
505
509
509
513
512
514
519
524
523
521
524
530
535
536
540
543
541
538
539
541
549
556
555
552
557
560
571
573
573
573
572
576
577
575
577
573
572
572
576
577
580
583
588
593
592
590
589
594
596
592
590
589
580
576
579
579
576
573
574
574
568
570
579
572
560
552
551
551
550
546
537
526
521
524
528
525
524
521
520
514
506
500
496
495
487
475
480
467
454
453
446
439
437
439
435
430
425
426
427
407
394
391
392
396
393
392
387
383
385
384
380
375
374
378
376
373
368
368
372
372
373
367
363
360
364
364
362
360
362
374
375
373
365
359
363
369
373
369
366
360
360
372
367
365
370
370
369
374
375
375
378
379
376
371
372
379
381
384
386
388
389
393
388
392
415
410
381
377
380
386
400
408
391
384
391
395
395
398
403
406
409
410
405
406
412
418
426
428
411
405
411
415
415
414
415
420
423
423
421
419
420
424
423
421
425
431
434
432
429
429
429
434
438
436
432
430
438
441
437
431
435
443
452
460
437
432
436
440
443
451
455
466
470
459
455
457
461
463
466
466
463
460
457
456
458
464
471
477
477
476
473
466
465
468
465
470
476
480
479
483
486
483
473
479
482
480
480
476
473
474
478
481
488
488
487
489
490
495
496
497
496
499
500
501
503
508
497
496
494
490
490
495
495
478
472
470
473
472
470
470
467
458
454
458
462
458
447
444
448
446
445
446
443
439
437
434
430
429
432
435
438
437
437
443
449
449
433
430
433
433
433
431
438
443
440
439
438
436
436
442
431
434
433
433
435
437
434
438
442
434
429
424
424
428
431
433
434
430
425
423
425
431
430
431
428
425
427
427
435
441
439
436
437
437
435
437
433
434
433
433
436
431
426
427
432
431
425
423
425
425
424
424
425
429
433
446
460
472
488
505
524
540
559
579
604
633
666
705
743
790
842
890
931
975
989
989
988
988
988
988
987
987
987
987
987
988
989
977
908
842
789
722
661
602
507
405
324
271
235
227
245
271
291
296
303
312
318
322
327
336
352
364
373
377
384
389
394
395
396
385
375
380
382
381
377
377
380
381
379
379
383
387
387
385
384
390
393
392
394
394
395
405
405
393
389
392
403
409
407
396
398
404
408
413
414
416
416
420
429
421
407
412
422
426
428
428
427
430
432
432
433
436
441
445
447
445
447
446
440
443
445
441
445
448
452
451
448
451
454
459
463
466
469
470
471
472
472
474
476
479
478
475
475
477
479
479
478
479
487
491
489
487
489
496
497
498
501
503
507
506
510
511
512
513
514
522
518
513
526
526
529
519
522
529
534
538
538
539
544
549
550
546
543
551
555
555
555
557
561
563
565
565
565
569
571
571
569
571
572
572
574
570
569
572
574
573
571
567
564
560
557
559
556
554
556
559
560
555
554
553
554
551
539
524
521
519
521
520
513
507
504
502
496
494
492
490
483
476
473
473
468
471
468
441
429
431
430
429
433
434
415
412
412
407
405
401
398
393
393
393
391
390
385
374
367
370
374
378
379
373
367
367
368
368
367
368
369
368
367
376
369
370
372
370
366
366
365
365
361
361
364
378
375
365
361
362
370
377
381
378
372
372
376
379
386
385
395
388
377
376
380
382
385
387
389
390
394
397
394
399
397
392
399
399
395
398
400
403
405
410
409
408
407
414
404
394
400
409
417
419
421
425
429
424
420
419
423
423
415
415
414
417
421
425
426
430
434
434
431
428
432
439
438
437
437
432
429
427
428
435
441
428
434
441
438
438
436
440
438
438
435
431
434
440
443
444
440
445
450
448
450
452
454
453
452
451
448
448
455
457
460
462
461
466
473
475
478
468
465
476
469
463
464
469
473
473
469
469
473
472
468
468
469
464
467
470
472
481
482
476
480
480
485
490
477
472
474
476
481
481
493
493
488
487
496
511
503
482
485
497
496
501
494
493
497
501
497
488
482
482
479
476
472
476
485
493
472
460
460
460
460
457
455
453
446
447
446
439
433
430
435
439
441
445
437
431
432
432
429
440
432
427
429
434
430
434
441
440
440
430
424
427
429
424
425
427
428
429
432
433
438
441
439
439
432
422
432
423
417
427
435
435
429
424
422
425
427
425
419
419
417
424
433
437
431
429
429
433
434
428
429
433
432
433
431
436
437
436
432
427
424
421
421
419
416
412
416
424
427
427
429
439
462
479
501
519
526
546
572
590
613
646
690
724
758
810
862
911
958
989
989
989
988
987
987
986
985
985
985
986
986
987
987
988
989
941
843
752
662
561
436
334
272
235
221
226
249
279
298
309
321
327
322
336
346
352
362
365
368
368
365
355
356
358
361
357
355
360
362
361
356
354
360
368
366
365
363
366
366
362
361
362
366
368
374
377
371
373
386
386
385
381
378
376
378
386
389
390
397
394
404
409
398
405
415
401
398
401
405
405
409
409
409
416
420
420
413
413
428
426
421
424
428
433
441
437
433
430
435
444
446
444
438
440
446
448
449
448
443
448
452
455
452
461
466
470
470
459
458
458
462
463
468
479
468
465
472
476
480
489
493
484
481
489
486
491
496
496
497
494
504
508
514
510
522
525
517
513
513
513
516
523
530
533
535
538
544
543
534
544
557
546
541
546
546
548
552
561
575
561
551
553
557
556
558
562
566
577
563
555
553
566
581
580
556
551
551
552
553
543
542
541
540
540
535
531
531
531
527
523
523
525
521
512
504
499
498
497
505
505
489
481
481
479
473
466
469
460
457
445
443
442
436
428
424
417
411
407
403
397
399
398
405
399
388
385
387
383
385
385
383
389
388
377
376
372
365
368
377
375
390
360
341
351
356
358
359
363
364
367
360
359
358
359
362
364
365
367
369
372
374
371
369
368
369
372
370
375
385
384
382
386
386
384
382
382
383
388
388
385
381
386
386
388
393
392
391
394
400
400
403
404
418
409
401
411
413
399
403
406
401
405
405
407
408
411
410
410
416
429
424
412
410
416
421
422
416
417
424
424
435
429
424
423
426
426
430
429
429
431
436
437
433
431
433
437
436
434
430
431
435
435
442
441
448
434
429
432
434
440
446
447
441
438
442
448
449
444
443
455
464
449
449
447
446
450
450
449
448
451
455
459
462
463
465
471
472
468
467
467
466
468
465
468
481
480
467
472
470
467
471
471
467
462
466
474
485
483
479
475
472
473
477
480
482
482
495
491
480
480
478
483
488
491
490
495
505
512
523
513
508
510
509
506
506
505
503
500
501
494
484
486
488
486
479
473
474
479
478
476
472
470
465
463
457
451
444
440
439
436
433
439
444
443
437
437
436
441
439
433
429
435
439
439
439
436
439
441
444
444
443
441
442
442
433
428
435
426
428
432
432
441
436
428
432
435
433
435
436
428
421
420
423
427
440
429
420
428
434
434
437
429
422
424
425
427
429
430
427
426
427
430
430
432
433
432
431
436
439
440
436
433
447
437
415
409
406
402
398
395
391
391
397
411
433
456
471
489
517
541
566
590
619
655
700
746
791
841
892
946
989
989
988
988
987
986
986
985
984
984
984
984
984
984
984
985
986
987
989
949
841
730
613
480
372
295
243
211
212
238
272
296
313
323
327
326
330
341
352
352
365
367
351
345
344
344
343
343
344
344
348
351
352
346
344
345
347
346
347
344
347
347
347
343
344
349
359
360
358
359
361
367
369
374
375
365
367
371
373
376
378
382
384
385
393
389
387
388
391
396
407
416
404
396
406
422
411
404
407
407
409
414
417
421
424
430
431
429
428
425
427
431
437
439
435
430
434
443
446
449
447
450
453
452
449
452
458
464
465
465
469
470
473
476
476
474
476
483
484
493
482
480
483
487
489
488
489
494
498
497
500
507
511
514
515
510
507
510
515
519
523
523
527
536
536
539
547
555
550
549
549
550
550
551
552
558
568
577
570
564
569
572
578
588
580
582
573
575
575
575
575
575
573
576
581
584
583
580
578
576
573
571
567
561
556
559
570
560
552
552
552
535
529
532
534
531
521
516
515
515
513
509
506
507
508
494
485
475
471
472
467
463
456
452
448
443
438
431
427
424
421
415
413
404
395
400
400
397
397
399
399
397
393
393
393
379
375
370
373
374
375
373
371
371
371
372
371
367
367
373
375
372
368
366
367
368
370
366
368
368
380
375
377
376
368
372
375
377
377
377
379
382
380
378
380
383
388
388
391
399
403
395
392
383
387
392
389
391
395
395
391
396
403
407
409
415
421
414
404
406
408
412
413
411
412
411
414
416
418
416
417
425
427
426
421
419
423
424
424
424
426
431
435
433
433
431
434
434
434
435
436
440
439
438
436
436
442
443
442
438
436
437
439
440
440
439
445
434
429
429
427
434
444
448
450
448
450
454
456
457
453
450
450
452
453
453
449
450
455
461
459
459
462
458
452
450
467
466
476
476
466
457
456
467
468
463
463
463
468
471
472
470
470
474
475
475
473
473
473
471
473
479
469
468
477
486
488
480
480
479
481
487
486
487
483
488
499
492
486
489
491
492
496
497
506
515
515
517
516
512
511
507
508
511
510
505
499
498
494
494
489
489
491
480
475
475
473
476
476
476
478
477
469
460
455
451
447
441
439
441
443
444
442
444
451
452
444
439
434
434
438
438
438
438
440
441
440
438
440
439
453
448
438
437
440
445
443
444
452
434
431
432
436
432
432
437
440
438
436
435
436
436
436
436
436
438
439
441
438
436
436
433
433
437
439
445
447
447
450
436
434
441
439
432
436
444
444
443
439
439
438
441
442
438
432
425
425
423
419
413
413
427
447
448
448
466
483
503
527
548
578
604
625
656
696
742
789
834
888
888
945
988
989
989
988
988
987
986
986
986
985
985
985
986
987
988
989
989
911
820
733
649
558
442
347
283
241
230
245
268
288
314
330
332
333
333
341
353
365
368
374
380
387
373
369
369
370
375
379
385
385
379
370
367
371
373
374
372
371
371
369
366
366
375
379
378
381
394
401
393
390
390
383
377
380
389
397
397
408
410
403
402
405
409
415
414
408
406
415
415
421
413
412
411
415
415
414
421
429
434
441
437
434
437
436
443
446
448
448
449
450
456
454
452
451
455
460
460
462
466
468
469
470
471
472
465
464
465
472
473
473
478
480
483
485
486
483
481
487
494
499
500
501
507
509
510
509
511
517
517
519
518
516
511
514
518
523
526
534
532
533
541
544
546
550
551
554
554
551
551
553
548
550
552
557
564
571
573
573
573
581
590
591
580
584
582
584
587
588
593
593
573
575
588
592
578
579
586
587
584
577
577
576
571
571
572
569
565
562
558
555
550
548
543
537
528
519
517
518
515
513
513
514
514
497
492
493
486
473
464
459
454
454
454
445
437
434
433
429
429
425
440
420
397
394
394
394
398
397
391
385
383
384
385
379
368
368
379
388
381
381
367
367
366
363
365
365
364
364
364
358
355
357
362
367
369
368
378
379
363
360
360
360
366
374
374
378
379
377
376
377
378
377
383
394
381
371
375
381
383
381
382
388
386
381
377
379
383
390
396
400
413
418
402
399
399
404
408
400
402
404
403
408
412
414
411
409
406
410
410
414
414
411
411
413
415
416
419
431
437
423
419
418
422
430
436
430
427
429
433
434
432
433
431
429
429
430
433
434
434
437
436
434
432
434
438
452
441
432
436
439
438
438
437
443
437
435
442
448
437
436
443
444
442
446
453
457
458
456
451
452
456
464
460
448
445
449
453
454
457
460
464
463
464
469
472
472
465
464
466
466
466
468
472
476
474
472
473
468
468
467
470
470
472
473
477
481
481
481
481
481
485
484
475
477
479
485
491
490
489
493
496
500
502
506
512
516
510
502
502
501
503
503
502
493
493
498
498
494
501
491
478
479
479
477
472
471
476
476
476
469
463
459
460
452
438
439
442
441
440
441
442
440
435
431
431
439
443
442
440
440
447
446
445
447
435
437
441
439
439
441
454
448
437
439
444
445
445
436
436
425
420
425
433
437
437
436
436
437
436
437
433
432
433
436
442
434
422
425
429
432
435
440
442
439
434
433
438
440
440
441
439
433
435
439
440
440
439
443
446
441
435
433
432
430
425
420
421
419
420
426
436
448
465
483
500
512
539
563
580
599
627
667
704
744
791
835
875
918
964
990
989
988
988
988
987
986
986
986
986
986
987
988
989
961
883
809
730
667
667
596
492
377
303
263
239
237
261
272
292
324
330
328
332
339
344
349
358
365
373
380
380
380
382
383
381
378
379
382
382
384
383
378
373
368
365
367
373
375
378
385
383
377
375
375
378
384
386
386
396
395
390
389
391
393
396
397
399
397
400
408
415
413
411
410
412
415
417
420
421
425
425
425
423
426
429
431
429
426
426
432
435
437
439
438
444
447
450
450
450
445
448
451
453
450
449
454
458
463
462
460
464
463
464
474
463
461
467
471
473
480
486
489
488
483
482
489
491
490
490
496
500
489
490
497
499
497
499
502
506
510
505
508
516
518
521
531
519
517
524
525
528
530
531
530
531
535
538
540
545
550
555
559
559
557
558
562
564
582
571
562
564
567
576
577
570
570
573
574
576
573
572
575
576
571
567
564
566
565
565
563
558
558
562
561
554
553
549
542
534
527
527
525
527
525
521
515
513
510
505
496
488
484
479
473
471
469
464
461
461
457
450
442
440
438
434
426
419
417
418
411
407
405
409
412
394
384
386
389
385
384
384
376
373
376
377
374
366
359
361
366
366
365
366
367
369
366
363
359
364
371
369
358
355
361
363
366
369
371
375
377
377
370
369
370
369
367
372
377
377
383
387
378
376
396
394
376
374
375
378
384
392
393
389
386
388
403
387
383
386
395
399
402
400
400
401
403
401
402
402
404
412
413
412
408
408
415
417
412
407
407
409
414
415
417
421
424
427
425
422
421
424
424
425
433
425
425
431
434
430
429
430
431
428
426
427
433
440
441
440
436
435
436
437
435
435
438
437
436
437
438
435
438
439
441
445
450
453
447
447
442
446
448
446
448
447
447
445
442
439
440
443
448
450
447
446
448
452
451
448
446
448
452
454
455
450
456
452
448
448
458
463
463
465
448
439
444
461
461
456
460
467
470
476
469
459
455
455
460
469
471
469
477
502
477
447
448
454
465
471
471
472
471
471
474
477
478
478
481
479
480
480
478
481
485
486
486
487
490
494
495
500
502
505
506
504
499
498
499
499
500
502
498
494
495
490
489
486
484
480
473
468
472
481
483
483
474
464
459
460
455
451
443
443
442
442
438
434
434
434
443
439
434
435
435
440
440
441
441
444
447
447
447
451
450
440
439
442
435
437
443
450
447
448
441
429
429
428
428
433
440
440
436
435
433
433
432
432
432
433
438
438
433
445
445
432
432
435
440
433
439
439
436
432
433
437
437
435
435
435
449
444
433
431
436
440
430
429
432
429
428
426
422
414
405
397
398
406
413
424
444
467
490
505
526
545
568
589
613
613
639
677
726
771
819
868
922
980
988
989
988
987
987
987
986
985
985
985
985
985
985
986
987
989
974
868
766
668
573
457
353
283
246
226
223
240
266
294
319
332
332
330
337
349
358
372
364
353
349
346
346
350
352
351
347
353
367
357
349
349
347
346
349
354
352
344
344
354
369
363
358
358
358
360
361
360
362
368
374
376
372
370
374
377
378
378
379
387
392
392
395
395
394
413
408
398
391
393
402
411
412
407
406
412
414
411
409
410
409
410
412
416
421
430
436
441
439
440
432
428
433
433
433
440
444
443
443
442
441
444
450
452
450
452
457
462
461
460
462
466
468
466
463
468
479
480
471
467
468
468
471
474
478
482
489
500
490
485
487
492
498
499
495
506
499
494
498
507
508
512
516
521
521
521
525
530
537
529
526
526
526
526
531
535
541
546
542
543
545
541
543
551
565
555
545
548
547
546
548
550
552
556
557
566
566
546
542
543
539
533
535
539
536
533
536
532
530
526
522
519
519
519
515
505
503
504
503
503
500
495
490
479
467
462
464
467
467
462
454
454
449
444
443
443
424
418
416
414
410
409
406
406
403
397
391
390
393
391
385
379
383
390
390
379
371
367
372
373
370
370
366
362
363
370
368
368
369
371
371
371
370
381
387
374
373
376
379
368
367
371
375
376
379
381
384
380
378
381
385
386
385
385
382
383
386
384
383
383
391
401
393
387
387
392
415
427
397
390
395
399
400
403
405
406
406
406
404
409
410
410
412
412
409
413
417
417
415
416
419
423
429
426
427
418
418
418
418
422
424
427
429
429
426
424
424
425
425
427
430
430
431
432
431
433
439
443
443
438
435
439
441
438
438
435
438
442
442
442
443
446
448
445
436
435
439
447
450
447
442
441
442
443
442
445
447
449
448
442
446
453
439
437
439
442
447
451
452
449
448
448
448
454
451
445
443
445
447
444
445
445
456
472
446
439
444
451
455
455
460
450
446
454
446
455
459
445
438
440
441
444
451
455
455
453
451
451
456
460
458
458
457
456
462
462
459
457
456
457
459
460
464
469
472
472
470
473
474
469
465
466
467
471
474
476
474
472
470
468
467
468
471
477
483
485
487
489
490
489
491
492
493
494
495
494
493
500
504
501
503
506
507
506
518
517
500
499
511
526
519
519
503
506
510
507
502
496
492
489
487
488
482
476
479
494
495
474
479
472
460
455
450
444
447
447
448
445
441
444
446
446
444
440
439
441
444
444
445
444
443
441
442
443
444
447
447
446
444
448
450
438
432
434
437
442
444
444
448
441
433
432
435
437
439
444
443
442
444
439
433
433
433
432
434
441
444
444
441
440
441
445
446
444
433
432
436
439
438
437
439
439
440
437
435
436
438
434
432
430
426
423
419
412
399
395
398
406
413
421
437
458
479
501
525
548
576
596
621
651
692
692
745
801
847
889
940
986
989
988
988
988
986
986
985
985
984
984
984
984
984
985
986
987
989
940
825
720
620
509
385
303
257
236
231
248
275
306
327
335
336
340
348
352
351
352
353
355
347
340
339
336
339
343
345
344
348
360
353
342
337
337
339
342
341
339
340
346
346
350
353
353
353
352
348
349
353
360
364
367
368
363
365
373
377
376
377
377
383
382
382
382
388
392
397
399
396
396
394
394
398
399
397
400
405
407
405
405
410
418
421
421
419
418
420
423
432
432
424
429
436
440
446
445
439
439
440
439
440
445
447
446
446
447
448
453
462
471
461
453
455
457
460
462
466
471
475
470
469
470
478
478
490
488
480
480
488
480
479
482
488
495
498
497
501
508
511
508
508
508
509
508
510
517
520
524
526
529
529
531
535
535
539
539
540
542
547
548
545
542
544
548
552
554
558
562
548
548
554
554
556
561
556
551
552
555
561
562
561
552
550
538
537
540
540
535
532
532
529
526
524
524
520
516
513
509
516
510
497
492
492
490
486
477
472
479
467
452
450
450
449
449
449
444
435
427
423
426
426
417
408
408
408
405
405
404
402
408
390
380
380
379
382
384
381
377
377
380
378
375
372
372
368
368
371
369
371
366
369
372
373
374
382
375
373
367
362
370
378
374
373
377
366
364
369
373
376
379
382
384
383
377
374
377
387
398
403
401
388
387
390
389
388
391
395
404
394
393
395
397
397
399
404
411
410
410
412
406
410
411
409
409
410
411
413
414
415
417
417
419
419
417
420
425
429
428
425
426
426
425
427
425
424
421
425
430
433
432
433
436
437
437
437
438
441
448
445
438
436
435
437
438
444
441
427
424
429
437
437
441
444
445
450
441
436
445
445
441
440
439
453
457
441
438
442
446
447
448
445
444
447
449
447
444
441
445
450
452
454
455
456
455
451
447
450
457
457
456
453
452
460
460
464
450
447
449
463
455
450
450
455
460
460
454
450
452
455
457
458
462
451
439
447
451
451
454
460
460
453
452
454
454
458
457
454
449
447
447
451
453
460
462
460
454
449
452
459
463
465
455
456
459
464
468
462
459
460
459
459
463
460
462
465
465
465
467
468
479
482
464
468
478
481
479
479
462
461
469
473
474
469
469
473
481
482
478
480
487
495
493
494
494
497
501
500
497
498
501
505
509
514
513
513
511
511
511
511
517
519
507
500
499
509
515
514
513
511
498
497
497
497
497
494
491
490
491
486
484
486
487
496
484
478
480
467
459
449
443
439
442
444
444
437
438
442
443
441
436
439
446
448
446
446
455
457
443
442
444
452
450
441
437
435
437
442
444
442
444
450
452
446
437
431
435
440
440
434
428
431
435
435
435
442
441
442
443
443
438
434
435
440
439
436
438
438
441
442
437
437
439
442
442
442
440
441
440
440
438
437
439
441
441
438
429
421
415
409
404
398
396
405
414
428
451
473
492
513
534
555
577
602
636
671
717
769
814
862
915
970
989
989
988
987
986
986
985
985
984
984
984
984
985
985
986
987
988
989
891
770
664
554
431
339
271
232
219
234
262
287
309
327
327
334
334
335
346
356
360
364
364
359
364
351
336
334
348
350
342
347
349
337
341
348
349
338
338
341
348
353
351
349
349
349
354
359
358
357
354
356
372
364
355
357
369
372
373
373
376
382
385
385
382
381
384
387
389
386
390
397
399
398
395
400
408
410
405
408
415
420
430
428
413
411
415
417
418
416
423
426
428
428
426
435
443
443
444
447
449
448
447
444
444
449
453
454
455
453
449
449
457
461
460
460
467
470
474
470
466
466
470
474
476
478
482
485
486
487
486
487
486
484
484
484
491
501
511
512
508
510
513
518
528
515
518
518
528
524
516
522
532
534
538
539
541
549
552
550
544
541
546
554
563
552
550
558
562
561
558
556
564
570
570
570
568
566
562
562
561
563
565
565
563
558
551
556
562
552
550
539
535
534
534
532
528
527
531
526
518
510
505
503
500
496
488
482
482
481
479
473
464
462
460
459
452
441
440
437
434
430
430
433
433
432
414
400
394
397
395
392
390
387
385
382
382
379
381
381
383
382
379
379
382
384
385
377
368
365
366
365
364
365
365
364
361
360
363
371
374
387
376
367
364
365
367
371
373
374
375
378
378
374
375
380
384
394
387
382
385
384
383
389
389
399
398
390
386
399
414
403
396
396
397
395
402
407
402
404
412
410
409
409
406
410
412
414
413
410
412
415
415
416
416
420
425
426
423
419
420
424
425
424
423
428
442
444
428
424
422
426
432
430
429
427
427
429
433
435
438
445
446
440
433
433
433
438
436
433
432
438
438
440
440
441
454
447
440
440
442
448
461
454
438
437
442
446
453
451
440
442
445
448
448
452
450
446
446
445
446
446
451
448
447
448
451
453
456
457
451
450
446
445
445
450
452
453
453
450
448
448
449
448
448
448
448
454
456
457
456
457
450
458
460
449
452
457
452
450
446
448
448
455
459
458
456
455
458
458
459
455
455
453
448
447
448
452
454
456
454
454
452
456
459
459
449
448
455
458
458
455
453
453
452
453
456
466
478
452
448
446
451
456
456
460
462
456
458
461
463
467
465
459
462
461
463
463
460
462
465
462
460
462
468
474
474
471
473
479
483
483
477
475
475
478
475
475
477
476
477
477
477
475
478
484
488
488
483
487
501
512
508
496
496
511
514
505
507
507
508
509
511
508
504
508
513
513
509
509
512
514
518
515
512
513
506
498
496
499
501
498
499
507
508
497
492
492
487
486
486
480
477
467
467
459
456
453
448
447
449
453
450
446
442
444
448
449
449
447
453
459
463
454
445
442
451
451
443
445
445
443
441
441
441
445
450
457
453
444
441
443
446
446
444
438
436
436
435
442
441
441
442
440
438
434
438
444
445
443
439
441
443
449
454
435
434
438
438
434
434
434
435
438
441
443
452
451
439
435
431
423
421
421
415
406
401
400
399
403
413
431
452
476
476
500
520
532
561
589
616
643
675
719
765
814
867
926
986
989
988
988
988
987
986
985
984
984
984
985
984
985
986
987
987
988
989
934
832
726
630
508
388
298
245
216
212
227
249
281
304
315
322
326
332
347
356
346
353
359
353
352
351
348
349
348
346
348
355
359
360
358
355
355
358
357
357
355
355
354
356
358
360
359
357
360
365
367
371
375
375
375
380
382
382
388
389
389
384
384
385
389
396
395
390
395
408
411
397
396
405
409
411
412
413
418
420
419
424
429
424
425
421
420
420
424
433
436
437
436
440
444
443
436
433
435
445
447
445
445
448
452
456
459
457
456
461
465
464
461
461
464
467
467
469
470
477
488
484
470
472
488
499
486
478
483
488
491
488
489
493
499
500
498
500
504
508
513
521
516
516
519
519
519
519
522
525
527
530
526
523
526
535
542
542
541
544
549
552
551
550
549
547
547
549
547
549
555
559
560
559
559
568
574
574
572
567
556
557
559
557
554
552
549
548
548
545
543
539
538
540
543
527
523
526
524
519
516
516
511
500
494
496
498
488
486
481
475
474
470
459
451
448
448
447
445
441
436
431
429
423
418
415
412
412
411
403
399
402
401
398
378
373
376
376
381
380
378
379
383
391
385
364
365
374
377
381
373
369
378
379
362
360
363
365
369
369
367
373
372
374
370
370
371
371
373
374
372
370
372
375
380
379
380
387
389
396
387
380
381
384
389
391
396
389
384
389
394
394
408
402
398
396
398
402
405
406
405
409
412
414
416
414
411
413
413
408
403
400
405
411
414
415
413
423
427
419
418
424
426
432
435
431
428
428
430
434
435
435
433
430
429
431
431
431
434
435
434
432
436
437
442
432
429
434
442
448
439
445
452
440
437
438
439
439
442
449
442
440
440
445
445
447
448
447
446
448
452
452
455
452
451
451
449
452
453
447
449
450
448
450
448
450
454
454
451
458
453
449
447
448
450
451
451
448
446
451
458
460
451
453
459
460
459
453
453
453
460
452
442
447
451
453
455
455
455
456
463
457
453
447
448
452
457
456
452
450
451
451
451
448
446
447
450
455
456
455
456
458
454
447
446
450
458
458
460
458
455
467
465
456
452
453
453
448
452
461
451
445
448
450
448
448
449
454
457
454
452
455
461
468
460
452
457
465
469
454
449
455
459
457
457
457
459
462
464
460
462
467
466
463
464
462
461
463
465
466
468
474
476
474
472
476
480
480
482
481
477
474
475
478
477
474
472
480
489
481
478
477
483
486
489
499
506
494
496
501
504
506
510
514
521
512
502
502
510
514
514
509
506
505
510
513
513
514
512
514
513
508
504
503
501
496
495
499
497
500
497
496
496
494
492
490
484
481
479
479
474
465
461
459
453
448
445
453
446
446
444
441
440
446
450
451
448
446
450
453
459
463
449
438
441
445
443
443
443
445
447
448
443
440
444
452
462
449
439
439
439
438
435
444
438
435
439
442
439
434
437
443
441
443
445
444
443
443
444
440
444
447
440
437
438
440
444
442
439
436
434
434
438
437
437
439
435
428
427
426
410
405
402
397
404
416
428
447
470
483
501
526
546
570
593
624
657
691
738
789
839
890
940
987
989
988
988
987
987
986
985
985
984
985
985
984
985
985
986
987
988
989
939
831
726
633
515
396
305
253
224
219
236
256
276
298
328
334
323
323
338
347
355
362
365
351
342
342
340
344
348
350
354
359
357
353
352
353
352
350
348
357
373
357
349
350
355
359
362
361
361
368
369
378
372
356
361
375
381
378
377
379
389
394
390
382
381
386
390
394
398
398
401
405
408
408
409
414
416
416
410
409
415
423
426
425
424
424
422
424
438
431
429
434
433
430
430
434
443
447
446
442
446
450
453
451
442
438
444
452
460
466
464
461
460
466
468
468
469
476
479
479
474
473
475
479
483
482
483
485
488
489
485
486
492
496
499
502
503
508
511
503
499
502
510
520
522
520
523
522
519
522
537
542
533
541
537
540
542
544
545
542
538
541
550
558
561
561
565
566
564
561
560
558
561
566
564
564
562
562
566
569
569
563
563
562
562
561
556
553
552
554
559
554
537
530
524
525
524
524
526
521
513
506
506
511
507
507
500
493
490
492
490
484
479
473
478
483
459
452
455
443
442
438
430
423
421
420
414
405
404
402
402
402
397
396
396
393
386
378
374
378
385
388
390
390
386
382
379
374
370
370
370
368
370
370
376
379
382
377
364
366
369
372
371
378
381
381
375
375
373
368
366
369
376
390
380
373
377
380
378
378
385
388
385
378
381
388
393
389
388
387
391
392
392
393
397
397
400
397
399
401
406
415
411
403
403
407
411
401
398
400
408
414
419
427
419
409
416
423
415
410
411
419
425
424
423
427
429
430
437
420
417
425
428
427
428
430
432
437
437
434
434
436
435
434
431
436
442
441
440
437
436
438
442
443
456
456
445
440
440
439
439
440
446
456
458
446
441
441
443
446
447
452
457
457
455
453
451
450
449
448
446
445
450
454
452
452
453
453
457
459
458
455
455
455
455
451
450
449
447
448
451
449
448
450
454
459
459
463
481
461
447
448
453
453
454
453
452
453
452
450
455
452
451
457
456
450
447
450
457
462
458
455
452
454
457
457
456
455
457
456
451
448
454
458
455
455
453
449
460
472
459
453
451
454
457
458
457
457
461
460
461
459
459
459
462
469
471
471
464
466
476
490
481
476
474
474
466
466
467
472
474
476
473
467
468
474
476
477
482
486
491
495
497
498
496
496
500
499
498
497
502
505
507
506
509
516
515
513
514
516
518
516
509
504
501
506
513
516
513
507
504
501
506
505
491
488
492
493
493
489
490
488
480
472
468
468
464
459
458
455
448
445
443
440
443
447
451
454
448
450
455
457
449
442
441
445
445
445
446
444
443
449
451
450
446
446
444
444
446
444
444
442
445
447
448
447
446
447
445
446
443
442
444
444
443
442
444
448
451
453
439
430
435
439
439
440
438
439
440
438
435
433
435
438
439
439
441
448
448
442
438
437
440
435
428
422
419
413
417
408
402
408
420
434
452
452
470
490
512
535
555
583
613
642
674
715
761
808
856
917
960
989
989
988
987
987
987
986
985
985
985
985
985
985
986
986
987
987
989
976
875
777
681
575
448
343
272
235
217
229
264
278
289
304
320
326
325
328
340
348
356
367
366
363
355
354
351
345
350
359
368
369
366
359
363
364
364
370
359
356
360
365
360
358
358
360
363
365
370
373
377
377
381
382
383
383
383
382
382
388
390
392
394
392
397
399
400
399
400
404
412
414
411
415
417
422
434
424
418
420
426
427
431
431
434
434
435
434
433
431
435
438
444
444
447
448
449
449
449
448
450
455
456
458
459
469
476
463
461
472
458
461
465
467
469
472
473
476
481
481
482
477
475
480
485
495
496
495
494
495
499
503
505
502
503
505
510
512
513
514
517
521
525
536
549
549
525
517
526
533
539
542
548
550
552
548
550
556
560
555
553
559
561
560
561
562
565
569
569
568
565
570
576
576
572
572
574
576
572
571
566
566
565
565
564
566
565
561
558
555
550
546
556
562
546
536
536
534
529
523
515
505
503
506
503
498
493
492
488
484
477
470
471
473
467
456
451
448
446
443
437
430
424
421
416
412
408
405
402
400
395
390
390
388
386
386
385
387
383
380
379
374
372
373
377
379
378
377
374
382
371
356
358
368
372
361
359
364
367
371
372
369
366
365
369
369
367
372
372
374
378
377
374
375
380
384
385
391
381
376
380
381
383
385
385
384
382
384
383
386
391
391
389
389
389
392
393
393
397
402
405
406
407
413
402
399
404
408
406
407
416
417
411
417
425
420
416
417
419
424
424
417
413
417
425
425
429
424
423
425
428
432
433
431
430
433
437
435
431
434
440
441
438
435
436
442
445
442
441
442
441
439
439
436
434
434
440
445
446
444
446
447
447
450
450
450
453
453
453
454
452
452
454
453
451
449
451
453
454
451
451
453
457
458
453
461
450
458
474
455
442
447
451
453
454
449
451
456
454
453
456
459
462
459
454
448
452
460
461
460
462
452
449
450
454
454
457
461
466
472
471
466
456
458
460
456
451
453
456
454
456
458
458
458
461
464
464
468
471
471
468
470
468
465
463
463
464
465
469
473
472
473
471
474
478
480
479
472
472
476
475
473
470
475
481
488
485
482
484
485
492
496
500
500
499
499
500
500
507
509
509
511
512
511
507
507
506
505
509
511
512
511
510
508
510
510
508
502
502
502
500
493
492
493
492
492
490
489
486
486
483
478
475
465
456
450
450
446
443
444
448
449
446
448
451
468
477
443
430
436
441
440
440
435
435
435
441
446
447
447
453
453
450
445
447
448
448
443
436
433
435
440
444
444
443
444
442
453
444
437
452
449
441
436
437
436
438
438
438
440
439
437
437
435
434
434
443
452
437
429
432
435
441
442
445
447
445
441
435
435
436
429
431
426
417
417
412
408
407
412
418
430
449
472
490
502
522
544
573
593
616
648
682
726
770
810
857
912
968
989
989
988
988
987
987
987
986
985
985
985
985
985
985
985
987
988
989
940
840
735
644
520
403
316
260
228
218
232
254
280
300
310
319
323
322
331
339
343
355
363
362
358
357
355
358
359
363
372
375
376
364
356
356
355
361
375
361
354
360
363
362
363
379
387
372
372
371
372
375
377
375
374
378
382
387
398
408
390
384
388
395
396
396
403
411
411
410
411
413
414
415
414
414
415
421
421
424
427
426
425
426
432
434
435
440
445
444
440
441
445
448
447
446
445
449
450
455
458
455
457
459
468
474
462
460
469
471
467
466
469
483
476
470
472
476
480
483
487
489
489
491
493
493
494
499
500
500
497
499
504
512
514
511
514
515
515
511
508
507
508
520
524
525
524
526
533
540
539
539
546
550
550
553
551
550
557
560
563
562
556
558
560
565
566
565
565
567
570
576
576
577
587
579
577
572
566
564
564
564
563
565
561
560
560
560
559
559
556
552
551
550
547
544
539
531
528
528
525
521
514
511
508
505
508
491
483
486
483
478
474
471
469
466
459
460
450
436
434
444
456
419
397
400
404
402
402
398
400
400
396
395
394
395
393
390
384
378
379
380
377
376
374
380
371
364
367
372
377
379
376
372
370
371
370
365
365
363
365
368
369
367
366
367
370
371
370
372
373
377
377
376
374
377
385
386
386
391
385
382
381
381
383
383
384
385
385
385
388
399
405
404
399
394
393
389
390
390
391
397
400
404
409
411
414
414
412
409
409
414
416
411
410
412
411
415
415
423
418
421
417
413
417
423
426
429
431
429
428
426
430
430
435
442
429
433
436
433
429
431
434
432
432
434
435
438
438
440
440
438
439
444
446
448
445
444
447
446
446
443
441
441
443
444
447
447
446
447
457
473
454
443
446
448
448
444
445
448
451
448
450
455
456
455
454
456
456
452
450
448
450
456
457
453
450
449
452
453
453
452
455
452
454
454
451
448
448
451
451
450
451
457
463
469
471
464
464
473
463
458
456
459
462
463
460
459
460
461
467
467
465
467
472
472
475
486
486
476
473
474
471
468
472
472
474
478
481
481
483
490
491
486
486
487
491
491
491
492
499
501
500
501
503
507
508
508
505
511
511
501
513
517
508
511
514
511
507
502
503
498
494
488
485
487
487
485
484
482
482
482
478
472
468
468
476
461
461
444
438
444
447
449
448
449
445
441
438
441
444
444
442
442
444
445
447
446
445
443
442
443
444
442
441
443
445
444
444
444
443
447
456
456
440
434
436
440
438
436
429
430
437
443
439
433
430
433
437
438
432
428
431
438
438
434
436
442
448
450
436
436
442
443
443
439
439
441
445
447
447
441
438
440
439
435
431
429
429
423
415
412
416
419
424
435
455
478
478
492
510
531
551
576
604
626
651
690
749
794
835
884
938
989
989
988
988
988
987
986
986
985
985
985
985
985
985
986
986
987
988
989
901
803
708
611
480
362
290
250
224
225
238
270
291
298
311
311
313
324
337
343
348
358
363
366
365
360
356
354
355
365
369
375
378
376
370
361
358
360
361
357
361
360
366
367
365
366
371
373
374
375
371
374
381
388
386
385
385
387
389
389
385
391
394
403
403
400
397
400
404
402
405
407
405
407
410
413
417
422
428
430
428
427
427
437
446
434
434
429
432
437
438
438
437
441
446
447
446
444
451
469
463
447
446
448
457
462
463
460
459
463
465
467
465
466
471
474
474
472
469
470
473
476
479
482
496
498
488
484
492
498
503
504
505
508
510
512
512
514
522
533
534
518
516
520
530
532
532
531
530
532
535
539
540
539
541
543
548
561
566
558
561
559
562
567
567
566
564
562
563
569
572
572
573
573
573
574
574
574
571
569
571
575
570
563
563
563
562
560
556
548
547
550
551
546
540
538
537
531
522
518
518
521
515
507
502
500
500
495
494
485
473
477
465
458
456
455
451
444
435
435
435
434
432
423
419
412
405
400
393
392
395
397
399
399
396
391
391
387
381
376
374
376
383
384
377
374
371
375
376
374
369
366
367
372
374
363
361
361
362
363
359
363
371
375
372
371
371
371
376
378
376
386
381
376
377
386
372
364
367
373
377
381
386
391
390
384
382
385
394
396
392
388
392
399
400
400
396
398
401
400
401
405
408
411
410
406
408
411
419
424
408
405
409
413
418
422
421
421
422
423
422
418
418
425
430
429
429
432
436
445
431
421
422
441
432
428
435
429
427
431
432
436
445
437
437
445
448
454
447
445
449
451
447
444
445
444
444
448
441
441
444
444
443
446
453
451
453
451
450
446
448
448
446
450
450
451
453
454
454
452
459
464
467
464
451
452
455
452
450
452
455
457
455
453
455
458
458
461
459
460
464
464
459
454
456
458
458
459
462
467
470
470
465
465
468
471
471
472
475
473
470
465
464
468
472
475
481
477
471
472
473
476
478
477
479
483
489
489
489
487
490
492
499
506
487
483
483
492
498
496
495
500
504
507
508
510
515
519
512
499
501
504
501
500
499
498
502
490
485
483
482
496
486
477
472
472
477
478
472
465
456
451
446
442
437
435
442
448
448
444
445
443
444
444
440
437
442
443
442
448
446
449
444
444
442
438
438
437
440
441
439
441
442
450
447
433
428
434
443
446
442
436
435
442
444
444
445
444
445
443
437
440
439
439
441
439
439
436
433
433
433
433
435
436
442
446
432
430
438
443
440
436
446
442
434
438
441
439
441
444
442
436
431
427
424
420
415
412
413
417
422
434
455
478
502
521
538
555
584
611
638
668
706
755
809
857
890
928
983
989
988
988
987
986
986
985
985
985
985
985
985
985
986
987
988
989
969
869
773
680
582
453
341
278
241
224
233
250
275
299
324
327
317
314
320
331
331
344
353
361
363
367
364
362
361
360
363
370
370
369
367
363
361
366
367
364
365
365
363
361
365
368
369
369
373
377
380
380
379
380
383
385
383
384
388
393
403
392
387
390
397
401
403
402
401
405
414
420
422
417
421
427
425
424
421
416
416
417
422
423
428
438
438
435
434
440
447
451
448
444
441
446
449
449
451
451
453
458
459
457
456
458
462
462
460
465
465
472
478
479
479
474
474
477
483
481
477
477
479
483
486
485
491
496
496
494
496
502
517
512
503
503
506
519
520
510
509
513
521
523
527
535
537
543
532
526
530
539
545
547
543
543
549
551
546
553
555
559
567
570
570
569
572
576
575
571
571
568
567
569
573
572
570
573
575
572
573
569
567
578
580
552
553
557
556
554
550
545
541
539
538
534
530
529
527
526
526
522
518
517
517
511
504
493
489
493
495
494
482
475
468
463
459
454
448
443
437
429
423
420
421
418
415
410
408
407
403
401
397
395
395
395
389
386
381
378
380
385
381
377
376
375
373
369
369
370
371
368
372
377
378
385
384
372
368
365
365
363
361
364
368
372
374
373
371
375
375
377
376
378
378
380
379
379
378
380
384
386
385
384
386
392
389
388
391
394
394
406
421
396
390
394
389
394
396
391
395
400
405
406
406
413
410
404
403
405
408
410
414
421
409
412
421
423
423
424
425
422
420
424
429
433
433
429
425
424
426
432
432
429
425
428
436
440
440
438
438
436
438
438
440
443
439
439
432
431
431
441
447
447
445
446
454
460
451
445
442
440
441
440
440
447
451
449
448
451
458
449
449
451
452
454
455
459
462
459
459
453
456
460
460
459
461
459
458
456
454
456
458
456
460
462
462
466
471
468
465
472
481
474
475
471
468
467
468
468
466
470
477
482
480
473
472
476
481
482
486
492
483
481
483
487
486
488
489
490
487
491
496
507
521
491
483
496
506
509
509
506
506
509
509
510
510
508
512
509
506
502
499
494
493
492
489
482
482
483
484
483
483
475
469
466
467
463
458
453
453
446
439
443
447
449
448
446
442
437
437
435
435
436
440
441
445
447
443
442
445
446
451
457
451
445
443
442
440
440
439
436
433
436
439
439
439
438
437
440
441
441
441
440
440
441
442
440
438
440
440
439
434
437
445
444
444
442
438
439
439
443
444
437
432
436
439
439
433
435
438
447
448
438
435
438
442
440
436
435
434
431
426
424
421
425
432
439
440
450
450
476
508
523
527
550
580
609
637
658
685
732
785
835
871
920
965
989
989
988
988
987
987
986
986
985
985
985
985
986
987
988
988
975
883
793
706
613
491
370
292
247
227
233
248
273
302
324
321
329
323
320
326
337
348
359
368
372
368
364
364
363
365
367
370
371
373
373
370
369
366
366
366
366
367
367
365
370
372
372
372
375
376
381
385
380
377
383
389
401
401
393
388
392
395
393
391
396
404
409
408
403
402
404
413
416
411
414
419
424
423
425
424
423
423
427
428
430
435
440
438
436
438
439
444
445
444
443
444
447
450
450
445
448
454
459
463
470
463
476
467
461
467
472
473
473
470
475
478
483
483
485
484
484
479
487
492
496
500
497
497
500
501
514
519
505
504
509
511
510
511
512
517
517
519
523
525
526
529
531
531
535
535
537
541
546
551
555
553
554
553
557
557
560
561
563
566
567
567
572
577
579
576
578
578
581
589
593
577
573
574
576
576
572
570
571
573
573
567
565
566
565
562
557
556
554
550
544
535
531
529
526
522
516
514
516
521
521
511
506
506
503
498
488
483
479
472
464
458
456
459
459
450
443
436
432
429
426
419
412
408
409
409
408
405
404
402
401
397
389
389
387
387
384
379
379
374
366
368
370
369
368
382
380
371
368
369
371
372
368
359
361
364
366
368
364
363
367
375
373
378
380
372
375
372
369
371
380
385
383
380
381
388
386
379
396
395
395
382
385
386
389
395
399
405
403
389
395
397
395
395
391
388
390
396
402
404
403
407
409
408
408
412
418
421
420
415
418
422
421
419
420
424
425
424
420
425
427
427
429
429
426
421
416
424
433
444
443
436
434
437
435
432
438
443
446
443
440
440
438
440
445
448
450
455
455
453
445
442
445
449
448
445
449
450
451
451
449
450
457
466
456
453
456
458
458
456
462
465
465
463
463
463
463
468
474
479
478
474
475
475
477
472
466
466
467
471
473
472
473
474
473
484
485
464
472
479
480
481
484
487
492
494
489
484
489
494
496
497
492
492
496
503
499
493
494
500
506
508
508
515
512
501
502
499
502
514
508
492
485
485
487
481
476
473
474
474
474
471
468
466
464
463
454
449
448
451
452
449
446
444
444
443
441
438
440
444
445
442
436
434
435
436
436
438
440
444
447
442
433
433
436
443
449
444
436
436
438
443
443
445
449
447
435
433
435
440
443
448
447
440
441
438
433
428
429
433
437
438
438
438
441
441
444
445
439
432
432
442
442
437
434
432
436
441
439
449
446
443
443
444
444
440
438
439
440
435
435
436
431
425
425
426
434
444
455
468
483
498
513
531
554
575
604
629
659
696
735
773
818
870
915
963
989
989
988
988
988
987
986
986
986
986
986
986
986
987
988
989
942
874
794
718
639
550
438
337
270
231
222
231
251
274
295
316
325
314
316
323
331
331
344
351
360
368
378
381
380
376
377
378
383
391
393
399
407
400
373
366
375
382
379
374
372
377
385
388
385
388
397
405
388
384
385
387
394
398
401
399
401
412
416
414
415
417
423
430
431
413
408
412
420
421
423
430
433
437
438
432
435
435
440
445
447
445
446
449
449
447
447
451
456
461
460
453
457
461
463
462
464
466
465
464
464
474
479
477
478
478
478
478
484
485
485
485
485
485
489
488
489
492
498
502
498
497
506
508
517
506
502
505
506
507
512
517
520
530
538
528
527
527
532
539
544
542
543
547
550
551
548
550
556
560
560
560
561
565
571
582
575
568
575
578
581
579
582
582
593
587
581
581
584
588
591
593
602
590
577
579
584
581
581
582
585
583
575
574
569
567
568
562
560
560
559
554
557
553
540
540
541
541
531
523
519
520
517
509
501
497
494
492
486
477
476
475
456
445
439
439
442
437
428
419
413
416
419
415
410
405
405
403
398
392
387
390
388
385
378
379
376
370
366
361
361
365
370
367
362
362
367
368
365
362
365
368
367
380
368
361
363
363
365
361
358
367
374
369
361
364
367
373
377
374
373
374
376
374
378
384
391
384
384
375
376
379
384
388
386
389
389
389
390
391
390
391
396
401
403
405
404
404
397
394
396
398
401
407
411
408
407
411
413
415
416
416
422
428
417
406
406
409
407
410
413
418
425
430
431
426
425
424
430
434
431
430
430
430
432
435
434
436
439
440
439
439
441
445
447
442
442
442
446
448
449
449
450
446
445
447
450
448
449
451
453
455
461
465
469
478
475
470
466
465
464
467
470
475
479
475
472
472
467
468
474
481
484
478
477
483
486
480
480
483
484
482
476
473
475
485
490
480
476
482
486
487
490
491
495
501
505
501
499
503
511
498
492
489
487
492
504
500
499
491
478
467
466
465
461
465
464
459
458
458
460
456
448
444
444
444
438
438
436
436
437
438
435
432
431
435
438
443
438
436
436
438
437
435
434
436
435
438
440
434
433
436
434
431
431
436
438
438
439
435
436
435
434
433
438
447
436
430
428
427
426
428
424
427
431
430
430
432
438
440
437
438
440
440
435
429
426
424
421
427
431
435
445
441
431
431
440
444
442
433
433
437
445
447
435
430
429
430
431
430
430
432
439
448
461
479
501
501
505
519
540
566
589
610
636
667
700
738
778
825
877
924
966
989
989
989
988
988
987
987
986
986
986
987
988
989
984
984
908
839
777
708
645
587
496
373
285
235
219
227
239
251
268
287
304
312
319
323
327
339
349
357
367
379
382
383
380
382
386
386
384
382
385
388
391
391
386
383
386
391
390
389
387
387
386
391
394
391
393
393
395
396
397
404
405
403
402
402
405
409
413
409
409
413
415
417
418
418
418
422
427
427
425
424
429
436
438
433
433
436
438
439
440
438
439
438
442
442
447
454
460
453
451
452
466
481
458
447
445
451
460
461
463
465
465
468
470
477
477
477
481
488
489
488
484
485
488
491
492
488
488
491
490
493
495
500
502
500
494
496
500
506
508
508
514
517
521
521
522
526
528
528
530
531
533
539
541
541
542
542
545
550
554
555
555
558
561
557
554
550
549
555
558
568
568
562
564
567
567
565
563
567
569
570
570
567
571
571
573
569
560
557
560
564
564
563
557
553
552
550
547
541
539
538
536
532
531
530
529
528
525
524
506
493
503
493
483
483
484
480
487
471
455
455
452
448
444
439
437
430
425
421
419
414
408
405
401
401
401
400
397
394
395
392
390
384
377
377
373
375
377
376
375
377
377
372
370
367
370
371
367
364
364
368
370
367
364
367
372
373
372
371
370
372
373
374
374
374
368
369
375
384
375
361
369
374
372
372
377
382
385
383
379
377
379
389
392
393
396
392
390
390
392
394
395
399
401
400
399
399
403
404
402
404
409
412
409
409
409
408
415
421
421
415
415
415
417
418
420
424
428
428
423
420
