432
430
428
426
416
410
408
406
401
397
397
402
396
391
386
387
388
385
380
379
379
381
381
378
375
377
378
378
374
374
374
379
379
377
375
374
377
378
376
369
366
370
377
380
378
376
379
384
388
382
379
384
391
386
384
385
387
390
394
397
399
400
401
403
401
399
400
403
406
403
403
409
415
412
409
415
415
409
410
410
410
414
420
426
426
423
418
419
421
420
420
421
427
432
429
428
429
429
432
432
426
426
430
435
438
437
434
437
439
438
431
428
435
445
449
447
444
445
446
445
445
444
444
447
451
448
445
448
448
449
453
454
454
457
460
468
464
460
464
469
466
461
461
466
469
473
475
473
474
474
474
474
476
477
479
480
479
478
484
487
484
480
475
476
479
478
478
478
484
492
495
491
493
494
495
496
495
496
501
499
499
498
492
491
497
502
502
499
503
506
508
506
508
507
508
507
502
500
500
503
504
504
492
485
485
486
484
478
477
478
478
477
472
467
456
458
457
449
448
450
450
450
448
444
440
442
446
451
451
450
451
451
451
449
449
452
452
449
444
445
448
448
447
449
444
447
447
448
445
443
445
445
444
438
447
448
445
439
443
448
449
447
445
450
441
442
441
437
436
437
437
445
449
447
437
445
450
450
447
441
444
451
453
451
452
446
449
451
450
450
448
450
450
451
441
449
454
453
451
448
448
447
444
445
446
448
442
447
453
460
473
485
501
514
526
539
565
593
619
643
670
706
742
783
829
874
917
963
989
989
989
988
988
988
987
985
986
986
987
988
989
989
932
865
804
734
671
600
521
418
330
280
258
259
269
281
298
312
326
332
332
336
339
347
352
355
361
369
385
398
402
401
397
400
399
398
398
399
404
407
400
397
395
396
395
393
391
395
397
397
397
397
398
405
408
410
410
409
409
414
417
414
413
416
421
425
423
420
423
425
427
428
427
429
433
434
431
431
437
444
448
447
449
450
455
458
456
452
455
460
457
456
456
455
461
464
462
460
464
469
475
473
475
472
476
478
478
476
478
483
483
485
489
492
491
494
495
492
491
494
501
502
499
499
500
505
511
509
504
508
515
518
520
522
524
528
530
529
527
527
527
535
537
532
531
530
535
537
538
536
541
548
549
552
555
560
563
568
569
571
574
577
580
577
578
585
590
589
587
581
581
582
583
584
579
572
574
578
581
584
582
584
581
577
570
567
566
566
569
569
568
565
564
561
553
554
554
547
546
542
542
534
529
526
518
515
510
506
498
502
515
522
522
527
535
547
561
566
577
556
496
443
420
406
391
386
388
398
400
400
400
389
385
385
386
385
384
394
410
411
393
379
376
383
381
374
374
375
373
368
368
369
373
375
374
376
379
384
389
385
380
383
388
402
406
408
409
400
389
376
364
371
388
389
374
353
337
335
342
359
365
379
388
399
410
419
423
420
415
413
413
424
419
420
423
420
413
411
408
408
413
413
413
410
397
399
410
403
395
412
419
414
424
424
402
394
402
409
439
456
456
459
446
450
457
469
475
467
465
461
470
485
488
481
475
461
452
454
456
472
487
503
516
510
492
483
459
457
461
455
473
488
490
486
472
465
467
463
450
450
450
439
422
405
420
459
490
497
507
509
487
476
465
457
490
511
519
507
504
512
512
526
533
527
516
502
493
480
464
460
470
475
472
459
447
450
475
506
523
508
485
478
471
473
478
499
523
524
513
518
518
526
511
499
510
544
559
552
521
495
490
491
500
511
512
501
485
470
449
435
429
428
419
412
426
455
492
543
548
515
498
483
458
450
455
486
514
541
548
524
501
464
430
411
414
412
408
398
407
433
470
489
482
449
419
413
432
457
466
475
475
452
430
438
445
442
431
433
429
421
411
394
394
410
433
457
482
507
515
505
481
456
443
431
444
451
467
495
529
533
533
491
458
463
469
480
477
461
436
410
382
368
367
392
397
382
362
359
379
401
426
442
461
484
457
429
427
437
448
442
432
428
433
423
392
365
368
394
426
472
508
532
553
564
578
601
618
670
758
838
876
880
908
949
990
989
989
988
988
988
988
988
987
986
986
986
985
986
986
987
988
988
982
886
798
713
615
505
384
313
263
229
241
261
271
275
259
254
257
252
252
269
294
319
347
392
415
423
414
387
376
370
349
332
339
350
326
278
247
241
260
293
341
381
405
443
476
452
421
382
358
359
373
376
369
364
359
354
347
359
391
421
431
422
404
400
408
418
425
404
394
397
396
410
408
392
387
388
388
414
414
420
412
417
431
435
436
452
455
438
413
402
380
361
371
403
457
494
506
502
472
445
439
442
469
485
481
485
478
478
478
482
475
481
475
466
464
481
493
496
507
499
499
501
496
503
507
514
534
553
530
499
476
468
479
489
499
509
521
534
564
589
598
593
560
522
515
532
534
527
510
504
522
532
540
530
530
548
575
598
593
571
568
573
564
560
564
564
560
552
552
550
546
548
564
571
581
578
583
588
581
574
566
553
542
552
548
537
545
568
585
601
597
566
542
509
469
490
525
543
543
546
524
511
539
577
589
586
588
553
515
472
449
440
445
444
442
416
419
460
466
448
428
432
443
473
486
470
449
432
407
378
372
407
419
398
391
376
356
355
378
395
407
406
385
379
372
358
337
344
372
390
384
369
372
391
390
392
386
383
383
366
349
338
336
354
367
359
346
352
360
379
396
418
435
426
397
387
375
361
347
362
369
375
377
370
376
371
374
377
377
380
383
376
372
391
406
405
367
333
342
370
414
430
444
431
412
400
418
425
419
423
403
389
406
427
432
424
426
422
431
461
488
483
467
456
452
450
440
428
425
448
468
461
450
430
439
466
454
422
389
380
375
387
390
391
411
426
434
446
446
478
505
508
485
469
479
467
455
470
456
440
455
464
450
429
429
432
435
460
504
546
548
496
470
479
488
498
510
530
530
573
585
563
519
469
463
464
481
489
481
479
459
469
483
483
489
509
532
561
567
567
577
588
605
589
528
476
469
465
459
449
431
424
410
400
427
462
474
483
479
486
488
496
496
474
457
424
422
440
456
485
516
547
524
472
432
434
441
436
436
440
455
453
451
442
435
451
489
498
496
536
533
520
484
460
461
449
433
423
415
393
383
395
392
393
371
351
359
385
385
383
376
392
399
393
400
410
409
398
386
415
467
483
484
493
494
480
451
429
432
450
463
430
383
355
358
376
387
391
404
434
453
447
444
469
483
479
470
428
417
448
440
412
403
421
435
425
444
469
463
457
428
402
398
399
397
397
402
389
389
375
393
444
510
550
602
635
648
676
723
799
862
895
952
989
989
988
988
987
986
985
984
984
983
983
982
983
983
985
985
986
987
988
987
870
789
702
578
459
368
318
301
294
300
333
345
339
324
314
286
302
354
380
368
371
374
381
383
373
360
361
333
302
292
297
294
291
286
295
325
345
342
358
392
419
437
418
365
310
259
237
265
313
332
329
342
343
337
336
336
363
408
430
419
403
415
430
410
401
394
382
373
376
377
389
409
450
484
499
489
425
372
357
357
350
351
362
388
412
412
428
464
479
454
433
438
433
413
397
397
398
417
434
460
472
482
493
520
529
529
515
478
433
407
386
396
418
441
461
466
448
427
445
482
502
517
530
540
545
541
546
571
561
552
552
533
498
453
405
408
430
464
482
476
501
530
554
564
564
564
546
515
543
544
549
538
526
498
499
529
547
556
556
577
598
615
603
582
573
562
552
554
565
566
620
661
663
671
667
667
627
601
550
471
445
471
521
558
560
547
518
478
448
463
473
494
507
546
556
523
497
491
477
447
434
451
460
475
498
514
516
500
495
496
491
459
454
450
440
430
428
428
428
423
383
363
372
384
369
372
377
377
368
369
393
394
374
357
366
366
376
366
359
351
331
329
337
347
351
353
371
367
338
327
345
359
367
367
350
356
409
421
421
413
414
400
357
343
356
356
392
419
458
481
480
474
496
508
482
482
486
459
474
483
449
451
451
419
334
249
235
256
290
290
275
266
303
362
391
393
396
401
409
394
379
364
354
362
388
375
349
351
364
385
443
501
517
488
456
431
395
370
359
352
368
400
428
418
407
407
402
412
422
435
436
435
428
423
418
405
396
400
420
431
450
473
494
484
453
434
459
471
476
474
498
513
528
524
475
475
427
419
443
478
485
456
438
429
434
428
438
494
517
513
503
466
449
467
504
517
532
524
510
493
499
529
538
515
486
467
464
463
493
506
516
518
528
535
526
500
492
489
484
471
477
508
515
560
598
575
535
507
515
533
549
533
494
478
471
471
451
435
426
425
428
427
413
410
436
470
483
477
466
466
445
445
456
462
464
451
444
437
446
451
451
468
452
440
463
463
464
461
449
448
458
465
473
475
475
492
489
459
428
432
454
440
439
436
416
410
405
402
420
453
491
519
537
515
487
445
398
353
349
392
424
447
446
447
415
396
402
406
414
441
447
476
480
467
450
404
372
391
403
427
445
455
449
419
394
394
395
405
430
456
435
389
358
359
400
403
408
421
427
520
537
527
557
585
628
670
684
727
795
935
978
990
989
989
989
989
988
987
986
984
982
982
983
983
983
984
984
985
986
987
987
990
847
710
584
476
390
334
317
344
394
362
357
343
327
315
308
309
312
381
410
371
350
345
369
403
403
371
334
381
378
379
382
393
402
396
368
334
314
390
387
381
364
342
327
327
311
302
313
341
430
403
384
376
363
343
325
331
342
389
454
406
389
369
360
376
375
361
345
388
442
421
405
401
400
400
397
371
348
372
461
489
442
405
377
384
404
416
415
420
485
492
454
424
420
435
448
430
432
431
479
479
454
455
441
416
422
432
431
457
551
541
544
516
480
439
446
454
480
538
604
545
502
491
497
498
509
514
515
538
552
508
493
482
491
491
485
485
493
499
549
598
575
537
504
500
517
521
517
522
606
621
591
574
565
562
564
578
569
559
625
628
624
605
569
569
575
585
543
508
505
573
559
531
540
564
577
576
557
547
558
604
548
500
505
505
516
556
559
551
599
646
591
540
525
507
501
519
522
497
528
540
497
469
477
477
473
464
452
440
477
474
444
432
429
427
428
432
427
409
452
448
421
404
399
399
397
405
406
414
419
454
418
402
379
359
366
368
331
327
348
407
398
402
394
377
377
393
391
366
376
426
387
372
356
356
337
314
295
286
269
324
362
362
378
372
369
360
358
357
381
436
450
439
407
360
346
350
364
374
383
434
412
392
406
401
409
393
377
364
366
416
390
352
362
378
388
385
381
409
429
477
449
433
406
373
404
419
399
387
410
451
430
417
409
409
405
443
462
462
430
455
469
439
441
440
434
409
378
364
394
481
504
511
533
522
516
481
430
416
422
465
473
468
467
467
447
432
412
397
413
450
519
495
469
458
454
462
440
431
438
484
543
530
520
514
505
500
491
472
456
446
491
460
444
445
462
485
483
501
517
555
577
521
499
496
471
444
441
459
493
557
593
582
556
523
502
477
454
434
442
491
491
477
460
460
442
434
449
446
433
433
501
493
467
423
418
445
452
453
448
453
493
486
463
443
456
479
478
461
450
446
469
451
492

537
535
525
513
500
499
524
537
510
484
492
513
516
496
480
457
472
496
493
481
479
477
466
436
410
401
423
441
425
436
458
463
475
493
500
504
504
513
502
496
508
496
496
489
515
489
464
445
444
463
483
477
473
497
501
456
412
409
395
405
422
468
494
506
538
533
490
431
441
492
498
450
450
419
421
423
428
446
467
486
488
448
429
398
372
397
425
463
464
480
471
447
443
443
443
434
434
429
430
459
487
510
507
481
455
437
465
496
461
440
448
445
431
404
376
396
421
418
406
416
425
425
433
434
423
433
458
481
475
430
394
414
414
418
397
384
371
374
368
353
354
380
419
444
483
519
545
575
591
587
621
666
704
749
805
860
906
931
971
989
988
987
987
987
985
986
986
986
985
985
985
986
986
987
988
989
923
831
733
610
492
405
310
268
260
280
295
302
297
299
305
315
324
324
309
319
341
350
340
330
336
342
339
347
361
359
359
376
368
344
334
332
335
316
316
316
307
299
325
380
400
424
424
413
399
390
373
334
327
344
349
345
352
372
396
429
436
410
429
396
333
334
333
351
405
403
384
383
376
393
435
425
425
398
378
369
384
394
406
450
449
455
468
471
461
442
434
421
419
430
436
443
462
458
439
432
424
436
445
436
445
469
469
466
451
452
453
468
470
461
463
475
491
498
510
507
488
429
435
448
439
446
462
479
493
486
488
502
501
511
472
473
473
489
503
503
502
501
496
490
490
493
488
484
502
514
537
540
526
524
563
558
536
536
559
575
574
556
539
541
538
518
518
534
555
548
527
510
494
499
512
524
536
546
537
531
523
514
511
516
512
503
493
489
489
493
505
509
500
488
472
412
412
437
459
462
483
492
470
450
455
480
480
465
431
428
439
425
417
405
409
416
399
383
371
363
372
431
453
426
391
382
382
403
388
353
393
425
419
389
378
378
394
407
384
378
387
396
388
388
393
395
390
390
388
381
369
369
371
378
384
385
385
378
403
395
389
393
391
386
379
390
397
395
392
394
394
390
402
408
411
411
419
425
426
416
416
422
406
386
367
384
403
406
417
420
416
414
418
416
420
417
420
426
424
420
418
416
402
387
392
415
433
450
463
461
453
446
442
436
432
436
436
448
448
442
443
429
417
436
442
429
414
438
468
490
473
454
451
460
449
455
460
466
468
478
485
474
468
496
450
420
420
427
451
472
477
476
471
478
486
487
498
496
490
485
470
488
492
490
486
474
489
496
506
509
507
506
497
502
522
518
499
498
509
496
478
463
470
486
460
471
553
571
537
518
516
507
504
509
510
515
495
499
511
513
521
522
509
501
497
485
485
467
473
495
518
534
509
481
472
474
469
452
449
449
457
458
433
433
440
445
449
455
454
457
455
451
447
444
445
447
447
448
436
440
439
446
437
430
435
449
450
453
460
455
453
454
451
456
453
450
453
456
445
438
431
443
430
395
417
451
455
443
450
425
411
408
424
436
462
469
439
422
420
441
449
453
449
452
449
442
444
462
458
451
451
459
446
427
419
423
423
426
419
430
453
442
431
436
444
433
420
427
454
477
494
512
542
563
570
581
624
672
725
768
809
841
891
938
980
989
989
989
988
987
987
986
985
985
985
985
985
986
986
987
988
989
950
880
789
703
601
479
382
314
273
267
272
280
283
289
294
297
300
312
322
328
342
354
359
365
369
397
379
361
343
346
364
394
370
366
368
346
354
369
380
376
386
389
378
376
376
373
371
371
372
376
387
398
399
392
389
391
383
382
386
385
395
414
417
405
395
378
379
405
439
464
458
449
453
449
449
436
429
434
436
434
425
423
431
447
451
452
454
458
464
453
435
442
455
458
459
460
458
465
465
458
459
478
483
479
480
484
472
472
480
468
480
501
521
537
517
459
460
477
481
491
498
508
531
507
474
484
499
510
515
511
510
513
521
526
526
525
524
528
530
534
533
532
531
540
549
554
547
543
557
563
563
554
540
560
568
582
587
573
564
556
553
538
557
583
583
582
573
565
563
546
562
559
563
580
579
575
562
544
524
530
565
569
596
576
566
545
532
535
531
530
527
523
523
520
523
518
515
533
508
500
498
495
491
486
478
478
475
479
473
471
463
452
457
448
448
441
431
424
413
426
431
422
426
440
440
459
429
418
411
398
396
391
390
402
405
393
407
429
412
376
369
368
373
379
412
403
405
413
399
387
391
410
405
401
401
402
403
404
411
413
409
417
412
394
392
395
408
423
405
395
406
412
408
406
409
426
414
394
392
392
387
431
459
439
431
440
428
423
431
437
447
449
437
431
416
398
419
432
424
429
429
440
463
469
457
453
440
426
430
439
446
453
459
471
471
471
467
464
460
463
486
483
475
473
445
444
448
459
459
459
466
471
463
477
495
494
503
485
494
502
513
514
504
489
489
500
511
519
512
487
489
509
511
503
501
498
505
533
517
490
505
526
522
521
516
495
489
505
511
511
508
511
509
512
521
526
527
533
536
530
520
519
515
512
533
544
556
526
514
522
493
481
510
525
518
520
520
521
515
509
512
517
488
499
499
512
493
481
481
492
489
480
485
486
488
498
482
458
463
471
459
468
475
460
463
476
496
485
473
483
483
467
460
464
464
471
473
469
467
466
466
474
472
468
473
479
476
471
477
488
494
464
458
463
461
466
474
477
473
472
467
460
450
444
445
450
435
434
481
512
514
512
501
498
501
505
517
505
493
498
475
473
474
462
472
482
476
473
463
456
467
459
450
453
453
471
476
477
478
495
522
549
581
595
604
628
676
734
731
750
795
840
884
936
975
989
988
988
988
987
986
986
986
985
985
985
985
986
987
987
987
990
954
894
829
736
646
538
436
356
319
317
326
331
337
340
341
344
326
343
363
374
375
384
398
412
417
425
427
420
415
421
424
426
430
436
440
449
436
441
451
434
414
424
426
428
439
432
430
432
449
460
460
446
446
441
442
440
443
448
456
460
461
468
464
457
455
471
485
476
463
460
467
476
484
487
485
479
483
487
492
505
499
498
498
502
503
508
503
499
501
496
495
496
513
520
515
508
488
494
514
515
545
560
544
527
529
537
532
533
541
538
519
541
576
541
526
543
556
542
540
548
553
561
554
558
545
554
587
602
573
550
549
559
570
578
587
587
583
578
577
591
604
599
599
604
602
601
601
601
602
608
611
606
605
609
620
628
626
626
634
623
616
626
629
638
637
643
639
622
618
617
619
620
620
624
626
642
617
595
611
610
608
604
601
597
597
600
589
600
623
620
598
605
579
555
553
558
564
565
557
551
551
552
550
548
540
534
537
535
524
521
514
492
486
514
510
516
528
497
483
480
480
475
465
465
466
466
477
479
493
494
471
451
451
461
458
447
461
463
460
456
456
464
468
468
468
470
481
480
461
444
439
440
445
450
455
454
451
435
437
458
459
453
453
451
447
455
462
467
475
465
454
467
471
472
472
475
481
487
499
485
464
461
483
501
479
494
506
477
471
469
467
468
480
490
495
486
468
474
485
488
500
512
510
506
505
503
505
505
509
510
501
482
493
513
522
526
525
532
539
513
520
545
545
547
538
533
542
551
552
554
560
555
567
552
535
537
551
554
549
547
555
563
567
564
557
548
546
539
560
541
542
575
575
551
546
561
565
577
560
559
563
567
570
571
574
572
566
559
562
570
566
566
568
571
579
584
573
571
588
589
587
585
585
581
576
575
585
567
559
582
575
572
569
564
559
587
578
569
562
557
558
545
533
538
553
518
508
534
547
516
528
528
528
521
512
514
525
527
529
521
518
505
495
514
523
517
499
495
502
520
547
560
549
523
530
517
505
504
519
521
516
520
520
507
510
528
523
508
507
526
526
524
518
512
511
513
520
522
519
524
524
524
521
518
521
553
550
537
521
507
489
485
494
506
524
539
536
520
512
515
541
521
494
485
479
500
505
497
494
510
519
515
561
575
594
621
609
625
678
709
742
775
775
797
821
871
930
965
989
988
988
988
987
987
986
986
985
985
985
985
985
986
987
987
988
989
935
855
763
683
588
468
468
397
342
316
299
341
341
363
387
391
410
415
412
409
412
421
428
435
438
469
452
422
427
439
436
436
454
439
435
463
465
451
445
451
457
453
439
427
451
462
460
455
466
476
471
468
463
457
451
450
461
466
472
471
464
480
481
487
492
508
508
500
488
489
492
485
499
500
490
495
504
504
497
502
495
492
502
503
505
504
510
514
519
521
515
523
514
475
511
551
551
555
546
534
525
528
531
549
557
545
546
536
539
553
558
548
558
580
567
539
492
508
528
550
579
568
554
559
563
547
527
563
582
579
583
596
603
579
576
582
571
574
576
576
567
572
584
592
596
598
608
615
621
621
611
612
626
620
599
600
600
594
612
627
614
602
604
610
620
621
616
618
616
621
617
618
620
619
612
612
636
599
589
595
609
614
593
579
604
580
580
568
559
574
563
549
559
571
566
549
565
566
551
550
546
546
544
535
523
516
516
513
509
505
496
486
489
494
492
472
446
483
480
479
471
476
491
482
474
474
468
457
458
448
452
469
469
461
455
447
445
443
434
440
436
430
429
431
432
434
434
451
449
449
456
453
435
443
441
434
440
446
451
445
442
445
441
436
431
434
440
441
436
436
438
445
442
445
467
466
466
467
464
464
459
459
451
452
461
458
460
458
459
460
462
488
496
477
467
469
458
438
480
483
478
472
473
480
481
471
463
459
460
482
504
517
515
502
489
480
484
485
490
492
493
505
493
484
493
495
494
499
521
518
515
511
509
504
503
502
502
471
502
510
521
553
588
551
494
491
495
521
546
549
543
537
534
546
550
563
564
547
520
511
510
512
514
516
528
548
548
551
540
551
561
551
569
558
531
524
524
526
542
549
557
557
546
537
532
516
513
534
519
494
517
548
536
541
541
531
521
535
534
527
513
504
494
482
486
489
472
487
519
477
459
471
470
472
490
480
473
480
482
483
482
481
480
478
474
476
476
476
473
475
476
480
478
477
489
495
472
463
454
482
494
483
477
467
466
467
476
495
478
459
464
463
457
458
461
469
469
464
463
457
449
499
507
497
498
492
486
484
464
452
479
485
484
485
483
483
477
475
475
472
461
445
441
457
454
443
434
435
447
463
485
503
510
526
557
588
619
640
647
676
714
751
788
827
879
940
989
989
989
988
987
987
986
985
985
984
984
984
984
984
985
985
986
987
988
989
926
817
720
609
496
373
312
278
286
296
312
348
342
339
342
346
364
379
366
376
376
382
363
367
377
366
353
390
374
362
356
360
346
350
377
397
403
399
386
369
367
369
368
362
372
367
399
418
421
413
397
385
392
395
406
415
420
421
417
413
410
413
417
420
403
400
414
421
438
463
437
429
441
437
421
432
446
452
454
452
452
460
454
465
474
469
456
456
459
485
455
426
440
467
447
449
444
458
471
441
458
492
483
466
462
469
482
477
493
514
514
516
503
503
504
504
506
511
508
513
509
498
493
497
503
505
513
526
514
520
534
529
524
531
532
526
531
540
544
541
529
524
530
534
543
549
548
544
528
520
540
570
583
586
602
610
598
573
567
546
515
512
527
548
567
571
555
563
558
539
539
525
533
550
584
588
576
565
554
553
559
575
562
534
518
519
519
509
504
525
524
504
500
502
499
493
497
513
511
496
496
488
494
492
485
470
435
428
428
404
402
450
468
476
492
487
466
439
427
434
439
429
426
426
415
409
434
418
406
406
418
392
378
382
392
405
405
393
389
387
387
386
381
386
396
416
421
397
398
411
407
405
409
410
413
401
408
405
396
403
403
408
413
401
390
406
415
410
416
433
451
403
371
390
405
398
413
414
400
391
402
411
414
416
423
419
409
402
415
439
439
446
410
383
382
401
459
461
448
454
449
462
469
469
456
448
443
440
444
446
443
434
440
455
459
448
459
460
473
486
468
466
457
450
454
463
460
463
467
463
451
463
493
491
492
486
486
488
483
481
476
468
497
505
499
483
486
496
503
494
494
480
466
465
477
494
506
512
512
512
491
501
492
517
519
485
480
491
505
514
514
505
486
476
485
499
504
509
510
504
504
501
510
522
527
524
498
486
507
528
522
495
490
486
499
512
514
517
527
509
493
484
483
483
483
472
471
461
449
439
429
446
457
456
452
455
466
460
466
474
484
467
448
446
450
451
449
447
442
449
455
455
453
451
457
461
457
450
451
455
455
445
429
456
472
467
458
455
446
440
436
454
464
461
454
455
467
454
448
472
484
466
469
485
469
446
450
429
428
430
430
429
437
450
457
458
453
450
448
450
461
464
460
460
462
442
432
432
443
447
441
448
432
358
363
400
433
490
539
553
558
578
597
612
634
672
714
756
816
879
923
977
989
988
988
988
987
986
985
985
984
984
984
984
985
986
987
987
989
966
966
881
787
685
559
431
349
299
258
254
276
300
318
312
321
324
326
341
343
348
351
351
372
398
363
352
361
369
377
370
370
364
354
356
358
351
352
364
380
384
373
366
369
368
360
366
375
372
372
376
370
377
376
373
377
388
401
431
440
400
368
367
369
379
384
394
419
425
423
413
405
416
432
439
446
430
433
455
458
433
409
411
425
436
445
441
440
439
441
444
444
445
453
456
452
446
445
456
462
464
471
470
470
472
472
471
467
463
463
461
469
494
491
483
493
495
500
520
519
493
493
476
465
490
495
488
491
496
499
489
494
520
522
520
523
525
526
518
517
521
524
524
523
525
531
537
549
548
541
533
536
541
540
534
534
541
550
554
559
565
561
558
545
553
572
563
560
545
557
579
574
547
527
511
516
550
562
553
546
547
547
550
537
531
531
532
522
515
507
505
508
511
505
494
493
496
504
491
491
498
494
492
501
463
442
456
455
450
443
442
442
447
450
444
440
434
434
429
425
421
421
421
401
400
420
415
410
407
406
404
401
399
401
398
391
389
395
397
396
389
389
389
390
389
388
384
379
364
370
380
409
412
399
398
400
403
397
405
415
409
399
427
403
357
355
389
408
401
390
387
387
380
392
399
402
409
423
418
412
411
413
408
407
411
415
420
420
425
422
417
426
426
429
427
425
429
432
434
437
426
426
429
428
433
436
440
437
429
426
449
462
436
424
429
429
445
470
464
438
426
434
441
445
444
446
441
445
441
450
461
463
461
471
475
464
459
442
443
447
457
476
491
495
490
481
446
479
509
488
479
475
479
485
477
473
475
466
477
485
488
488
481
484
486
491
495
500
502
493
489
491
486
474
492
505
493
489
500
507
509
505
504
500
506
509
513
508
506
502
506
506
507
510
506
498
495
493
483
476
492
500
503
502
497
496
496
493
485
482
463
452
448
450
448
476
479
451
439
432
426
445
448
422
423
445
442
438
440
452
453
446
448
435
418
428
433
431
428
434
442
439
441
438
442
449
448
446
445
458
446
446
440
443
437
427
428
429
421
394
412
455
465
471
467
460
466
460
474
435
399
413
442
444
431
431
438
432
426
442
454
454
449
435
445
437
432
451
455
449
436
427
429
429
417
408
398
386
405
424
416
420
433
456
473
489
511
535
561
582
603
629
664
704
742
790
840
900
959
989
989
988
988
987
986
985
985
985
984
984
984
985
986
987
988
989
962
877
789
702
565
565
432
342
276
244
244
276
281
286
298
313
310
322
326
329
348
364
354
330
323
303
286
322
359
360
368
388
394
387
364
364
360
364
372
372
368
362
359
359
358
373
392
374
364
338
329
341
340
352
374
392
395
380
381
395
400
401
421
417
409
407
411
412
416
416
404
398
407
412
412
418
405
390
406
427
430
431
432
436
429
427
422
427
425
430
436
437
441
446
446
446
464
458
449
448
453
463
460
452
451
457
466
462
468
452
453
462
469
467
464
476
490
498
479
486
487
488
485
489
498
498
505
502
495
492
498
517
529
545
527
481
479
462
484
497
511
521
522
523
520
528
530
539
537
528
532
541
547
550
552
549
572
568
550
525
507
524
547
554
542
557
562
553
550
555
559
562
561
550
547
545
536
532
532
525
522
527
534
546
539
539
517
513
512
519
514
504
502
499
486
476
508
516
499
483
484
486
482
472
461
459
449
467
487
487
475
466
464
455
461
461
426
376
385
386
399
412
419
414
431
431
407
388
399
417
412
403
392
399
399
399
399
407
403
402
408
406
400
384
381
390
385
390
390
383
401
400
402
403
391
384
392
405
407
426
417
372
378
389
399
400
391
397
407
412
414
420
412
402
395
395
396
407
418
415
418
437
426
397
404
405
397
396
403
404
404
414
426
432
435
423
407
400
435
457
447
428
441
453
413
413
418
420
406
432
459
456
444
439
429
427
433
442
450
453
455
446
449
471
480
469
461
456
451
447
441
438
452
467
456
467
477
492
477
472
474
474
467
464
478
491
483
484
484
478
480
484
491
492
499
499
495
488
479
484
492
488
490
499
482
482
484
516
514
483
471
487
508
507
488
478
476
476
475
482
492
510
520
507
493
506
527
545
504
464
468
481
512
529
530
530
516
490
499
506
504
505
498
489
467
472
486
485
471
479
485
476
465
480
473
446
437
447
464
477
461
465
457
437
434
450
456
439
436
440
441
435
446
450
458
463
479
470
434
421
423
434
456
460
431
432
447
434
415
432
446
436
431
443
458
458
445
439
444
447
439
442
440
441
448
446
448
444
441
427
416
429
452
464
479
467
431
434
439
440
447
450
453
449
435
435
430
440
451
449
444
430
414
439
437
428
424
432
441
438
435
431
419
414
412
432
460
474
492
513
534
560
584
614
652
691
725
760
803
879
934
967
989
988
988
988
987
986
986
985
985
985
986
986
987
987
988
989
949
890
814
714
573
448
357
357
289
244
233
242
262
269
293
329
349
334
318
310
313
325
339
359
374
358
350
362
368
359
361
361
363
365
370
375
378
378
369
358
361
365
373
368
372
387
403
389
375
372
361
358
388
394
390
369
373
395
400
395
390
387
394
408
412
408
416
417
428
436
442
428
417
429
417
415
435
432
406
393
411
434
439
442
452
454
443
453
459
463
458
420
428
443
451
468
455
455
456
456
459
455
454
455
478
479
473
476
481
493
497
482
467
469
459
468
485
483
485
494
491
488
494
494
492
499
527
527
509
497
499
509
518
516
510
518
529
518
518
521
519
521
541
535
540
540
540
535
532
528
539
544
535
538
560
550
542
546
554
575
572
547
523
549
562
568
565
566
564
570
580
559
549
521
524
546
552
558
574
557
542
529
519
521
533
555
547
547
539
538
506
499
516
511
510
502
502
506
500
486
485
484
483
482
474
468
473
479
456
450
451
451
446
439
432
446
447
447
431
424
425
421
413
412
399
393
392
405
407
399
396
398
411
424
412
400
402
408
407
386
391
402
392
381
394
402
390
398
397
403
400
390
353
338
351
373
386
393
406
406
411
428
391
375
374
372
382
388
388
391
392
391
398
400
392
393
403
403
412
398
386
403
396
394
400
409
406
414
414
411
413
415
422
419
419
422
429
427
424
415
400
403
413
441
455
451
462
462
457
441
426
423
421
425
426
429
449
451
423
410
419
431
445
453
449
447
445
452
466
473
476
465
467
462
458
456
461
467
464
459
465
476
472
469
482
494
499
478
468
477
500
488
469
466
476
486
495
493
497
496
490
491
483
481
494
493
487
487
513
501
502
506
513
489
468
469
487
496
494
505
507
510
511
498
485
491
495
498
496
477
480
498
492
471
481
508
500
500
505
500
485
464
460
467
450
441
445
453
448
462
465
452
444
434
463
459
431
432
444
435
444
447
446
451
461
472
463
448
431
439
446
448
441
438
444
449
448
436
440
432
446
475
476
440
400
412
424
422
443
448
421
409
415
429
437
461
462
462
467
465
448
439
438
445
452
433
429
423
427
437
454
459
452
445
443
441
441
438
435
440
438
446
461
462
441
437
437
437
419
419
432
444
432
442
453
445
452
456
463
477
465
482
516
545
566
590
619
664
713
740
758
831
891
931
965
989
989
988
988
987
987
986
985
986
986
987
987
988
989
981
915
850
783
712
636
505
384
315
272
254
265
286
297
301
313
313
313
313
311
306
319
327
330
351
372
390
401
394
394
390
384
381
374
383
385
378
377
374
372
373
372
384
386
380
389
395
408
408
402
383
369
376
379
387
393
374
389
413
411
409
414
432
429
418
420
417
419
406
405
406
410
420
428
440
450
444
427
424
432
432
415
415
434
433
431
447
445
446
446
445
443
443
441
434
456
479
493
504
488
467
448
438
449
466
473
471
469
469
475
468
475
486
488
486
482
480
473
470
482
494
506
506
509
505
488
494
508
505
504
505
510
513
502
497
497
508
520
520
530
527
523
521
530
537
530
543
550
547
547
556
569
544
535
579
536
518
531
539
544
544
547
558
565
560
558
556
554
561
562
565
569
575
588
559
526
523
523
521
518
530
544
553
544
522
518
519
522
520
516
520
522
519
528
510
495
496
495
495
494
498
491
477
472
491
477
456
447
442
460
471
461
457
451
449
448
437
435
439
427
429
434
419
403
398
399
401
413
413
418
408
398
401
405
408
405
399
385
381
389
390
389
388
389
402
417
400
395
403
412
437
398
369
355
340
370
386
376
373
382
387
382
378
380
381
384
386
378
381
386
389
405
412
390
367
373
389
399
383
386
405
412
407
416
413
407
413
412
412
410
413
415
416
418
421
435
432
408
405
409
420
422
424
427
437
441
416
413
414
409
416
444
457
450
447
443
431
423
423
433
443
451
448
424
440
445
471
462
425
425
447
462
477
494
466
451
444
455
456
447
458
478
479
477
474
476
475
468
460
471
479
477
476
484
490
490
504
509
487
481
482
483
482
480
483
484
498
499
484
487
490
491
492
497
500
496
505
503
503
501
494
488
489
491
502
513
497
493
493
479
488
503
508
503
497
503
485
461
456
456
452
449
442
437
434
437
437
438
438
446
460
450
443
454
450
438
426
441
445
440
431
443
440
443
445
438
437
442
454
440
449
457
440
431
425
424
431
436
431
430
417
411
430
429
419
415
418
438
459
462
452
439
442
436
422
427
433
435
436
438
439
438
438
435
425
423
439
427
427
429
438
458
461
439
432
420
419
419
429
446
449
433
428
424
422
419
411
402
409
401
405
413
411
423
440
475
493
504
504
523
547
561
572
608
635
659
696
736
778
836
893
938
972
989
989
988
988
987
986
986
985
985
985
986
987
987
988
989
946
880
807
723
622
514
401
319
269
250
261
289
312
315
304
291
301
314
329
345
351
358
361
351
322
326
343
349
352
356
356
373
376
369
366
377
378
378
370
368
365
361
347
356
368
366
366
373
379
373
372
374
367
372
392
392
384
377
393
389
389
390
395
398
396
403
402
406
419
409
403
409
417
424
414
407
410
416
417
412
425
437
428
414
426
427
418
415
431
437
440
439
443
447
436
419
443
448
445
445
439
444
457
480
479
459
468
474
459
456
452
455
462
467
477
492
480
482
498
506
506
503
472
458
458
456
478
493
485
474
490
517
526
492
505
513
522
523
513
508
530
538
531
517
517
521
514
513
517
517
517
534
541
542
551
548
543
540
541
541
541
544
543
552
560
569
588
597
537
530
535
529
538
552
557
541
513
509
499
484
533
548
540
515
501
512
519
515
515
517
517
514
507
499
503
493
461
455
452
453
472
511
503
482
457
455
471
460
434
429
429
427
422
418
412
428
452
441
421
399
383
391
404
399
383
374
373
401
436
475
454
415
390
378
389
380
368
372
384
379
379
371
363
359
349
345
372
411
414
410
380
361
388
384
366
369
406
426
391
361
343
313
324
357
340
323
387
528
525
434
367
374
378
370
379
395
401
394
400
417
432
423
414
402
403
407
406
415
434
432
422
417
412
409
412
411
407
443
455
447
447
413
388
393
447
509
535
510
495
493
527
522
505
492
453
406
382
367
396
410
389
411
418
411
386
393
393
442
460
456
456
452
446
439
442
449
454
458
462
469
431
401
397
392
414
482
533
560
497
439
450
461
455
434
434
480
496
482
461
468
468
464
470
492
505
490
499
505
498
492
496
492
481
478
475
488
481
474
485
512
534
525
513
495
513
491
477
499
522
482
482
468
486
491
484
483
467
464
487
496
503
505
474
472
466
460
455
481
454
457
463
474
475
468
467
457
437
424
450
423
423
398
425
440
458
452
439
433
435
426
432
438
448
438
443
488
461
430
436
428
408
414
423
440
427
431
438
440
417
456
464
445
439
444
428
423
432
442
448
443
443
441
436
411
392
405
436
461
458
454
455
429
421
427
423
456
442
442
444
442
442
458
443
446
457
475
444
429
423
426
406
411
416
409
404
399
402
415
426
445
480
496
496
511
522
560
570
599
651
702
702
735
748
797
863
925
975
989
988
988
987
987
987
986
985
985
985
984
985
986
986
987
988
989
973
862
754
655
512
395
319
269
254
285
316
292
297
313
313
306
339
346
324
308
335
351
352
339
358
361
359
364
370
356
353
355
354
352
354
371
371
357
344
354
357
349
347
359
366
362
365
376
378
385
405
343
327
358
369
364
378
379
381
381
394
391
379
383
384
387
387
396
399
398
396
403
412
417
416
413
417
419
426
422
402
405
407
404
422
425
438
432
428
449
448
437
437
440
449
445
452
461
453
446
457
472
454
441
442
442
446
451
448
446
439
460
466
468
482
503
512
505
490
485
499
500
488
484
482
486
486
499
509
500
499
511
514
500
502
508
504
518
527
501
506
492
480
513
522
534
535
536
551
548
538
530
523
536
546
547
547
553
555
555
556
559
522
528
537
524
527
538
545
553
564
564
570
571
558
543
530
526
526
530
534
542
539
533
529
533
529
521
514
503
489
486
486
489
490
488
481
480
476
466
467
469
465
458
452
438
446
465
471
445
414
404
406
416
425
409
409
395
401
420
428
427
413
394
397
401
420
432
404
371
367
362
377
377
374
393
405
404
399
392
404
385
364
374
394
391
391
382
384
397
374
367
368
373
380
389
381
378
388
399
401
401
397
407
411
409
402
377
378
381
393
403
406
411
410
382
377
393
401
397
394
396
400
402
406
409
413
416
417
420
423
425
428
415
413
406
413
414
409
419
420
417
420
425
427
430
430
429
426
430
438
423
428
446
446
470
452
396
398
441
439
427
436
461
463
459
454
452
451
449
450
451
452
454
469
461
461
466
464
458
449
448
448
453
473
475
475
486
494
511
490
471
453
462
478
453
460
469
473
462
469
496
508
511
492
482
476
481
490
478
464
457
472
481
477
477
492
513
523
513
493
500
534
513
494
487
490
487
483
500
508
505
512
521
500
489
489
490
498
492
494
497
490
490
481
466
468
476
484
492
496
483
477
474
468
460
452
440
437
445
445
448
474
460
438
395
395
409
422
442
449
438
420
446
452
443
443
444
440
427
442
435
415
420
436
429
428
448
459
461
448
442
439
440
435
427
428
439
456
466
456
452
447
439
445
446
451
433
430
433
435
427
430
432
430
443
447
443
446
451
455
455
432
430
435
432
432
436
440
431
434
436
437
442
444
441
434
422
418
419
411
394
394
399
421
444
464
481
502
526
542
546
571
622
697
720
720
722
761
810
865
918
971
989
988
987
987
986
986
985
985
984
984
984
985
985
986
987
988
989
932
801
681
587
460
382
333
275
255
247
265
300
311
296
282
316
332
341
350
354
356
350
351
355
353
343
344
362
373
353
342
346
343
364
362
361
361
358
356
351
344
345
355
364
359
382
366
372
383
363
346
352
364
374
377
379
382
386
397
392
397
399
381
376
375
378
378
388
395
401
406
401
390
412
411
412
414
426
433
429
427
423
434
441
439
437
436
433
437
437
430
421
425
441
451
443
451
471
468
447
436
437
451
469
457
430
442
460
467
466
467
450
447
464
478
475
475
475
477
474
463
472
505
505
499
519
519
524
516
509
496
501
503
509
515
506
518
508
503
513
517
519
526
536
527
537
543
531
530
539
539
527
532
542
547
550
550
551
550
550
549
531
544
554
556
524
493
541
564
565
554
557
553
552
550
543
538
531
525
531
534
511
499
520
528
523
519
514
516
527
529
509
490
475
474
474
482
482
474
472
461
462
468
473
478
476
463
443
425
426
424
421
419
412
421
436
436
430
400
397
428
424
427
438
417
424
405
379
389
386
363
362
382
385
387
408
394
392
376
376
378
385
391
391
387
386
386
385
385
382
385
394
412
418
420
397
372
355
361
379
385
387
388
389
394
397
398
398
403
402
396
396
397
397
402
399
396
395
402
399
399
408
417
420
406
400
393
391
419
434
441
449
418
398
429
441
434
431
432
450
462
432
412
420
430
434
434
422
437
442
416
401
425
430
417
419
423
444
457
455
448
444
445
454
484
491
441
423
418
428
421
409
425
469
481
477
477
465
454
454
459
468
476
480
480
479
476
474
473
475
487
490
486
477
473
471
484
492
480
474
475
473
473
484
495
477
493
517
524
538
524
481
468
466
479
491
487
482
489
512
503
475
476
510
523
518
531
512
510
506
508
500
499
501
505
504
504
504
498
490
488
494
495
490
494
492
480
477
477
472
470
470
451
429
426
435
428
433
475
483
472
457
436
438
456
456
456
436
440
443
446
455
443
452
442
439
414
424
448
473
439
422
427
427
436
445
447
418
415
446
451
437
428
442
454
456
451
448
449
449
451
454
470
467
464
430
414
421
431
431
444
438
427
432
432
451
447
445
445
448
448
445
444
428
423
426
426
438
435
427
426
427
427
433
433
410
387
370
383
405
435
468
488
485
479
498
532
575
586
593
630
675
715
756
802
827
827
877
927
978
989
988
988
987
986
986
985
985
984
984
984
985
986
986
988
989
934
847
756
666
548
423
334
275
240
235
260
289
320
316
331
331
307
281
291
335
358
367
389
372
352
362
354
356
355
367
373
367
376
378
359
353
373
367
345
346
346
354
353
344
343
342
349
363
373
369
350
368
387
393
384
380
391
397
397
394
388
382
394
399
398
397
401
423
424
403
403
397
386
400
408
414
422
430
428
424
424
438
443
423
435
444
438
440
441
435
433
430
433
445
454
453
451
445
441
438
441
455
467
475
460
467
468
464
464
483
476
462
456
475
481
466
482
498
488
479
476
482
481
480
489
498
503
509
514
510
510
502
501
505
513
514
503
521
539
552
556
539
533
534
543
538
541
527
522
527
531
531
526
530
544
548
562
558
536
533
533
541
551
547
543
539
542
543
537
531
535
539
548
562
558
544
527
533
532
521
536
541
509
502
505
504
511
517
507
506
494
495
493
489
493
480
473
470
456
462
475
479
487
481
461
461
443
428
448
418
384
395
407
412
420
434
428
424
429
428
428
412
403
416
412
413
413
423
417
394
396
411
421
428
408
369
378
386
376
377
393
402
399
382
357
360
379
383
392
393
393
390
388
381
383
384
378
385
388
391
388
397
398
411
406
390
386
390
397
390
363
380
395
405
403
406
421
411
396
399
402
409
425
422
421
440
439
430
370
378
398
410
417
421
422
426
430
431
423
423
424
417
427
432
428
441
446
429
432
441
441
445
440
440
421
441
463
451
446
444
446
452
455
459
465
460
451
436
448
453
451
462
489
488
457
462
482
500
503
504
504
479
469
483
482
466
462
469
470
468
482
492
493
504
508
497
491
505
503
490
494
473
471
485
491
495
493
493
503
503
479
476
500
508
505
509
531
516
493
492
502
508
510
501
500
504
497
497
495
491
494
503
494
483
487
506
495
476
489
475
475
460
456
464
473
469
450
434
435
442
451
451
446
437
430
437
443
415
417
428
428
433
418
409
426
437
447
449
454
432
432
444
455
459
457
464
454
445
445
449
449
444
432
440
440
433
430
430
437
438
429
442
437
440
440
447
459
449
440
432
451
453
445
432
428
418
417
418
426
440
448
448
445
441
447
448
442
437
447
458
461
450
430
408
409
414
415
411
391
377
377
395
397
429
473
487
494
505
529
564
583
596
634
673
704
733
782
838
887
937
989
988
988
987
987
986
986
985
985
985
985
985
985
985
986
987
988
989
924
833
746
649
521
396
304
227
215
247
266
285
304
308
314
319
322
326
338
355
364
368
371
369
359
359
343
338
346
371
365
368
380
377
379
381
380
374
361
354
369
377
368
374
381
391
376
374
370
368
371
374
374
366
363
376
397
391
408
408
395
397
398
396
389
394
402
408
408
409
400
411
418
412
413
422
436
439
434
434
437
444
444
435
427
426
430
434
438
449
452
446
448
442
442
439
460
468
460
438
429
447
468
480
483
467
456
471
479
477
471
473
478
484
479
480
482
484
487
493
504
505
499
484
484
496
508
508
508
518
506
483
493
516
537
546
534
523
512
504
487
499
499
524
530
546
558
587
562
539
541
528
528
536
542
534
546
562
563
554
540
559
574
573
570
558
561
563
559
557
539
518
518
524
548
557
544
536
533
521
516
519
522
529
538
527
518
514
516
518
507
504
502
486
485
491
488
484
484
483
475
472
474
468
461
456
445
446
443
438
439
446
448
453
464
418
407
415
403
394
405
409
412
420
419
413
396
380
383
409
405
411
411
389
376
384
385
383
387
401
424
411
386
375
368
378
379
375
365
362
377
387
374
356
379
393
397
396
391
380
374
378
378
382
384
385
394
395
397
397
396
395
399
388
399
425
409
391
377
377
372
392
415
437
433
432
416
406
407
409
414
419
417
409
417
417
410
429
448
424
417
420
430
449
433
423
425
421
419
423
438
451
461
463
451
447
460
466
462
457
450
452
452
463
462
465
466
474
470
476
465
457
461
468
468
474
485
487
468
472
490
504
497
452
459
483
475
477
480
476
488
496
496
502
508
472
458
479
516
516
496
479
513
530
516
504
500
504
514
512
505
505
515
526
528
508
482
483
492
492
495
485
491
496
492
489
494
511
496
460
455
464
478
465
451
451
455
459
453
444
440
449
455
456
448
429
416
421
423
421
422
426
426
422
429
441
452
451
448
444
443
443
443
433
429
441
445
451
457
429
410
424
439
440
434
433
430
434
451
439
429
424
424
438
445
444
432
423
423
425
428
434
432
423
425
432
440
438
438
441
445
447
444
448
451
449
444
448
466
468
456
438
431
436
444
430
431
438
411
369
367
399
403
383
409
448
462
483
501
512
524
534
556
600
651
684
713
747
795
859
921
980
980
989
988
988
987
986
986
985
984
984
984
984
985
985
986
987
988
989
932
849
754
637
507
372
280
233
233
252
263
289
289
310
321
322
329
326
327
335
329
330
336
350
351
361
364
366
364
361
364
372
354
364
359
349
362
355
351
350
361
359
365
381
380
378
379
375
369
352
351
356
367
385
399
397
395
402
397
391
374
380
398
403
383
424
447
440
437
439
429
417
417
413
411
412
423
451
439
429
435
446
425
422
422
422
435
448
446
463
451
435
436
441
456
465
463
456
460
466
469
468
468
473
464
467
467
479
474
478
479
477
480
478
469
471
481
475
459
476
495
498
497
504
504
504
515
521
520
523
504
501
508
517
528
531
530
533
535
521
513
519
527
529
544
535
526
518
527
544
558
556
547
552
557
547
534
544
560
563
573
562
562
552
548
580
582
558
565
560
552
583
562
520
514
527
538
536
544
548
554
550
532
517
512
522
516
526
530
508
492
495
495
494
490
486
489
493
484
483
480
474
479
469
453
446
441
434
433
445
473
470
441
424
418
422
421
420
421
414
409
394
394
400
405
407
422
415
407
424
413
404
409
400
400
398
391
382
376
384
392
399
401
394
400
403
396
398
381
361
372
390
390
395
395
391
395
395
390
386
394
391
384
385
405
424
414
387
387
384
372
391
416
410
401
401
421
424
422
414
414
409
409
402
412
413
417
421
415
414
416
425
428
423
424
430
434
419
410
408
414
445
452
437
423
418
429
457
456
437
436
447
451
450
442
428
423
439
452
456
466
468
464
462
459
461
461
466
464
466
475
493
481
466
495
508
493
490
499
478
460
465
465
473
467
461
461
468
492
506
504
510
512
510
500
489
489
491
486
486
486
495
503
500
520
507
479
489
501
514
510
510
510
514
513
511
503
496
495
498
497
488
491
499
502
499
499
500
474
478
493
495
465
460
494
488
461
492
504
443
421
427
440
432
429
434
442
446
447
450
447
440
442
442
436
442
445
446
449
447
445
434
431
435
440
448
448
440
453
455
449
447
447
435
437
429
417
420
440
461
462
460
450
430
421
427
427
426
449
457
444
438
436
439
437
431
421
421
428
431
430
438
438
447
441
442
449
445
461
467
474
435
421
430
441
446
444
441
440
434
418
418
419
413
409
434
434
436
427
439
451
491
518
512
545
593
618
650
679
707
749
800
853
904
989
989
988
988
987
987
986
986
985
985
985
985
985
986
987
988
989
948
948
875
791
697
580
447
341
278
232
225
273
304
316
322
324
324
327
323
323
332
350
345
353
363
364
368
368
358
352
360
360
368
391
400
393
378
371
371
370
364
357
352
343
350
363
368
375
379
370
383
399
391
386
389
387
385
387
394
395
397
398
406
413
420
434
397
407
420
409
406
415
422
433
438
432
431
433
431
424
419
421
441
427
422
432
445
450
449
455
449
449
452
460
457
455
449
450
454
462
466
470
470
466
475
468
465
471
475
473
459
476
490
495
490
488
484
478
500
501
491
491
498
502
500
506
495
470
489
512
510
509
515
530
547
545
536
518
528
532
531
539
550
565
556
529
536
551
552
555
551
553
549
557
564
560
556
534
534
539
550
561
563
566
572
566
557
556
557
543
552
544
549
558
571
568
561
542
544
559
564
564
534
525
537
535
530
526
529
527
512
508
499
505
513
495
499
503
495
496
491
487
489
480
463
464
470
459
460
465
469
469
464
463
454
441
429
417
415
424
433
436
431
421
417
424
433
434
410
396
394
401
405
406
394
399
405
398
397
406
408
374
384
391
397
405
413
414
385
371
383
390
394
388
391
387
387
396
385
381
374
369
363
375
395
401
407
413
407
383
393
393
405
409
405
401
416
406
405
404
406
419
424
422
429
413
401
405
407
403
405
412
416
418
418
421
419
422
426
431
431
431
443
448
437
436
445
444
441
440
442
440
440
451
453
446
448
460
466
461
451
455
473
467
458
464
484
491
482
478
484
500
501
468
454
464
472
467
482
456
462
482
480
502
494
496
500
502
493
486
491
496
496
507
513
507
469
471
494
497
494
494
504
511
505
502
502
499
502
504
502
506
511
526
524
524
508
502
513
493
486
492
496
498
493
488
492
488
487
480
477
477
467
447
434
431
458
456
449
454
458
456
432
433
451
456
443
442
457
461
457
453
448
455
460
451
437
435
442
460
449
435
425
436
446
437
443
464
452
439
434
432
427
431
432
434
437
447
452
442
433
433
435
431
434
452
455
441
449
440
445
445
448
448
443
444
456
441
434
438
436
442
448
441
444
452
451
444
439
436
439
444
436
453
453
446
446
448
444
415
412
412
414
415
423
423
429
444
453
470
492
515
527
541
573
589
636
684
695
708
764
834
875
914
954
989
989
988
988
987
987
986
986
985
986
987
987
988
989
957
882
841
775
689
589
481
381
303
245
241
269
294
312
323
336
328
322
324
322
330
338
338
335
342
361
370
389
390
378
391
389
376
379
396
387
379
384
393
387
374
369
374
386
387
388
394
406
398
392
387
393
393
410
413
407
398
415
394
383
390
395
389
383
394
420
432
429
442
448
425
417
423
431
432
436
436
429
420
424
437
448
443
444
447
449
451
446
446
447
461
443
437
445
457
459
460
459
453
474
458
446
473
487
471
465
471
475
491
471
462
475
475
480
488
491
487
473
494
509
509
506
509
507
506
502
501
503
503
512
510
507
505
513
515
520
551
556
542
528
535
538
538
526
515
515
524
535
537
534
552
550
549
560
561
562
565
566
567
559
557
565
551
562
564
568
567
568
568
554
555
560
556
552
550
556
576
562
539
536
535
541
534
540
521
499
517
531
527
520
521
524
523
539
535
513
498
499
503
508
493
483
483
470
463
468
472
465
474
465
453
459
451
432
432
442
442
427
421
414
417
422
422
421
408
407
408
397
395
389
392
393
393
404
420
417
393
419
407
390
382
380
379
382
385
385
383
387
392
386
385
391
395
394
389
394
392
393
395
400
392
388
382
382
393
394
395
379
393
401
401
397
402
400
396
395
394
405
410
408
412
398
407
408
407
413
423
429
422
437
415
397
397
394
406
421
410
396
419
442
451
437
430
422
418
443
442
429
425
425
427
431
438
438
444
454
456
454
450
439
441
450
450
443
453
460
466
482
476
476
469
471
481
473
476
481
474
462
463
461
495
508
484
474
472
465
472
487
492
498
491
505
527
481
475
484
482
490
495
489
491
500
493
493
493
493
492
492
505
504
490
495
505
514
519
521
515
511
509
504
493
485
485
475
484
484
491
494
510
488
477
485
473
466
465
459
455
461
440
431
441
447
433
421
421
438
452
478
469
456
443
437
437
442
449
446
449
457
451
438
440
449
447
436
429
440
438
431
441
447
445
442
431
461
450
421
416
415
418
426
448
457
462
481
435
405
422
414
404
434
456
464
460
451
450
444
443
442
438
440
450
449
445
455
449
446
433
421
420
445
454
453
453
453
453
454
450
461
436
405
391
404
419
410
412
418
424
445
462
472
488
518
539
561
580
609
654
707
726
751
802
853
853
903
957
989
989
988
988
987
987
986
986
985
986
987
987
987
988
989
944
900
848
771
664
569
438
339
260
233
236
272
306
302
309
310
326
332
332
346
347
356
350
346
345
350
349
353
372
381
372
363
353
367
383
389
381
383
386
391
390
372
372
388
386
374
366
363
376
396
378
385
369
342
372
403
397
395
402
412
406
392
381
394
424
427
423
429
416
411
419
429
429
433
417
413
416
415
421
422
426
427
441
449
436
432
434
437
437
436
441
455
448
440
441
452
456
445
440
437
441
457
466
469
467
471
475
471
461
458
456
482
484
469
476
483
479
476
476
480
491
497
494
492
492
490
492
495
494
496
506
512
512
507
500
505
512
512
510
506
513
520
522
525
529
531
533
534
533
530
529
544
545
546
540
530
547
561
558
541
546
559
559
559
559
557
556
542
547
542
535
532
553
542
534
524
518
524
543
552
516
510
532
531
512
503
500
512
525
518
509
504
500
508
512
522
525
505
463
444
446
450
459
466
465
467
473
467
460
455
446
446
455
460
452
408
387
399
401
406
412
422
422
430
423
407
406
416
414
405
403
402
398
397
395
397
396
404
410
399
384
391
398
401
410
405
397
394
393
396
393
389
389
390
397
403
409
400
392
403
400
396
392
396
403
410
412
413
410
421
401
378
383
378
372
381
392
402
412
419
418
415
416
418
414
420
422
449
431
408
408
421
429
421
419
419
420
413
422
450
442
427
428
424
440
419
418
436
426
431
460
458
458
440
435
446
451
448
447
441
443
449
456
454
456
463
467
476
478
468
464
478
478
473
476
483
498
481
475
475
472
473
473
478
475
473
479
481
475
466
470
483
493
488
482
485
484
466
456
478
502
510
498
482
489
496
501
510
489
485
497
501
502
509
511
510
513
510
511
511
515
499
465
467
479
502
482
472
471
475
490
494
478
462
445
435
440
449
453
459
446
445
445
449
449
446
446
447
447
439
437
442
445
442
444
441
441
448
435
421
431
443
453
457
454
448
441
431
425
412
419
426
426
440
460
450
449
452
450
444
446
444
448
445
441
434
424
422
436
438
433
436
448
438
431
444
453
455
427
425
425
412
425
442
473
450
419
438
458
460
456
457
469
462
443
433
422
403
413
420
417
419
423
420
425
447
466
480
504
528
542
555
555
572
596
624
651
695
743
781
822
871
911
952
987
989
988
988
987
986
986
986
986
986
986
987
988
988
989
936
868
795
795
722
623
513
418
341
287
257
260
279
280
289
326
342
339
341
349
341
368
380
382
384
383
376
379
359
344
352
366
392
408
386
374
373
371
374
375
373
368
367
365
362
365
371
379
383
379
388
396
396
402
399
389
395
399
394
386
400
409
415
415
410
386
381
408
434
432
402
386
402
411
412
424
436
436
442
437
426
431
440
447
447
449
451
450
444
449
441
429
449
449
432
427
442
439
439
438
437
441
442
443
447
459
469
472
472
478
481
486
483
490
505
486
465
468
471
482
489
478
485
489
480
479
487
496
499
494
491
481
490
475
483
498
512
519
529
528
520
528
533
537
524
495
484
498
509
513
525
541
541
541
548
549
541
532
538
539
527
515
546
561
547
543
561
535
532
549
559
562
554
543
533
533
528
529
533
520
509
505
515
515
521
518
513
517
527
518
505
516
511
502
507
511
513
495
483
483
480
475
468
470
474
480
481
492
454
433
433
429
434
434
441
450
453
436
441
441
434
404
375
382
388
396
400
397
398
400
395
396
406
399
396
398
398
388
386
405
414
415
406
406
411
388
366
380
399
406
396
377
396
404
396
404
404
395
389
395
405
402
398
397
402
403
402
408
403
403
412
434
427
427
406
405
402
413
427
408
382
390
426
439
421
413
412
410
424
434
419
417
420
423
435
426
433
434
406
396
420
435
440
434
428
428
429
435
439
440
450
465
445
435
441
440
441
454
459
462
463
469
480
475
459
460
470
460
446
444
447
459
472
472
474
465
457
459
462
467
479
489
485
477
487
486
489
494
495
503
490
485
487
487
492
496
494
495
488
491
499
499
509
509
524
497
490
490
498
497
499
497
498
532
530
495
484
507
514
527
531
483
454
481
494
494
484
493
484
485
493
480
466
473
469
447
430
419
440
450
446
442
451
466
467
443
436
440
440
443
449
455
445
438
441
442
443
449
453
457
458
450
445
445
434
418
422
430
438
450
452
447
455
464
465
442
436
447
450
455
453
452
451
453
441
444
450
445
446
443
455
471
491
491
478
449
446
445
451
450
456
447
451
442
428
438
444
426
404
436
450
454
460
449
440
434
427
421
413
415
418
424
432
462
486
480
505
523
541
557
555
573
611
651
705
754
795
831
871
913
951
989
989
988
988
987
986
986
986
986
986
987
987
987
989
989
962
884
822
758
690
613
510
392
330
285
244
255
284
302
313
319
324
337
353
362
378
387
384
363
352
374
388
388
397
399
391
385
392
394
387
384
397
408
383
381
398
388
376
375
375
367
365
374
411
424
412
410
388
378
364
367
372
392
429
432
429
417
412
424
420
415
422
427
433
422
434
451
448
436
433
436
444
431
429
431
448
452
436
438
444
445
447
447
449
445
440
439
448
464
468
471
470
463
455
459
455
455
442
449
481
490
501
499
478
467
465
475
494
487
483
479
474
474
469
460
477
487
491
473
482
483
506
496
487
498
514
538
536
545
529
518
517
509
510
511
514
532
519
521
521
517
520
529
533
537
557
534
508
522
539
546
539
534
532
532
538
542
539
521
541
553
541
559
560
559
551
539
532
533
536
543
544
544
532
524
528
550
537
516
532
551
514
490
487
499
509
507
494
490
487
489
488
479
462
461
496
516
505
493
479
461
450
450
434
433
441
451
445
434
426
465
467
444
423
425
427
429
436
427
429
418
410
409
413
410
406
397
384
378
391
411
419
402
384
385
390
390
390
388
388
384
383
391
397
402
408
416
412
400
397
416
407
393
375
369
370
382
411
395
380
397
410
410
406
410
417
426
400
390
388
369
377
396
400
393
408
423
427
435
435
433
432
428
422
414
403
414
438
444
442
434
423
423
428
433
431
431
437
440
431
433
454
448
439
450
437
403
399
413
429
452
462
451
442
455
447
448
456
462
458
469
472
471
470
474
473
467
470
473
478
479
483
486
475
485
484
480
474
468
466
470
479
487
494
480
463
466
477
492
493
493
483
483
481
488
501
514
497
498
487
485
485
505
498
499
492
485
471
486
509
501
491
481
489
497
502
500
483
472
475
476
465
465
446
451
481
484
485
483
460
458
462
436
430
433
435
439
434
433
434
436
438
436
433
439
435
442
447
444
449
448
445
437
437
460
468
459
458
450
425
412
421
431
429
417
415
425
439
444
444
439
437
435
433
436
433
431
426
424
433
432
431
431
433
439
438
437
442
439
436
447
455
432
437
436
442
440
423
426
426
431
431
431
433
433
434
432
428
418
422
431
429
429
424
419
430
445
456
449
470
500
511
556
578
590
620
647
669
709
766
810
855
898
930
961
989
989
988
988
987
987
987
987
987
988
988
989
974
897
837
786
722
635
537
430
345
298
269
271
272
290
311
330
346
350
359
369
354
355
377
388
393
393
393
375
362
368
400
413
402
382
366
368
388
430
397
343
340
376
395
380
381
390
389
381
381
394
397
390
396
399
401
401
403
405
407
410
412
417
420
436
409
402
403
404
403
405
419
426
435
439
431
430
430
434
437
433
432
431
440
450
440
446
462
454
450
455
448
458
465
448
442
443
444
454
458
444
453
465
462
456
457
461
469
484
489
494
486
455
456
472
469
469
468
471
479
485
480
465
484
512
506
502
512
518
532
510
491
495
495
498
501
503
502
501
505
504
499
507
515
508
522
522
535
523
521
531
538
536
528
535
553
554
546
539
544
561
557
540
530
553
560
574
578
565
562
544
531
538
546
551
537
540
535
532
531
530
533
534
522
524
535
533
533
536
543
521
492
482
484
493
502
497
495
495
496
497
491
483
479
482
481
481
472
466
475
470
461
445
450
458
454
450
423
413
420
425
424
422
411
407
405
407
408
406
405
407
410
414
406
405
408
408
406
402
399
398
391
385
389
390
403
408
413
412
409
374
367
377
380
384
389
396
401
398
390
390
391
398
408
408
403
404
403
396
391
394
399
416
421
412
414
436
424
411
418
430
433
410
399
429
454
436
399
387
388
396
406
409
387
401
432
432
441
430
407
428
432
430
443
458
458
449
443
445
446
440
438
440
448
460
453
453
460
459
458
454
461
474
488
493
480
480
486
481
467
435
430
460
476
475
474
471
474
478
479
474
470
475
483
482
482
480
483
494
492
493
502
516
476
488
497
495
492
497
499
490
498
497
488
491
497
512
509
501
485
474
481
504
502
493
493
500
516
528
494
454
453
464
481
486
477
477
467
472
488
450
448
463
451
463
472
425
421
443
442
441
437
426
410
442
459
461
446
440
442
430
426
446
458
461
461
461
452
444
440
443
457
463
446
416
410
412
409
415
425
416
412
417
435
463
465
454
455
445
433
432
438
448
445
433
418
418
435
439
434
431
433
433
438
434
414
404
420
434
402
436
467
468
440
454
452
432
406
409
439
432
433
418
411
383
382
382
377
389
430
442
461
485
463
439
470
530
567
582
601
625
650
686
748
818
851
897
945
989
989
989
988
987
987
986
986
986
986
986
986
987
988
989
989
917
837
771
698
595
464
361
300
256
253
257
272
282
297
314
318
323
343
360
370
364
364
369
371
395
402
397
373
374
365
360
367
377
392
395
386
374
381
395
397
382
369
369
383
387
380
373
370
383
394
382
383
383
403
415
402
391
383
388
391
392
405
402
411
439
432
424
427
425
432
430
424
426
425
444
438
416
428
447
438
434
434
434
447
456
441
433
417
442
456
462
461
435
475
527
472
439
439
450
461
476
474
458
439
441
446
459
486
491
490
486
474
473
479
480
484
478
469
470
479
496
492
481
489
490
492
499
503
540
527
498
514
527
533
527
521
514
518
508
497
509
526
526
526
523
525
536
537
533
535
533
532
540
545
559
563
560
554
554
553
552
549
548
558
536
546
556
537
534
546
542
539
539
555
559
531
524
518
521
525
512
513
502
515
532
526
511
510
521
518
512
502
485
487
493
500
498
486
487
505
491
517
495
453
463
461
453
461
431
432
441
442
444
446
443
443
434
420
424
427
436
446
431
423
430
405
401
401
404
432
417
393
393
374
384
385
386
390
401
402
402
392
388
389
393
396
396
393
383
381
385
392
404
395
391
393
386
394
414
419
408
404
404
399
400
401
397
392
400
404
399
381
397
427
451
439
418
406
409
416
414
415
417
416
414
411
413
433
429
426
436
451
437
431
424
428
425
406
423
457
446
438
440
448
446
445
440
444
457
456
458
466
452
447
455
452
451
454
479
490
440
454
454
459
461
462
460
460
455
459
471
482
486
484
483
486
488
487
493
488
487
488
486
480
477
484
498
496
484
490
497
495
495
488
486
490
501
511
509
511
505
499
503
518
513
508
506
505
512
499
500
502
501
500
500
503
490
477
468
474
482
489
489
483
481
477
451
432
432
402
415
441
451
438
431
431
442
439
432
444
442
437
439
442
445
449
443
441
452
435
435
434
434
448
455
430
421
427
432
435
437
430
429
425
418
416
443
454
438
434
443
438
429
432
432
425
416
425
436
441
452
453
453
445
432
422
420
424
426
425
425
429
443
447
448
449
450
441
437
440
433
432
431
431
433
419
396
427
435
404
411
439
447
406
391
381
412
435
452
484
497
523
541
559
588
632
674
690
730
779
826
879
933
989
989
988
988
987
987
986
986
986
986
986
986
987
988
988
989
953
874
770
682
609
509
384
304
218
192
222
259
286
308
317
318
320
320
321
331
349
366
373
373
375
377
376
369
370
369
373
384
391
388
386
387
389
373
364
372
373
378
389
395
407
396
385
381
358
362
381
388
387
388
391
390
406
401
396
410
415
416
432
425
416
419
425
412
409
397
403
417
421
413
418
427
437
443
444
439
435
438
421
421
422
433
437
439
440
433
452
463
462
456
449
444
443
453
459
468
467
461
449
440
460
470
491
479
466
459
458
471
465
465
464
472
492
488
481
477
487
491
490
494
498
502
505
496
484
494
496
503
514
515
524
532
507
518
537
528
525
523
524
521
523
521
519
522
529
541
549
546
545
542
546
546
545
550
544
536
515
530
559
542
532
533
532
534
564
565
526
521
538
538
536
508
487
500
519
524
537
553
523
519
506
497
491
487
483
493
491
492
495
509
514
495
474
477
478
475
457
445
443
443
454
474
479
452
461
461
452
440
434
420
409
409
409
428
437
434
413
403
432
429
425
427
430
417
415
414
413
410
408
418
399
396
399
392
395
403
398
389
405
424
411
390
382
375
380
400
420
405
373
380
389
387
389
381
375
376
383
391
382
382
388
402
408
405
404
408
409
409
414
417
416
417
421
422
407
399
397
423
438
429
397
397
395
413
433
436
444
436
412
412
413
421
428
432
431
428
429
431
427
422
431
439
448
436
433
450
440
432
434
442
454
453
454
457
454
440
450
482
483
465
469
481
483
478
473
467
458
455
493
482
457
454
446
458
462
470
472
481
490
492
490
485
472
484
503
500
497
502
504
504
503
517
535
492
471
489
493
493
498
491
491
488
487
495
499
513
513
517
520
514
506
503
504
504
503
495
492
489
480
480
489
493
487
478
475
472
472
467
461
464
462
451
443
439
440
431
434
438
439
444
443
437
432
428
422
428
439
449
441
442
433
440
447
439
435
433
439
435
451
462
452
437
430
447
443
429
415
421
450
476
465
428
438
434
388
396
418
428
418
418
401
411
419
425
436
445
444
442
429
417
438
444
447
443
439
442
448
444
442
455
472
430
406
404
406
416
427
427
411
411
414
430
432
426
417
414
412
414
417
423
445
460
474
494
513
540
566
595
632
675
719
755
778
830
886
951
989
989
988
988
987
985
986
985
985
985
985
985
987
988
988
976
893
840
758
650
530
414
337
258
224
215
236
281
300
308
316
323
331
331
332
329
334
345
355
367
369
362
370
379
356
364
360
348
350
359
370
378
386
388
383
384
380
377
374
379
397
396
385
385
381
377
381
392
397
391
387
394
388
378
372
369
401
415
418
418
411
412
410
403
426
427
418
414
449
469
436
411
413
420
425
429
431
435
430
430
434
440
445
448
442
437
437
443
462
476
457
445
447
448
467
473
451
448
454
459
462
471
477
477
478
466
464
467
460
477
484
479
482
485
487
503
510
504
505
505
493
486
496
504
505
505
504
509
513
516
498
491
500
500
509
512
533
541
539
553
549
535
522
532
543
540
544
541
516
518
542
543
559
568
567
575
548
521
529
539
542
543
549
529
547
584
566
545
550
534
515
510
511
510
507
511
528
534
533
518
482
457
500
527
515
505
517
515
510
507
517
504
490
490
479
471
465
464
470
475
472
468
465
464
461
467
461
443
435
434
436
435
432
444
442
436
430
435
430
407
403
398
394
394
404
412
412
415
431
421
412
412
418
412
406
409
414
409
406
408
406
412
418
386
366
370
378
415
405
387
385
393
398
402
402
399
400
400
397
391
389
389
384
395
408
413
406
395
396
392
406
438
433
396
394
404
421
429
421
412
407
410
423
423
421
420
414
416
427
428
427
431
436
432
426
424
422
424
435
414
415
432
425
403
431
444
449
461
469
460
438
446
452
452
448
460
441
432
466
470
474
459
446
471
480
475
493
477
466
473
477
476
472
481
480
474
467
474
478
469
467
488
507
505
502
484
485
484
489
492
492
494
491
489
498
498
493
500
497
482
477
480
499
508
486
487
506
496
499
502
497
485
496
496
507
498
504
517
515
501
486
495
487
491
508
496
474
476
477
484
461
443
434
434
437
433
439
443
444
444
441
435
438
438
441
444
442
440
439
436
439
429
433
436
426
448
457
444
429
440
443
422
415
425
441
449
446
448
443
440
441
448
442
449
425
401
410
424
435
434
423
415
422
423
423
424
430
440
437
435
435
460
482
436
412
406
411
425
433
429
424
420
426
426
425
431
442
441
437
435
440
429
429
436
440
407
386
392
400
394
395
412
432
430
438
460
488
515
538
563
593
625
666
666
710
759
821
885
957
989
989
988
988
987
986
985
985
984
984
984
984
985
986
986
988
989
989
921
817
707
571
425
317
248
215
217
229
264
279
286
304
311
316
314
311
315
325
343
357
366
361
360
353
342
331
338
352
363
363
355
357
364
359
359
354
369
381
345
350
358
356
354
365
366
362
359
362
375
380
396
381
375
379
403
407
383
378
377
379
369
373
407
423
423
419
417
416
409
401
400
406
418
441
414
415
428
432
420
421
427
422
420
419
432
430
430
439
441
448
454
456
455
456
448
453
467
452
430
447
496
509
506
477
450
435
441
451
468
474
476
476
498
480
471
496
497
484
478
486
496
494
498
498
498
497
505
507
509
512
520
534
533
524
534
531
517
523
525
523
525
532
527
528
521
530
540
533
545
555
550
548
541
540
540
551
541
538
544
548
540
536
562
542
511
511
524
530
528
529
535
528
524
523
521
530
533
529
525
519
516
507
509
507
502
501
513
514
513
516
502
465
461
451
456
484
492
476
459
457
461
476
462
448
459
456
419
407
427
446
442
439
449
455
455
455
423
398
402
416
420
409
411
416
421
425
409
402
409
417
407
396
399
402
392
388
383
395
408
401
390
370
371
376
376
389
410
399
386
403
407
408
413
403
394
393
401
402
391
393
390
403
416
402
403
399
393
394
398
404
409
409
410
414
424
425
419
407
408
413
415
421
413
416
416
441
445
422
418
417
415
399
402
424
425
438
447
449
441
474
479
429
420
434
434
430
416
422
449
450
451
451
452
437
454
479
465
455
457
456
460
464
461
467
472
481
484
481
472
464
456
457
464
478
478
485
485
478
476
496
487
489
487
487
477
475
477
483
489
496
490
495
522
495
469
478
490
499
501
499
505
508
507
506
503
502
500
497
501
508
510
520
519
509
509
509
513
509
502
492
496
489
479
471
472
480
485
500
507
504
493
487
485
484
484
490
477
479
495
462
434
441
450
448
441
442
435
432
437
439
436
423
422
424
439
459
462
452
424
441
449
447
447
456
456
464
435
431
444
448
449
437
426
426
441
447
441
445
447
444
436
437
440
443
448
448
452
459
464
469
417
405
434
438
436
438
415
415
435
443
446
447
447
456
457
436
428
424
430
453
448
441
441
439
435
433
428
432
417
414
413
389
394
455
455
470
456
475
489
483
464
489
519
550
581
615
653
685
721
777
830
880
932
989
989
988
987
987
987
986
985
985
984
984
984
985
985
986
987
988
989
958
872
773
678
558
434
341
279
248
239
254
272
291
313
322
316
316
317
333
342
340
338
370
373
360
360
388
353
343
346
363
378
389
403
370
358
366
369
371
372
375
373
367
366
368
375
377
388
397
395
376
371
380
380
382
385
382
381
388
394
404
413
418
422
423
431
427
409
391
393
404
406
415
422
426
428
430
433
426
421
430
434
430
430
437
448
452
458
454
450
453
456
465
469
461
476
494
431
425
448
459
452
455
460
458
455
459
474
488
478
470
489
500
491
479
474
479
478
474
482
487
492
498
502
502
493
498
521
535
528
520
517
504
516
527
528
526
525
528
534
532
532
515
515
521
538
548
552
533
533
554
556
562
563
554
536
523
522
536
536
545
569
559
554
556
556
555
565
580
551
528
537
544
544
532
518
512
512
525
522
519
529
529
518
506
505
508
505
506
514
519
521
510
500
498
493
489
465
466
472
472
464
461
487
473
488
495
491
451
435
430
426
423
426
431
440
444
445
446
444
438
422
405
409
414
432
430
388
380
392
406
411
404
404
396
391
403
399
394
391
399
398
396
438
443
380
359
364
399
440
428
390
370
369
379
384
386
381
384
386
384
382
385
385
397
402
406
410
405
402
403
404
397
396
404
419
425
413
411
419
424
418
415
413
410
412
408
418
422
419
419
417
416
429
439
443
448
437
429
430
431
431
432
435
440
453
457
448
443
441
441
440
443
449
447
444
457
474
468
463
475
469
466
466
451
452
468
474
474
476
473
478
491
476
494
490
462
469
476
456
449
456
467
476
481
491
494
493
493
499
496
504
529
529
533
485
469
458
479
484
470
463
493
496
495
500
490
493
515
523
523
511
499
499
501
501
507
514
510
500
489
491
492
471
476
489
481
472
476
501
497
492
489
455
455
454
452
454
459
446
441
435
423
436
456
433
428
440
446
441
438
432
445
445
451
445
439
439
439
445
446
429
424
457
472
460
443
455
459
436
434
421
436
450
445
438
449
443
427
423
424
430
431
431
434
438
441
442
440
448
447
432
425
434
439
439
424
420
444
440
428
442
444
430
435
444
442
448
459
457
446
437
442
442
438
436
429
431
434
433
431
430
415
415
426
440
453
458
510
563
591
608
639
668
686
695
751
811
858
905
954
990
989
989
988
988
987
987
986
986
986
985
986
987
988
988
959
901
850
792
715
626
528
416
336
285
264
264
260
271
288
294
319
319
330
325
319
316
316
331
348
357
376
381
368
365
378
386
396
396
401
401
387
380
386
381
371
379
383
382
385
378
377
381
383
392
389
389
395
392
393
400
426
415
388
388
394
401
414
396
391
404
422
431
427
427
427
426
427
425
424
425
428
428
436
437
440
449
451
440
432
444
440
433
434
440
437
439
448
472
487
487
473
477
471
472
475
478
482
472
442
443
467
467
476
486
485
486
481
481
491
501
488
484
486
501
501
488
495
505
501
498
505
504
498
501
510
511
512
513
508
508
521
530
533
541
531
531
541
541
544
546
549
561
560
542
551
546
525
543
535
557
551
542
551
554
559
581
596
552
550
570
578
578
552
551
557
557
554
548
535
524
527
537
542
535
526
529
533
547
544
535
537
529
520
517
505
499
500
509
512
519
513
513
508
504
497
485
480
484
490
475
465
464
460
462
456
451
448
452
457
468
440
416
418
433
429
419
409
411
411
414
414
416
417
418
422
421
412
395
387
395
379
366
383
393
392
392
388
386
391
396
393
396
395
394
400
399
400
400
407
410
388
388
378
384
393
391
396
396
386
404
420
404
386
406
418
413
376
375
389
408
396
402
403
388
398
404
404
405
406
407
411
411
416
418
421
421
425
423
421
425
429
435
422
402
414
424
453
454
444
439
428
419
422
435
452
451
444
466
463
450
448
440
427
446
459
466
483
470
463
468
465
462
459
452
455
465
470
480
483
480
492
494
497
500
498
493
477
490
488
483
502
502
505
495
494
493
500
485
480
485
494
499
502
510
484
475
506
490
463
471
490
507
510
502
507
516
493
489
489
487
492
492
502
503
505
504
494
499
505
523
474
454
468
476
474
468
462
458
452
444
446
466
462
418
405
441
457
457
452
444
442
442
443
442
444
447
442
433
436
444
452
450
447
443
444
446
452
454
448
446
446
432
426
428
431
436
435
441
447
446
444
444
446
435
424
435
442
444
448
456
452
439
443
449
431
406
399
411
415
428
434
441
453
462
470
457
420
434
451
449
457
457
484
468
436
432
431
419
428
426
433
462
425
406
411
424
425
453
470
450
464
484
519
558
585
600
621
661
699
725
760
818
871
925
966
989
989
988
988
987
987
986
986
986
986
986
987
988
989
977
920
859
787
706
613
500
373
309
282
273
272
272
293
298
297
288
293
307
326
335
334
329
338
349
356
357
361
375
377
378
378
377
380
387
385
377
379
374
374
402
393
393
373
365
375
383
377
385
392
382
375
378
384
385
388
387
392
397
410
419
412
414
418
415
408
408
409
413
408
425
429
411
413
431
434
434
434
456
433
411
427
440
438
437
438
441
440
443
441
460
466
457
456
455
446
454
464
467
464
460
462
462
465
469
470
467
468
468
473
482
482
483
486
491
488
482
488
491
484
479
474
489
485
471
493
511
514
511
515
519
513
513
511
515
519
521
518
521
520
515
511
514
519
525
527
530
531
526
535
537
535
537
545
546
543
537
535
542
551
554
547
544
544
546
534
546
565
561
555
549
543
539
535
537
538
543
535
527
524
525
522
526
531
535
529
513
513
512
510
506
505
505
508
524
503
487
483
484
487
486
482
468
471
484
472
453
451
458
465
453
442
431
425
433
433
416
408
412
421
438
439
439
426
414
409
406
405
413
412
408
402
397
404
404
399
403
400
386
399
403
409
434
397
364
372
381
381
394
387
381
380
383
385
393
403
400
382
379
382
392
398
383
386
408
395
382
396
395
380
395
415
415
406
402
407
413
412
411
413
418
422
422
432
416
403
415
422
416
409
410
413
414
415
416
420
429
426
425
429
433
438
446
450
431
421
426
446
439
416
417
434
434
441
425
408
436
446
449
464
465
464
466
465
468
465
460
470
493
501
481
466
466
468
487
479
459
453
458
458
473
478
479
483
481
475
479
472
471
486
501
502
503
497
492
483
480
488
490
485
484
487
495
507
502
494
499
509
500
492
507
506
506
495
494
493
490
492
502
511
509
502
499
497
495
492
479
472
487
488
480
472
471
471
463
454
448
443
444
443
440
439
439
433
430
429
440
446
451
428
420
448
483
447
401
414
433
436
435
447
453
444
433
430
438
444
453
444
427
428
436
440
436
437
439
440
437
435
431
425
429
434
437
441
454
440
427
428
430
446
452
434
411
406
420
422
417
426
442
439
421
414
414
440
441
437
441
442
432
432
435
444
439
431
425
432
441
416
419
426
424
408
403
428
462
476
487
515
533
521
547
584
584
618
659
699
727
770
806
859
916
977
989
989
988
987
987
986
986
985
985
985
985
986
987
988
988
989
920
827
747
659
548
443
345
285
256
255
260
280
295
311
319
320
323
336
342
346
366
367
357
362
361
339
320
338
357
345
339
341
344
353
353
377
374
361
356
356
365
370
374
371
366
363
358
366
370
372
378
381
380
377
377
383
383
393
397
379
384
401
393
384
384
394
400
400
393
394
403
409
392
387
419
428
429
430
430
426
421
422
419
426
432
437
446
445
442
449
451
446
451
447
446
460
481
457
441
448
463
440
434
437
439
449
474
488
470
458
468
460
460
465
472
478
483
497
500
477
468
478
481
478
478
497
494
506
503
491
490
488
493
520
523
513
509
509
514
514
515
515
524
535
523
520
525
521
523
532
533
531
539
543
543
543
544
544
544
544
545
531
528
517
513
521
528
538
545
564
560
540
545
538
541
536
529
529
526
520
509
496
497
515
519
524
533
525
512
504
497
500
498
489
482
487
493
478
470
467
463
456
455
460
452
455
459
415
417
434
442
442
435
427
427
411
392
387
417
430
425
425
422
413
407
400
398
402
423
460
459
407
355
345
371
386
391
399
393
394
403
391
376
378
378
386
390
388
384
391
397
395
386
383
383
376
387
393
396
392
378
397
424
416
400
389
393
401
404
409
412
416
417
407
404
406
410
411
412
419
418
416
418
426
427
413
413
413
416
432
436
421
410
411
412
418
420
426
441
445
440
432
427
427
427
422
421
423
426
428
450
450
446
446
438
429
436
447
448
448
461
465
457
457
446
455
443
432
451
472
496
492
470
458
458
467
477
474
463
464
471
476
485
502
502
484
476
470
468
477
486
481
484
479
473
479
489
494
492
478
475
479
483
483
485
483
471
471
465
496
519
517
514
512
512
514
517
504
489
481
494
500
498
495
494
495
495
495
493
488
485
485
484
476
476
472
470
459
461
475
469
452
438
433
449
450
448
455
456
449
453
438
423
436
431
429
430
426
430
428
444
451
456
441
441
429
429
432
436
445
443
427
420
424
431
434
439
443
446
441
439
434
422
418
428
424
420
433
443
444
442
440
429
423
427
434
435
439
445
446
460
432
421
423
419
430
434
429
435
428
428
429
430
436
440
442
441
437
431
419
416
414
408
396
396
391
392
398
406
428
462
494
498
508
538
566
584
604
633
668
708
747
791
840
902
956
989
989
988
988
987
986
986
985
985
985
984
984
985
985
986
987
988
989
930
856
796
677
536
417
340
284
252
248
269
291
300
294
302
318
322
320
319
331
347
354
351
345
345
360
343
334
341
348
354
362
361
355
354
351
349
343
341
349
364
368
372
372
369
365
365
366
368
368
368
377
367
362
372
375
377
383
377
372
379
381
390
407
399
396
407
419
426
426
424
426
421
405
403
410
415
421
424
426
426
424
418
417
414
415
422
440
441
434
431
437
447
447
450
443
442
449
448
441
439
468
477
474
465
472
484
495
474
469
425
437
472
479
475
472
472
473
476
480
488
491
499
499
495
498
512
510
490
494
498
495
502
492
504
518
510
514
517
527
527
534
523
495
504
525
533
542
555
550
538
537
537
538
543
549
552
550
552
563
558
540
549
540
535
536
537
529
513
516
516
532
536
536
539
536
533
540
552
515
503
515
515
506
506
507
506
520
514
501
495
492
500
511
482
470
469
467
460
456
469
481
475
461
455
453
450
452
453
449
452
442
434
428
429
433
432
433
430
415
413
407
434
415
388
393
389
380
380
376
376
399
413
419
403
389
392
400
402
402
400
408
404
392
385
383
384
384
381
381
380
386
391
398
401
404
398
398
404
402
402
421
441
420
379
359
368
375
387
402
405
401
395
401
404
404
405
409
411
408
408
415
422
420
413
410
417
438
439
433
423
407
409
418
426
436
439
445
441
433
427
426
446
465
425
422
434
441
444
447
447
442
445
443
449
428
418
440
452
449
449
451
465
467
459
450
452
455
453
461
461
464
469
467
468
472
476
479
484
474
466
465
477
474
478
488
490
490
490
495
495
500
484
477
472
469
478
484
483
488
492
492
487
468
485
488
487
490
489
489
496
500
508
513
511
511
510
508
507
511
510
530
510
488
494
499
497
490
488
488
494
498
492
486
487
489
480
463
473
478
455
442
436
438
452
460
461
453
448
446
446
451
448
438
426
425
440
452
456
463
467
447
429
428
444
447
442
435
431
432
436
439
440
435
441
448
445
445
432
430
430
434
436
435
412
403
454
455
446
429
422
427
435
438
433
435
439
438
437
435
432
437
436
439
437
445
439
433
431
438
435
417
429
447
435
440
441
440
440
434
430
431
419
420
417
406
400
414
414
408
431
456
476
517
504
491
504
543
575
602
602
615
674
717
750
794
848
915
978
989
989
988
987
987
986
985
985
985
985
985
985
986
987
988
989
958
870
780
699
600
600
476
380
307
243
228
251
276
293
305
305
299
304
323
336
346
331
344
365
360
339
334
365
368
368
383
363
336
341
346
348
342
343
350
353
351
349
355
364
373
377
373
373
372
373
377
382
378
379
384
393
403
397
397
379
380
392
375
377
388
388
395
403
406
414
422
420
425
422
408
409
398
379
399
435
451
441
435
447
452
431
415
418
424
425
427
438
444
443
445
445
452
453
449
446
450
456
454
452
449
456
464
464
460
467
474
502
498
484
454
448
458
461
473
483
490
476
480
489
478
479
496
510
513
510
505
505
506
506
497
504
524
532
527
521
516
514
511
517
536
546
541
537
537
526
521
515
516
526
535
535
539
544
543
532
519
532
539
550
540
537
539
538
538
532
534
528
538
546
534
525
528
529
511
516
533
541
541
539
555
555
549
513
491
493
494
485
473
466
466
471
474
472
466
457
448
451
474
481
481
470
448
438
439
451
459
461
465
462
430
406
401
409
406
408
409
405
403
404
412
411
419
416
403
396
391
398
403
410
410
398
389
395
396
396
389
376
393
392
391
391
387
379
379
381
374
375
387
404
405
408
418
380
381
391
396
391
385
393
395
395
387
373
405
418
411
405
403
400
401
401
403
402
403
417
424
423
449
412
384
386
409
413
404
403
419
420
417
419
425
425
420
420
430
431
396
402
421
425
439
457
432
432
437
436
449
462
451
431
430
432
437
448
448
442
440
438
440
442
453
462
467
466
461
459
462
456
441
457
467
467
473
476
475
471
470
476
478
487
493
484
457
461
478
488
494
490
483
478
491
492
482
481
489
489
489
498
507
509
508
508
496
483
483
478
468
482
500
500
488
481
486
485
481
475
479
502
522
503
501
513
523
516
500
488
484
489
500
495
485
491
483
477
482
475
498
492
485
480
472
457
463
449
432
451
440
432
434
432
427
433
441
451
453
438
437
438
434
429
432
432
439
443
437
430
427
433
439
448
447
458
448
458
448
438
439
424
415
419
417
419
418
431
435
431
427
427
428
438
445
445
439
435
431
431
437
439
440
445
441
434
440
430
425
431
429
423
419
430
442
445
441
446
439
451
465
440
437
445
431
424
423
428
438
416
387
385
389
407
421
434
451
494
513
516
527
563
580
611
647
679
710
751
813
866
904
967
989
988
988
988
987
987
985
985
985
985
984
984
985
986
987
988
989
981
892
784
685
575
450
347
284
236
224
246
272
295
310
309
314
314
318
312
318
330
332
353
372
362
355
362
360
346
351
347
350
354
351
354
362
362
362
367
358
345
349
356
358
360
370
383
381
376
360
353
351
359
386
404
368
368
383
380
382
396
400
390
395
414
405
407
415
411
406
408
411
406
400
395
414
414
423
422
433
452
465
445
443
442
421
402
397
413
409
412
430
430
433
437
446
454
461
464
457
453
451
459
467
468
464
464
459
463
472
473
467
472
478
481
482
490
486
472
475
480
479
473
475
489
487
489
493
501
506
503
495
497
512
530
539
521
509
527
538
516
501
496
505
519
522
530
537
531
528
540
542
543
539
542
541
535
533
530
540
525
518
516
530
553
541
541
528
522
546
571
563
549
540
540
543
539
531
524
518
513
516
519
516
527
523
518
522
520
514
489
488
487
486
485
488
488
482
479
475
469
456
456
467
470
457
442
436
441
445
445
450
443
436
427
428
429
427
424
425
425
424
422
413
408
415
416
411
404
401
408
416
385
377
385
386
395
393
383
380
383
390
392
395
396
397
389
386
385
387
393
390
396
389
381
393
393
413
382
359
392
422
431
401
379
385
407
398
381
383
392
402
403
403
397
400
407
407
406
406
411
421
418
425
428
412
412
379
377
401
406
407
417
422
426
431
428
430
434
438
438
440
442
437
437
442
442
436
440
442
439
438
437
427
427
437
450
461
465
438
421
442
460
447
444
453
458
461
463
465
454
441
450
481
485
483
482
500
478
467
469
461
446
455
477
480
480
477
473
477
483
489
491
490
488
478
471
478
488
495
493
490
491
492
495
489
487
491
494
488
488
492
501
512
522
522
522
522
506
493
477
482
491
495
503
508
497
495
505
501
491
504
514
494
480
491
493
470
461
465
474
480
489
475
473
470
449
425
422
423
427
435
445
471
455
444
426
397
428
457
460
450
441
435
437
439
433
430
433
452
465
456
435
430
435
438
438
438
432
439
434
432
436
437
433
430
428
427
427
430
435
439
441
431
425
431
433
425
416
427
433
432
429
448
450
438
438
432
429
429
436
443
440
431
437
439
426
432
434
432
436
440
437
433
429
424
422
418
410
407
402
398
405
409
411
423
447
473
484
500
526
575
578
587
635
660
692
728
754
807
873
936
989
989
988
988
987
986
986
985
985
985
984
985
986
987
987
987
988
989
927
845
754
664
551
409
302
248
227
227
243
276
290
291
291
308
328
337
344
338
344
346
338
337
364
357
357
342
354
361
362
358
372
392
369
353
355
354
351
355
360
363
372
374
370
367
366
370
378
372
376
374
381
378
370
370
380
385
383
394
408
397
391
397
395
391
399
412
432
440
433
424
390
387
397
403
409
420
415
410
417
425
429
442
441
434
434
433
434
438
449
453
456
439
432
433
433
452
447
455
466
480
474
451
450
451
450
454
468
468
463
458
464
467
470
478
478
485
492
506
516
485
482
494
502
503
511
521
497
492
511
506
506
496
496
501
510
511
509
520
527
530
534
532
535
540
542
549
546
541
535
539
547
542
544
554
553
534
531
550
557
553
554
554
556
565
549
495
503
535
536
530
536
542
537
543
543
542
531
535
533
527
528
521
497
499
507
510
505
500
496
492
491
490
481
472
467
470
474
483
482
486
481
491
466
439
439
429
429
432
422
412
417
424
425
412
406
431
438
428
419
408
411
418
410
408
418
425
414
400
393
396
394
395
394
380
377
381
395
396
389
390
393
394
393
384
388
384
373
381
388
384
386
383
375
363
375
405
413
406
400
400
416
409
387
377
377
383
399
404
402
398
399
416
415
408
406
409
413
411
401
408
419
414
412
411
414
404
385
410
426
425
439
448
422
407
407
414
421
437
442
432
426
437
440
436
449
449
430
421
428
435
439
446
467
452
432
435
425
414
422
434
446
444
439
438
441
437
447
471
473
475
471
460
466
490
464
450
454
465
469
476
473
464
464
484
490
482
476
481
483
480
478
478
478
478
478
486
490
505
507
493
478
481
492
506
515
508
497
495
497
507
506
499
500
495
498
504
502
503
510
507
504
500
496
505
505
524
515
514
515
508
507
507
488
476
478
485
478
470
470
474
476
477
467
461
452
440
423
420
449
462
465
464
457
452
454
450
439
437
420
414
433
445
453
457
461
474
416
411
441
435
430
432
437
449
458
450
447
435
435
434
466
468
420
415
415
414
409
416
437
450
459
459
436
446
446
440
440
444
438
436
441
440
433
428
428
427
429
442
445
438
435
432
435
438
438
434
441
436
436
445
434
429
435
438
437
431
428
431
424
417
412
414
420
427
430
434
445
461
472
480
506
545
556
581
633
678
713
742
771
806
864
925
972
990
988
987
987
987
986
986
986
985
985
986
986
987
987
989
971
892
807
731
683
555
555
419
330
269
253
252
251
250
272
300
311
313
337
327
296
295
312
333
347
358
348
345
358
366
371
369
364
367
378
378
378
373
366
365
374
375
379
375
376
377
376
374
381
382
391
401
397
375
370
373
381
382
406
422
420
414
401
395
395
413
412
415
418
415
409
410
406
401
402
414
419
416
418
415
422
439
438
439
448
458
448
437
435
433
435
436
443
442
445
446
446
451
458
464
465
461
478
476
467
464
461
458
458
460
469
482
494
497
491
491
493
497
497
498
493
488
485
486
482
485
485
530
534
510
513
519
530
522
520
526
542
539
537
532
518
523
519
525
537
529
534
543
554
535
520
536
533
536
547
558
559
557
556
557
564
561
565
576
576
561
543
538
545
547
548
551
560
566
557
547
541
533
536
536
534
547
577
548
520
506
506
509
516
519
512
508
503
498
499
495
488
483
482
485
493
486
461
473
487
484
482
480
470
460
448
442
446
448
457
457
457
449
439
421
421
405
392
385
392
437
436
402
399
403
401
398
394
396
407
411
397
400
399
390
386
393
399
393
395
377
374
378
377
388
387
389
384
372
380
387
392
394
407
415
412
397
383
374
391
381
371
374
389
412
414
389
380
398
402
391
391
399
400
404
412
416
409
412
415
401
403
398
405
417
440
427
423
424
421
427
422
420
419
414
418
423
428
424
400
407
407
424
434
441
429
435
438
435
438
451
463
465
453
451
451
454
454
452
447
446
456
464
465
462
459
461
462
463
475
471
469
475
469
446
443
458
466
474
484
492
484
481
480
480
477
477
467
470
479
488
495
506
526
509
483
475
489
481
458
461
461
478
487
485
487
498
503
501
499
503
536
496
488
510
519
497
489
490
490
491
504
505
501
502
506
509
507
477
464
480
480
502
486
461
470
465
467
477
480
474
472
461
449
442
435
433
429
430
442
466
473
468
454
438
428
428
429
436
450
446
441
439
443
450
446
436
431
440
449
451
448
450
444
442
446
433
439
442
430
431
438
436
429
422
413
456
466
442
449
452
452
451
444
436
428
422
427
427
425
425
439
447
446
438
438
442
435
437
436
440
440
446
451
450
440
437
433
438
439
434
434
436
423
410
412
418
426
418
419
438
453
463
483
505
521
537
559
582
610
646
681
703
737
779
832
878
934
971
989
989
988
988
987
987
986
986
986
986
987
988
989
990
945
886
832
771
695
613
509
412
325
266
243
252
273
298
321
325
322
316
316
316
333
344
339
332
330
339
359
369
379
396
394
393
387
377
372
368
360
367
384
378
380
382
364
370
390
385
347
344
344
370
402
418
411
398
387
384
389
394
402
400
394
399
403
407
410
415
421
420
423
424
409
404
407
407
440
445
439
438
444
437
432
429
430
436
443
446
442
444
437
449
456
436
437
464
474
471
465
463
467
472
479
478
480
472
449
451
464
477
477
480
497
483
483
469
466
493
510
515
483
474
487
495
509
506
489
478
482
499
508
502
503
509
512
514
514
521
513
521
521
532
536
541
544
540
530
534
535
537
540
541
542
545
548
552
552
548
552
555
555
548
528
541
572
567
568
561
559
559
561
564
559
559
561
558
553
543
540
543
546
539
538
544
544
539
532
531
527
521
523
522
526
525
517
522
522
514
506
503
503
509
507
473
470
462
453
464
472
459
454
450
440
437
454
483
462
432
414
412
416
402
420
431
421
417
411
412
411
403
403
405
406
400
397
392
389
388
390
396
409
393
384
393
393
381
373
377
385
375
380
387
374
379
370
381
398
388
381
383
392
392
391
390
395
392
389
390
397
393
377
375
373
371
375
391
397
397
395
399
403
404
395
396
389
393
426
434
433
429
429
418
415
420
415
408
414
416
411
412
411
419
415
416
419
423
424
429
430
420
417
421
423
427
430
429
433
432
432
436
436
437
443
452
449
443
443
445
454
460
455
436
432
448
474
491
467
454
451
457
476
487
470
469
477
473
472
476
470
463
465
476
485
471
463
462
467
492
488
461
476
490
493
494
493
488
483
481
480
479
489
498
503
516
503
482
479
481
486
490
490
489
481
485
504
519
498
491
484
486
494
493
491
488
494
498
495
489
488
487
481
472
477
495
490
475
470
468
472
464
464
435
421
436
429
413
426
430
438
442
438
438
454
451
423
429
445
433
427
432
438
447
452
446
437
441
458
429
397
421
430
437
440
428
430
432
433
434
435
437
440
436
429
438
438
423
427
445
431
424
428
427
426
426
434
433
434
431
426
426
426
427
421
417
433
440
437
434
435
435
441
438
431
432
436
441
438
420
398
406
421
417
427
435
423
414
426
450
469
483
483
503
526
555
543
553
587
621
658
693
728
772
827
874
921
972
989
989
988
988
987
986
986
986
985
985
985
986
987
988
989
955
881
788
726
645
551
394
316
284
251
231
251
272
292
305
315
321
323
327
331
340
349
356
359
357
355
356
353
344
344
336
335
359
369
368
369
373
369
364
363
361
360
363
364
362
357
356
362
368
374
375
392
416
390
373
363
364
379
390
390
400
392
376
374
387
392
394
396
401
394
385
389
399
406
418
426
422
417
417
411
413
429
429
433
442
454
453
454
450
439
428
423
431
427
431
449
455
438
450
445
451
455
465
463
439
445
460
456
438
460
475
479
474
475
475
478
480
495
511
511
512
475
459
468
475
492
514
512
482
479
483
492
491
495
501
507
510
512
516
518
512
501
508
520
528
531
526
529
533
533
535
550
567
554
539
543
534
523
525
535
532
537
549
547
547
544
547
555
547
537
533
526
520
524
542
550
547
543
540
539
542
541
535
515
503
500
500
507
512
507
511
520
483
472
468
482
490
486
481
483
481
476
470
465
458
463
467
454
440
440
437
446
448
445
430
433
429
421
413
412
410
406
403
403
405
400
399
401
399
405
397
390
381
380
388
395
397
392
386
386
379
378
379
384
371
359
376
392
393
386
392
406
391
356
366
385
394
400
392
387
386
396
427
425
388
379
399
391
378
379
391
404
418
400
385
392
403
399
383
384
403
415
395
393
388
395
407
413
418
414
414
418
415
417
426
430
439
414
407
407
417
422
435
444
437
430
429
427
420
410
407
413
417
428
437
438
441
451
451
445
436
431
433
436
446
435
445
458
460
460
461
449
446
446
450
454
465
471
464
459
446
438
456
466
471
473
473
479
486
487
483
477
479
485
493
510
477
457
470
480
481
479
483
510
507
503
507
467
461
470
475
467
465
472
480
484
481
479
486
490
489
495
499
502
504
506
505
499
495
495
499
501
497
498
499
505
505
498
489
485
488
484
478
481
487
484
480
467
459
465
474
483
469
443
417
428
452
450
446
446
449
460
448
431
431
440
443
438
432
431
433
446
446
445
454
467
453
431
424
419
430
431
425
428
434
440
441
441
437
442
432
435
443
447
443
441
449
441
435
430
433
431
432
426
419
418
423
437
448
458
455
449
447
432
434
436
454
479
432
432
407
426
431
430
427
431
436
432
417
417
427
431
434
425
409
400
397
397
400
413
427
448
475
478
500
512
537
566
583
583
606
634
667
708
762
816
860
909
960
989
989
988
987
987
986
986
985
985
985
984
985
985
986
987
988
989
942
849
762
666
542
418
317
261
235
238
259
282
300
312
319
333
341
339
341
340
344
346
349
351
336
323
317
322
338
357
349
349
352
352
348
345
344
345
334
334
358
357
356
356
352
366
362
355
357
365
376
378
386
376
382
380
377
379
384
388
390
397
390
390
387
391
396
415
434
394
378
412
429
418
416
402
383
386
400
407
414
424
422
422
414
416
422
430
445
441
433
429
416
418
426
440
448
447
450
452
453
448
460
458
438
440
447
455
465
466
458
456
467
474
475
475
476
477
477
467
461
473
478
478
485
488
486
486
495
511
515
514
514
513
518
516
520
505
501
501
504
509
510
513
519
522
521
525
532
548
551
543
533
533
539
539
542
545
547
554
536
541
544
543
552
549
540
548
550
550
556
552
563
551
527
522
530
531
528
525
528
531
531
543
534
519
519
498
493
513
490
482
485
478
489
504
480
469
476
480
443
437
444
447
444
450
460
444
440
438
435
433
426
426
415
417
433
423
405
402
406
407
408
408
398
391
391
391
394
393
389
392
391
384
382
379
379
383
378
384
375
371
378
378
388
394
388
378
382
386
385
387
395
399
382
375
377
383
392
389
386
390
394
398
407
396
389
383
387
387
378
382
397
391
405
395
374
363
395
426
443
435
430
421
420
441
415
387
393
403
408
411
422
431
427
434
436
424
431
432
423
418
418
418
419
418
421
433
429
439
434
421
437
454
448
439
439
443
438
426
428
431
435
437
452
450
438
432
437
444
445
447
443
443
448
449
447
444
454
469
469
470
471
450
450
453
464
463
443
459
466
465
462
464
465
467
474
485
494
496
491
476
463
466
468
471
472
475
475
473
486
498
488
477
484
489
487
491
500
503
504
521
498
474
488
468
470
478
493
510
509
483
485
485
498
511
514
510
510
503
502
503
502
494
490
497
493
491
512
501
487
494
490
489
499
509
510
503
505
484
468
459
456
456
462
458
471
447
428
434
438
439
436
431
437
438
435
433
440
441
441
443
449
441
438
442
439
434
430
433
442
445
444
444
437
430
436
446
444
446
439
427
429
436
439
436
434
432
436
435
433
442
447
432
421
426
432
436
434
430
417
426
428
428
419
412
407
401
415
456
467
463
466
470
469
474
458
434
439
423
424
415
426
421
408
409
413
409
403
401
402
410
428
428
451
472
488
497
522
544
570
600
633
668
702
740
782
832
886
936
987
989
988
988
987
987
986
986
985
985
984
984
985
986
986
987
988
989
908
804
703
590
461
358
294
252
233
250
274
293
300
301
308
314
316
323
336
343
338
336
337
341
345
345
343
339
342
347
355
358
363
349
340
343
346
351
357
352
351
353
349
341
337
341
359
374
379
380
376
373
376
373
374
374
374
367
363
377
381
379
383
383
379
387
395
396
408
418
411
416
394
383
405
405
404
421
437
437
418
411
421
418
416
416
424
433
435
436
431
426
435
444
448
446
449
443
439
448
457
435
455
480
468
458
454
464
466
466
473
470
464
450
463
463
485
485
484
487
485
491
485
487
499
505
498
504
486
481
491
499
505
510
511
509
510
512
521
526
526
526
528
529
521
521
518
524
534
540
535
525
523
543
546
530
541
549
545
545
543
539
533
529
551
561
565
548
536
543
548
544
540
541
543
542
535
533
554
546
533
520
504
511
517
511
499
498
500
503
499
499
526
538
525
497
476
476
470
470
470
466
458
451
446
446
448
427
430
435
430
435
446
439
425
421
424
410
408
416
412
409
407
403
406
406
403
408
403
394
396
399
390
396
394
394
381
378
389
401
400
396
406
400
379
365
367
383
387
375
364
365
376
380
377
382
384
380
387
393
396
400
396
392
385
378
389
401
404
400
401
409
400
404
406
405
410
418
422
396
392
403
410
405
397
404
412
413
416
427
419
424
425
409
413
413
424
433
420
415
424
425
421
426
433
441
435
425
422
427
428
431
435
433
428
420
417
416
441
449
443
455
448
449
437
437
440
430
405
427
440
445
450
458
455
453
453
447
448
465
457
440
433
441
455
460
463
457
448
444
450
455
455
462
467
465
469
494
522
493
444
439
450
461
463
465
470
473
481
482
482
481
478
477
477
476
475
479
486
489
488
489
493
485
480
480
477
475
483
488
486
485
487
493
507
526
502
485
479
485
499
500
495
503
500
501
495
491
502
503
506
525
504
481
482
482
487
497
517
517
498
492
484
478
484
485
480
482
481
482
483
489
476
478
468
456
447
432
424
427
439
428
426
454
462
457
452
449
441
437
442
437
427
430
439
446
445
442
444
448
455
455
449
442
441
443
443
444
447
441
435
436
431
426
434
434
438
450
464
442
426
426
436
440
442
442
442
439
438
447
448
442
445
446
431
423
450
438
424
424
426
432
443
454
443
443
439
434
437
435
431
435
458
455
422
393
393
402
410
407
411
417
413
429
432
439
458
477
496
513
526
556
611
637
665
699
737
788
848
907
977
989
988
988
987
987
986
986
985
985
985
985
985
985
986
987
987
989
979
893
801
701
576
443
336
336
272
238
236
256
278
297
304
311
321
317
315
339
338
340
340
339
329
334
350
360
366
362
363
373
352
350
349
340
336
336
333
334
346
355
342
335
324
327
321
352
368
372
381
366
361
367
371
377
378
379
380
380
383
384
396
400
373
375
386
392
397
403
402
394
391
391
399
421
429
427
433
421
412
412
412
410
410
417
424
431
428
425
423
430
441
446
436
444
444
444
451
435
424
423
435
453
461
456
455
464
458
446
455
476
474
472
475
487
484
488
491
492
492
499
487
482
493
483
477
477
481
477
477
489
501
518
527
527
513
504
511
507
524
541
518
515
518
519
521
530
530
540
543
543
542
562
566
546
543
548
566
548
524
517
529
534
527
531
536
540
545
546
547
541
533
537
537
534
533
529
532
535
536
528
527
525
531
530
522
522
523
521
504
490
491
484
518
504
502
503
491
473
476
484
458
456
447
444
440
438
441
449
447
442
441
434
434
441
427
427
413
415
420
419
415
414
394
382
379
382
385
409
416
400
397
395
391
390
389
380
376
373
377
389
404
423
405
396
403
405
372
357
369
381
402
393
371
367
372
375
380
383
387
391
390
396
391
394
391
390
389
393
389
380
407
420
415
401
384
384
376
383
396
406
413
410
410
429
424
414
406
397
394
402
408
413
419
422
428
433
424
409
412
419
422
424
424
428
451
451
446
428
429
436
438
427
398
405
430
433
450
454
438
421
443
451
444
439
452
463
438
441
440
434
447
443
444
454
445
439
444
441
434
448
458
438
434
429
431
446
458
451
439
441
442
449
461
449
445
457
479
464
460
458
459
463
470
471
472
472
484
480
450
432
439
449
449
459
475
486
484
480
483
484
485
480
480
482
478
486
488
471
458
469
479
489
499
493
462
462
475
490
495
482
483
486
492
497
495
496
496
496
507
501
493
497
503
507
502
492
488
484
499
519
506
512
514
517
498
505
511
508
507
501
499
503
514
510
504
509
497
476
464
462
454
454
454
455
447
423
432
456
461
453
460
441
425
424
415
415
414
467
462
433
426
416
430
440
446
451
456
455
448
430
425
435
448
445
449
439
423
421
439
441
440
446
446
440
435
435
437
431
428
431
430
423
424
432
434
438
434
429
426
430
439
451
449
445
444
450
430
424
427
432
436
434
433
435
441
443
439
441
442
435
434
435
435
436
438
440
434
415
405
392
385
384
392
429
423
411
415
440
475
504
526
543
568
595
638
638
684
716
741
785
835
890
944
989
988
988
987
987
986
985
985
984
984
984
984
984
985
986
987
988
989
899
794
698
586
586
443
333
276
229
214
233
246
265
289
321
341
326
293
293
306
323
353
349
344
347
349
343
340
358
344
338
336
322
328
347
353
354
354
355
358
357
349
339
364
366
357
354
342
339
348
354
354
356
360
367
375
381
381
385
388
389
390
390
386
386
381
388
400
406
403
396
398
401
404
401
405
420
418
416
412
407
408
410
413
420
420
424
421
422
427
433
443
439
423
423
415
420
434
447
453
465
464
470
488
471
452
453
468
480
473
450
454
465
472
476
470
469
482
487
493
489
464
472
488
495
495
496
497
500
513
506
483
488
500
510
507
510
511
501
495
514
529
530
523
532
555
534
545
565
563
522
503
504
516
516
520
523
529
537
541
543
548
560
561
569
559
555
571
558
534
507
497
518
534
542
550
546
540
537
541
539
531
524
527
527
529
509
489
511
520
513
497
494
490
481
467
472
483
493
487
481
480
474
478
481
461
452
451
447
435
426
425
426
429
413
413
416
416
410
421
433
414
397
396
403
409
399
392
381
384
393
394
395
405
394
372
372
374
380
391
390
386
373
354
354
354
369
389
389
378
369
366
366
375
376
377
380
390
389
390
390
387
389
385
386
386
383
379
380
385
390
393
398
401
401
406
414
399
408
398
391
387
386
395
402
401
399
402
401
400
403
414
424
419
422
430
427
422
417
420
429
409
413
430
422
421
423
425
429
420
419
433
434
415
417
425
431
430
438
426
409
412
430
442
450
452
452
446
434
426
433
445
451
456
456
476
459
439
394
410
439
441
430
451
454
447
447
452
450
448
453
460
462
464
467
450
445
442
448
450
454
457
458
443
443
440
443
455
463
463
468
466
477
481
462
451
448
446
449
457
448
447
462
458
471
482
489
491
489
497
483
464
445
457
473
481
489
487
482
479
473
467
471
478
488
502
507
513
498
490
515
512
477
479
478
466
474
479
487
497
501
496
502
508
508
508
519
548
523
481
483
483
483
489
498
506
502
504
503
499
486
481
476
478
475
484
476
461
467
470
456
448
446
445
445
442
443
445
450
447
438
430
420
409
433
433
427
417
432
443
446
455
450
442
445
441
440
441
443
442
448
455
449
454
444
424
420
440
444
447
458
450
428
427
430
441
442
437
429
425
429
426
421
429
432
423
418
417
424
432
439
441
437
436
436
432
425
427
440
466
447
444
445
444
452
471
469
441
420
411
414
427
430
436
418
414
417
413
410
404
387
379
392
421
421
448
463
485
506
526
563
586
609
646
681
716
753
801
852
909
965
989
989
988
987
987
986
985
985
985
985
985
985
985
986
987
988
989
961
841
739
652
532
412
316
257
240
239
260
287
291
298
307
315
317
311
313
307
314
327
334
342
354
356
356
348
338
328
318
353
364
363
362
367
360
361
358
347
339
345
352
329
353
362
370
390
390
380
350
341
353
364
370
370
370
355
353
357
374
399
402
402
413
404
394
394
398
398
403
419
421
417
423
417
397
381
389
408
407
414
426
424
414
415
420
421
420
417
428
439
452
446
440
439
447
463
459
443
440
447
451
455
457
464
465
460
457
460
467
467
471
473
472
483
483
484
480
463
475
483
491
496
501
500
500
482
474
485
490
503
512
512
517
518
521
524
529
540
537
500
500
507
507
512
512
528
542
547
540
537
543
547
542
529
554
559
548
548
547
554
560
561
556
542
530
527
539
548
547
545
559
566
553
559
552
531
527
547
539
556
539
526
523
533
525
519
519
521
517
500
495
498
498
493
484
485
488
490
489
481
464
461
474
464
464
452
450
447
438
426
422
428
446
445
423
420
434
437
421
395
383
392
390
395
398
401
401
400
398
400
399
395
399
395
395
405
391
382
393
390
375
355
355
374
375
378
380
374
376
386
387
385
383
369
371
378
390
387
382
381
360
367
385
388
394
385
376
373
381
385
394
396
398
395
390
392
393
398
392
395
402
404
425
447
426
384
374
384
397
407
400
395
399
407
407
411
401
425
444
434
427
430
418
416
426
420
411
393
403
427
431
426
423
423
428
426
427
427
448
449
441
441
437
444
444
444
442
442
445
453
439
443
447
446
438
434
441
445
448
456
454
452
455
472
468
448
437
434
441
438
448
456
457
456
448
456
484
470
476
477
449
444
459
469
476
457
462
472
467
482
494
476
481
489
482
465
463
464
474
475
470
460
456
466
466
473
479
487
489
487
491
495
501
506
503
501
496
492
488
482
482
491
496
490
493
501
502
488
477
484
498
507
504
507
507
507
498
498
497
497
491
481
484
495
472
457
481
500
503
493
485
495
496
498
489
486
463
445
443
443
443
445
451
464
452
442
438
441
439
438
441
444
456
457
453
447
447
437
437
441
434
436
431
436
452
439
438
450
452
450
459
439
423
424
424
433
434
433
431
434
430
429
440
457
446
437
439
439
442
454
460
432
420
424
422
430
433
440
448
452
451
438
427
428
428
432
433
435
436
446
448
437
440
445
453
448
448
439
427
429
434
427
428
429
420
423
430
425
421
435
458
465
471
493
526
569
575
586
612
648
686
722
754
795
854
920
966
990
989
988
988
988
987
986
986
986
986
986
986
987
988
988
989
921
921
865
795
703
618
508
406
330
287
248
250
280
295
327
337
327
307
305
313
313
311
318
330
339
348
341
349
356
355
352
352
355
356
365
374
378
378
378
383
377
377
376
375
384
362
349
358
391
414
414
395
379
378
367
344
363
383
400
409
410
417
408
405
409
416
403
382
389
406
412
414
409
405
412
425
428
435
433
429
425
442
456
434
435
440
431
438
441
440
439
439
438
443
448
446
454
462
466
452
453
456
469
492
480
476
475
462
453
455
462
465
459
464
477
484
482
485
496
508
520
520
499
486
489
492
492
484
498
513
506
511
514
511
512
515
521
525
502
507
519
527
527
530
532
537
540
534
536
546
561
559
554
555
537
539
556
573
557
537
538
541
549
559
562
559
555
542
530
558
585
592
597
568
547
556
569
564
550
551
556
556
555
551
545
548
545
533
521
509
512
507
504
496
511
528
523
505
488
482
487
496
498
489
476
471
467
462
457
463
461
461
458
465
467
449
429
420
419
407
405
414
414
399
393
401
399
398
403
397
393
392
399
402
403
391
359
344
362
380
387
387
391
389
378
378
374
376
392
397
376
368
373
376
375
380
387
383
374
377
375
370
377
389
399
404
422
413
381
368
369
369
379
381
361
380
398
395
398
390
388
390
396
404
408
405
405
404
407
410
402
404
403
405
413
416
417
414
414
418
424
424
427
422
416
418
420
418
406
407
423
429
418
398
404
417
414
419
428
431
436
438
435
430
419
434
454
439
427
431
435
436
445
468
454
439
442
443
446
445
435
439
460
452
442
448
448
450
453
459
467
464
462
462
467
473
474
460
453
460
466
466
459
456
456
463
463
464
468
469
470
480
487
483
477
480
484
505
501
471
474
481
477
476
492
463
457
470
472
475
481
481
482
481
478
480
484
489
495
503
502
502
506
505
488
475
487
523
511
484
496
487
490
490
485
488
496
497
489
482
487
491
494
494
488
490
496
498
493
483
477
482
478
491
509
507
468
445
436
437
456
472
467
447
439
435
436
445
438
434
438
438
440
438
438
442
448
454
454
445
437
437
439
436
434
437
437
435
437
438
444
455
449
443
443
443
446
432
431
450
448
448
445
441
433
431
429
431
438
438
438
435
434
437
444
450
449
444
451
455
454
420
419
437
441
448
455
458
437
425
418
424
437
442
442
431
409
410
426
431
431
415
398
407
423
427
415
440
433
403
421
455
480
498
521
545
567
590
593
629
673
673
701
735
780
831
878
928
973
989
989
988
988
987
987
986
985
986
985
985
986
987
988
989
978
890
806
724
644
543
422
422
341
294
266
257
265
290
311
309
322
330
327
321
318
332
343
344
358
378
366
357
355
355
348
347
349
353
352
359
365
368
368
359
356
359
364
367
367
371
374
372
367
370
377
383
386
380
373
365
366
379
389
387
394
393
384
395
397
376
382
382
392
402
414
391
387
395
388
395
403
412
415
425
429
423
431
434
434
432
425
434
423
418
425
442
440
420
424
447
450
450
448
445
446
445
447
452
454
450
466
486
465
452
463
469
466
467
474
487
479
470
473
480
483
485
489
489
489
490
486
486
492
501
500
498
498
499
506
508
488
472
493
526
537
540
537
542
540
537
538
531
540
535
520
517
523
536
549
557
566
566
563
556
556
550
537
535
549
563
564
548
546
562
563
542
532
537
537
534
537
542
537
535
536
529
523
523
522
525
527
527
540
529
512
506
507
507
505
500
496
494
488
486
490
491
479
466
466
465
463
456
451
459
451
454
435
431
430
431
431
425
416
419
426
427
420
426
433
411
379
380
388
388
386
384
382
380
382
384
386
386
386
386
380
375
380
383
388
391
385
385
381
377
384
389
387
385
388
399
391
380
378
377
379
383
377
360
363
380
397
391
380
364
372
392
398
401
403
404
390
390
391
407
406
399
398
403
412
408
423
453
427
401
390
402
405
404
407
419
426
410
402
408
419
424
422
419
421
415
417
422
442
441
418
413
418
426
434
429
414
424
415
434
450
444
441
434
429
429
432
438
445
442
440
450
442
422
425
432
428
428
425
436
447
444
440
446
454
452
453
462
456
445
455
459
463
464
462
454
450
447
451
462
462
452
454
463
471
476
476
476
476
477
479
479
476
477
475
471
478
477
478
484
488
493
474
461
465
464
476
495
508
501
497
497
483
492
499
497
496
498
497
495
495
502
506
509
518
516
481
475
492
523
518
482
476
488
506
507
503
514
525
510
504
511
507
499
481
451
453
453
464
479
480
475
476
473
478
475
471
462
470
468
460
449
442
435
433
432
435
432
436
437
435
436
441
445
450
456
458
458
454
440
439
443
446
451
457
452
440
443
448
438
445
462
445
424
421
430
438
436
439
439
438
438
439
441
443
444
444
438
426
423
434
438
438
436
438
440
444
450
434
426
426
435
439
436
431
434
439
449
449
441
434
431
428
423
437
446
448
448
448
449
441
427
403
393
406
434
425
405
425
411
425
460
484
498
521
556
590
601
628
666
706
747
794
848
901
962
989
989
989
988
988
987
986
985
985
984
985
985
984
984
985
986
987
988
989
914
797
678
587
482
372
297
257
247
264
292
308
319
314
322
328
322
320
329
336
343
352
350
344
341
341
338
341
343
348
348
345
346
352
356
355
349
346
342
343
343
354
354
374
372
353
336
332
342
354
370
379
370
357
360
370
371
374
375
379
390
393
394
398
402
396
383
390
409
410
419
412
412
392
392
391
396
403
411
424
428
438
422
392
370
383
421
431
426
428
434
439
438
431
429
434
441
448
455
453
453
452
453
453
459
462
467
459
447
441
454
466
479
476
474
479
476
470
480
489
489
489
491
487
477
485
501
501
492
496
500
500
500
505
511
511
512
518
520
517
515
517
519
522
518
517
526
533
530
531
531
517
544
572
561
559
559
560
558
550
541
536
536
543
547
547
551
564
575
581
575
547
527
531
551
562
582
601
560
517
507
512
531
530
523
513
511
515
520
524
519
512
511
510
505
499
487
485
476
477
472
469
468
467
467
461
454
449
444
440
436
431
429
426
423
430
434
431
433
413
402
399
399
394
393
397
397
394
393
394
392
383
384
387
387
385
387
385
384
389
390
397
380
372
380
382
380
388
392
378
366
371
371
375
383
390
387
383
387
377
369
396
395
392
402
401
398
398
399
395
394
404
410
404
402
404
415
419
395
394
399
397
421
431
387
387
385
387
402
409
406
422
434
420
436
411
415
413
407
413
415
417
427
424
419
427
442
445
443
448
463
468
468
456
445
434
431
435
437
438
438
438
436
436
431
414
401
412
449
461
466
463
454
454
459
465
454
445
446
444
444
464
464
472
452
448
453
450
443
437
445
450
456
453
445
451
452
468
469
464
461
463
463
461
461
459
463
465
473
475
471
469
474
478
477
479
481
482
484
485
480
481
483
478
487
498
497
484
486
490
473
470
473
477
481
484
487
494
498
498
494
498
498
504
500
504
500
503
514
497
487
495
498
507
521
515
497
494
504
513
517
509
508
508
505
521
522
501
505
506
507
511
511
500
497
489
477
475
471
474
497
519
488
471
468
460
451
463
449
446
453
452
454
471
469
472
445
428
430
436
436
442
449
456
461
463
452
455
444
441
447
446
441
446
447
447
457
456
439
433
434
430
420
423
439
447
445
435
435
437
441
442
442
446
447
444
448
440
420
440
456
457
444
437
446
452
440
443
443
455
472
426
412
421
433
450
455
451
448
440
444
453
453
450
436
434
448
453
461
433
417
429
418
409
404
392
395
413
435
461
485
513
550
561
573
605
639
674
719
766
810
862
907
964
989
989
988
987
987
986
986
985
984
984
984
984
984
985
986
987
988
989
914
811
723
621
473
360
290
253
239
246
246
258
271
285
302
325
335
339
326
339
349
347
349
340
338
345
345
339
341
341
365
371
352
343
359
368
367
372
377
363
363
349
355
362
354
354
363
365
366
369
371
373
374
375
374
375
381
385
360
355
368
384
390
388
392
401
389
383
379
389
407
415
414
414
415
425
434
417
406
408
413
417
413
392
411
451
453
439
428
433
429
443
456
458
445
443
448
451
456
462
462
473
457
433
429
437
450
460
465
465
470
466
463
470
478
476
475
483
474
468
476
485
479
476
479
490
503
509
506
508
508
505
498
513
511
507
508
503
508
511
519
527
539
545
544
535
529
521
515
528
543
550
563
565
555
557
561
558
556
559
559
556
556
562
569
560
542
544
584
548
533
546
546
545
548
545
540
542
542
539
562
589
554
531
522
510
511
518
519
517
517
521
519
508
508
517
521
510
492
477
469
468
463
459
465
464
450
443
442
451
439
431
442
449
444
437
428
418
410
405
405
419
423
421
413
405
403
399
396
396
405
407
405
421
427
385
376
381
380
375
371
380
386
382
385
390
394
393
391
392
392
390
386
385
384
384
387
393
394
399
426
408
375
375
383
377
373
401
407
420
392
379
393
406
414
418
416
413
400
403
403
407
410
408
408
407
399
404
416
417
408
404
409
420
439
435
439
437
414
400
403
412
418
422
423
427
432
432
428
448
448
452
440
423
414
421
430
420
413
434
445
443
438
436
434
439
452
462
461
455
446
444
457
458
446
439
439
442
450
466
438
435
439
441
444
445
446
455
461
463
457
460
440
432
448
458
460
464
467
484
472
457
465
487
468
455
457
462
467
477
477
472
462
467
471
472
472
472
476
487
479
486
484
472
478
481
479
475
480
479
473
471
477
468
475
481
477
483
491
477
477
476
491
509
484
474
485
512
518
512
507
504
499
494
485
492
514
505
502
509
511
505
500
502
498
495
500
511
502
498
511
524
513
502
502
500
489
485
494
502
503
498
505
492
463
446
463
470
464
461
458
458
452
443
447
450
447
449
455
450
450
458
450
427
425
429
439
449
476
461
430
434
437
435
434
443
447
444
444
441
450
447
447
451
461
455
450
443
435
442
442
450
455
455
450
443
444
442
440
440
439
438
438
440
439
440
440
445
436
430
440
446
436
437
448
486
433
428
431
432
437
433
426
427
430
428
432
454
456
450
438
424
417
410
400
398
405
410
416
420
429
446
464
483
503
525
549
574
595
638
638
683
724
761
787
829
890
949
989
989
988
988
986
986
985
985
984
984
984
984
984
985
986
987
988
989
937
835
722
613
613
490
384
315
279
239
247
272
284
300
308
304
298
297
308
327
332
331
323
347
365
357
354
352
343
349
351
360
367
368
365
357
348
348
354
350
359
364
361
360
359
361
368
377
384
386
370
362
365
363
371
397
369
347
359
366
372
376
387
395
395
403
409
415
401
389
374
377
387
398
404
403
407
416
414
416
417
413
410
422
428
441
448
437
430
440
442
434
437
441
441
445
442
443
449
447
449
455
455
456
460
464
460
456
457
454
456
465
470
477
499
494
474
466
471
490
512
492
455
464
486
500
502
501
501
508
515
513
505
516
504
500
506
506
512
521
531
517
505
507
521
532
544
551
550
546
546
542
534
535
535
549
556
557
559
562
566
559
552
546
552
555
546
541
535
540
554
562
567
567
557
532
531
533
536
541
530
529
531
524
524
520
513
509
525
528
522
513
510
508
504
500
498
495
491
488
479
473
477
483
475
455
458
458
449
445
446
445
440
421
404
425
428
423
419
421
412
410
411
406
400
400
405
407
410
407
396
389
389
385
383
380
374
381
392
404
422
402
410
400
400
359
359
366
359
365
374
386
380
394
390
379
390
385
381
375
369
364
379
376
374
368
384
403
410
412
413
405
403
401
401
393
387
388
393
397
397
401
410
412
401
399
410
411
412
423
425
425
432
412
405
405
408
416
423
426
416
409
407
413
417
423
426
424
426
433
432
425
429
434
431
425
424
431
440
441
450
449
437
432
429
430
435
452
449
447
445
436
435
441
441
442
445
444
442
441
439
442
445
448
454
457
441
434
433
438
445
437
438
446
444
448
459
464
465
470
467
462
458
455
455
459
462
458
452
460
471
494
492
464
460
474
492
484
468
462
458
455
463
471
471
477
483
481
474
477
486
479
471
474
487
494
491
485
480
483
486
494
507
504
496
504
491
492
510
480
489
505
514
506
516
508
476
486
494
484
494
495
496
498
498
499
499
498
493
502
504
500
507
495
473
493
507
503
498
495
494
497
494
494
492
480
458
434
426
440
447
446
446
444
444
447
447
448
446
458
448
428
435
441
442
441
440
454
459
447
422
417
448
452
430
428
430
439
443
440
438
439
443
444
443
436
431
437
444
432
432
432
443
447
446
446
444
440
442
447
440
429
426
426
432
439
443
443
441
434
428
432
443
436
436
439
441
445
446
451
451
451
455
470
483
444
408
417
430
430
434
424
412
408
410
406
389
390
401
416
447
475
488
524
524
529
531
559
583
613
654
693
731
774
819
871
933
989
989
988
988
987
987
986
985
985
984
984
984
984
985
985
987
987
989
933
837
735
623
505
392
306
252
226
236
260
282
293
299
302
307
308
315
340
353
338
338
338
338
335
338
341
347
351
351
354
354
357
355
347
353
355
354
352
352
353
361
363
360
361
362
364
365
376
378
379
415
383
348
350
361
367
372
369
369
391
384
370
383
384
391
402
405
416
410
392
393
397
398
407
415
419
426
432
416
412
428
450
445
432
419
415
418
427
430
436
433
434
440
441
446
454
455
452
441
435
456
469
459
457
451
452
457
462
469
475
480
477
466
461
468
489
490
487
487
487
491
496
493
487
492
500
504
511
488
470
499
515
522
512
503
505
511
522
529
533
529
532
536
536
536
540
544
547
547
557
558
543
532
546
563
569
558
557
557
554
547
546
549
558
571
564
571
558
553
559
553
551
542
525
540
548
520
513
522
530
541
528
514
511
520
531
535
515
515
518
523
520
514
508
499
491
488
490
484
479
475
471
471
473
469
460
454
450
450
440
420
425
424
416
425
432
433
421
414
408
406
414
412
406
396
396
400
401
400
402
406
392
386
389
389
390
389
381
381
379
381
381
383
384
379
377
374
374
378
379
381
382
380
377
378
375
379
387
389
381
374
381
387
392
402
410
417
420
403
393
389
397
406
392
364
370
393
400
390
386
386
391
392
394
405
414
416
415
413
412
409
413
416
416
421
425
421
421
421
417
416
408
414
420
423
424
428
440
445
427
421
427
429
429
432
433
437
438
435
435
438
444
439
442
460
450
435
436
436
440
436
433
440
443
454
445
460
464
454
451
449
441
440
444
446
454
460
461
462
443
456
465
465
465
464
459
459
464
470
470
470
464
467
471
472
469
466
466
480
481
482
485
502
524
500
474
463
453
461
470
472
470
484
489
486
475
477
486
486
498
514
517
481
474
490
501
497
493
492
487
484
479
482
494
508
508
506
521
520
513
510
488
496
504
509
510
515
517
517
499
499
506
507
497
487
484
495
500
500
495
503
492
481
479
480
476
468
481
471
470
455
449
430
432
438
437
425
438
452
447
449
456
449
443
444
450
451
443
442
447
450
452
448
447
443
437
441
441
440
444
448
453
454
454
457
442
440
432
432
428
428
436
440
427
433
444
453
453
456
446
439
434
435
437
438
442
445
447
443
436
429
439
441
444
451
470
460
464
464
442
428
437
454
440
422
422
433
441
441
438
438
450
432
418
410
410
409
411
417
417
420
427
443
459
478
500
531
562
595
607
641
681
726
751
784
824
890
958
989
989
989
988
988
987
986
986
985
985
985
985
985
986
987
988
989
949
866
773
773
682
576
454
353
297
265
254
261
268
282
302
317
319
317
320
316
320
334
341
339
336
343
348
355
368
366
359
354
356
356
359
360
362
366
365
366
369
370
375
378
372
371
367
376
372
362
364
373
373
368
378
397
401
397
405
404
391
397
397
394
388
385
390
400
412
419
422
419
411
407
415
426
434
441
428
427
428
418
417
422
424
444
457
446
453
456
452
435
415
415
444
466
434
428
437
446
454
458
456
464
470
468
468
476
478
480
493
484
476
478
478
478
482
499
499
492
494
495
496
496
497
498
493
496
501
493
501
508
520
523
521
526
534
533
520
509
516
535
545
546
544
522
521
534
545
543
544
557
561
559
563
565
565
565
570
576
565
558
562
566
568
568
564
559
560
560
566
574
563
556
562
576
573
564
564
567
536
526
535
535
534
526
529
526
524
525
515
515
518
518
511
506
503
504
501
496
498
498
502
498
487
478
487
493
451
435
448
439
434
434
436
430
436
436
440
436
400
403
414
405
408
408
404
403
413
407
392
384
393
396
394
393
394
389
384
385
386
389
386
380
380
374
373
380
383
385
395
392
363
359
362
371
379
378
391
410
387
369
380
377
372
378
381
384
389
390
388
387
393
393
396
393
396
387
407
403
405
402
395
400
404
395
393
399
397
399
397
396
406
411
417
423
424
415
404
408
418
425
434
434
424
414
413
418
433
426
433
437
433
433
435
424
411
422
432
436
440
440
440
437
442
436
425
421
427
435
449
448
456
460
431
434
435
441
456
452
455
465
463
457
465
456
454
453
446
444
446
456
467
465
460
459
462
465
466
467
489
476
468
468
468
480
509
507
483
478
481
481
480
481
494
478
464
472
477
476
481
491
501
507
501
504
512
515
504
492
493
498
511
511
494
482
487
472
470
486
500
504
502
502
503
505
500
502
504
505
503
504
504
500
499
495
504
503
504
499
482
477
480
479
471
463
468
462
460
465
457
453
458
446
431
434
444
452
436
430
434
433
440
447
451
444
440
439
436
441
445
447
452
452
454
451
443
452
457
444
442
465
458
446
447
449
445
441
441
448
439
433
434
437
445
469
441
429
440
440
441
438
437
437
446
448
446
431
433
443
449
426
423
438
434
429
428
432
441
440
444
441
441
451
453
440
433
438
445
449
447
446
440
444
442
437
428
422
428
441
439
445
460
473
483
493
495
509
545
575
608
647
671
689
729
771
816
863
906
957
989
989
988
988
988
987
987
986
986
985
985
986
986
987
988
989
940
859
794
731
665
575
457
363
301
249
239
253
277
308
328
323
316
316
299
301
313
326
332
340
344
350
355
355
363
373
383
402
387
367
353
354
361
363
362
362
369
372
372
375
368
370
379
390
381
382
385
379
374
377
386
398
403
393
388
390
395
394
388
391
396
402
407
410
416
426
429
423
420
418
424
429
422
422
417
421
411
415
436
440
447
454
446
437
445
442
437
441
442
443
444
445
449
457
461
460
465
481
471
454
454
464
469
469
466
468
474
467
468
474
477
475
479
491
499
490
492
503
484
481
494
495
489
493
503
516
515
512
487
488
499
510
511
515
513
513
525
536
542
544
547
546
549
551
545
542
544
554
553
544
542
548
552
557
587
594
561
539
539
549
560
563
565
565
571
571
564
558
560
571
571
547
540
552
552
546
550
556
545
520
516
532
538
536
535
532
536
536
523
522
517
510
502
502
500
496
498
495
482
475
475
481
485
469
468
471
454
433
430
445
441
436
430
426
422
420
415
399
392
392
396
401
401
401
402
406
406
392
386
389
396
393
391
397
384
382
373
374
385
393
386
376
372
374
380
386
387
381
376
375
373
374
371
371
372
373
385
390
382
378
380
389
390
372
364
368
380
393
410
415
375
373
383
388
390
394
398
395
391
389
392
398
403
403
400
403
409
416
417
412
403
407
411
416
417
406
393
399
401
401
408
423
427
423
420
421
422
427
437
446
446
448
430
422
409
406
432
437
432
429
431
438
443
447
453
452
448
440
440
457
466
439
426
441
444
449
450
444
439
441
450
438
437
437
446
454
452
449
455
461
462
461
459
456
474
482
470
469
474
485
476
462
466
473
480
486
488
491
484
471
473
472
465
465
470
468
470
483
485
492
498
492
485
485
490
489
489
492
496
500
488
483
485
483
487
493
495
494
495
505
516
517
514
511
495
507
506
497
481
485
488
482
479
474
466
474
484
459
453
471
473
468
467
460
452
449
444
442
451
442
439
431
426
426
428
431
433
432
428
430
433
432
442
449
445
441
443
445
446
443
443
444
440
432
428
433
433
429
427
430
437
445
447
447
447
442
438
435
426
420
424
442
449
429
423
436
442
420
419
429
427
428
429
430
425
426
432
436
445
440
442
453
448
428
420
431
440
448
458
456
435
422
412
420
445
445
415
397
389
396
397
402
396
399
411
432
460
485
502
516
535
559
584
584
606
634
672
701
731
773
818
870
924
971
989
989
988
988
987
986
986
985
985
985
985
986
986
987
988
989
941
844
750
750
671
583
466
370
317
263
232
244
263
285
302
310
308
313
317
325
338
335
344
354
352
354
350
349
353
349
349
351
361
358
354
360
356
338
339
346
355
354
345
344
339
341
347
357
367
370
375
375
381
374
365
370
374
382
381
386
393
371
368
368
381
385
386
388
393
399
399
395
392
392
399
405
409
410
410
412
419
423
412
415
423
439
443
446
452
429
428
455
429
429
407
415
428
436
441
443
443
447
451
444
445
444
444
448
450
449
452
468
473
466
457
466
457
452
455
458
469
486
492
491
488
493
492
489
493
494
492
486
486
486
485
488
489
493
502
512
523
526
516
530
530
520
512
516
523
526
534
544
550
550
549
541
550
554
548
548
549
539
535
551
559
561
563
556
553
539
534
541
547
552
553
547
547
547
547
537
533
535
536
536
542
531
519
515
514
511
506
508
510
514
501
495
488
487
494
491
485
478
472
465
458
458
457
455
452
447
447
444
436
426
418
417
416
407
409
416
426
404
402
427
449
404
377
365
369
384
388
379
388
393
380
370
368
372
375
380
379
374
372
372
375
380
379
376
378
373
370
372
392
402
378
367
374
384
398
389
384
373
362
366
382
382
380
381
385
395
384
381
386
386
399
391
389
393
394
390
398
405
408
403
404
405
406
401
393
396
397
402
403
403
407
414
426
427
425
421
410
406
411
420
426
422
415
416
416
421
425
434
432
425
421
428
434
430
418
419
428
440
447
444
443
442
437
419
419
432
444
464
432
432
427
437
442
440
436
437
443
446
443
450
446
451
445
446
450
449
451
456
456
451
448
451
460
471
470
493
476
460
458
458
461
461
466
468
467
468
469
471
480
480
480
492
484
470
466
452
462
485
500
484
467
467
464
465
472
479
490
492
494
496
489
492
503
509
503
497
491
489
495
499
502
502
490
490
499
503
503
505
507
510
503
494
492
496
495
488
478
480
495
495
498
494
500
505
496
474
466
460
453
449
436
437
433
428
432
440
437
438
454
442
426
434
436
441
448
439
431
435
442
442
448
448
443
441
439
444
443
437
434
435
437
440
435
434
453
475
437
422
421
432
452
437
419
424
432
435
435
434
434
436
438
441
431
433
436
421
420
427
434
435
423
419
446
438
424
423
432
438
440
440
439
437
439
441
447
448
437
429
418
418
419
430
416
399
399
406
404
428
438
427
434
456
472
489
511
540
571
597
620
647
686
744
781
817
866
918
974
989
988
988
988
987
988
986
985
985
985
984
984
984
985
986
987
988
988
970
874
771
677
559
432
338
280
244
236
258
284
309
328
325
324
323
336
325
320
346
348
332
336
341
340
330
315
315
331
346
348
349
350
350
352
355
355
349
344
344
346
351
352
352
352
350
354
358
367
382
369
353
352
347
346
353
365
385
395
396
395
400
393
380
372
373
387
398
402
403
411
409
410
410
403
398
406
408
397
403
411
419
425
431
424
415
416
420
431
431
430
439
446
451
443
440
444
447
451
454
453
453
453
460
466
458
448
451
461
467
462
456
465
495
488
463
471
471
474
479
485
491
492
493
491
488
489
497
502
502
500
502
510
510
521
525
524
520
518
517
523
541
520
522
533
536
537
530
522
524
535
557
580
577
541
555
558
560
539
537
539
535
539
539
552
559
559
557
558
559
555
534
527
540
550
555
545
532
535
537
536
535
532
523
520
520
531
531
520
516
515
510
507
499
495
494
501
486
482
484
484
483
475
466
458
459
463
453
444
441
438
434
430
424
424
428
426
416
400
392
402
413
419
419
414
416
424
416
393
379
369
373
379
378
380
387
384
381
380
378
388
386
381
383
402
384
382
392
386
380
384
390
375
375
373
375
373
378
386
388
388
392
403
403
402
415
427
442
400
370
361
381
385
380
370
364
372
389
398
399
397
397
400
405
411
403
393
398
403
411
413
415
419
418
418
410
404
427
430
424
424
426
430
430
422
420
435
441
438
436
431
428
424
424
419
423
432
444
455
448
429
436
446
444
437
431
431
435
438
440
446
446
446
450
446
443
447
449
447
452
460
456
443
443
443
448
451
449
441
443
449
459
455
451
451
451
452
462
467
462
462
460
457
455
463
471
475
480
494
511
496
482
471
485
469
476
492
483
480
496
492
477
453
446
463
486
485
472
473
479
485
494
501
505
501
499
508
491
476
478
492
501
491
491
483
492
500
498
488
494
505
509
509
507
504
516
514
499
496
497
504
502
495
490
485
489
493
489
486
487
489
489
482
482
476
465
465
458
455
453
451
445
448
445
435
432
438
442
444
449
459
450
448
451
446
438
436
439
443
442
435
436
442
439
437
432
428
427
433
448
462
448
443
441
439
445
442
442
436
445
437
418
423
445
442
448
475
475
445
416
407
407
424
424
439
428
423
430
437
438
438
444
445
447
442
432
427
427
435
445
432
430
439
444
454
442
425
428
427
416
413
408
405
405
402
401
397
394
404
421
446
464
484
509
536
562
584
599
627
666
