480
473
469
467
470
468
467
467
469
460
439
435
438
435
432
429
428
430
431
429
429
429
425
422
420
416
411
407
408
410
410
408
404
404
410
405
398
395
396
394
399
403
404
402
401
405
408
412
417
417
415
409
412
415
415
416
421
420
416
415
413
413
413
409
409
406
407
407
407
414
422
423
420
420
424
425
425
425
426
427
425
423
424
426
432
435
435
435
434
433
433
436
438
439
439
439
436
437
441
442
444
446
441
438
435
436
447
455
457
454
454
455
453
448
444
446
449
453
462
462
460
461
456
454
456
458
456
453
449
442
440
448
457
459
453
454
455
462
475
481
478
469
466
465
473
476
479
482
484
475
467
465
462
463
461
468
472
469
468
468
472
471
471
469
467
466
467
469
469
468
467
464
465
464
469
475
479
482
479
471
470
470
468
468
470
469
468
467
469
469
468
465
463
468
471
474
471
469
470
473
471
471
472
476
476
475
469
466
467
467
468
469
471
472
472
472
473
475
476
478
479
481
478
473
469
469
474
475
470
469
471
472
473
476
480
482
480
485
487
479
470
467
467
469
470
473
475
471
468
469
468
473
477
477
476
474
469
466
464
467
473
479
480
479
484
486
484
476
476
481
477
470
471
474
472
471
470
473
475
472
475
476
475
479
480
481
485
484
487
484
486
480
467
461
464
468
473
470
468
470
476
480
479
479
478
477
476
479
480
480
478
475
480
487
488
475
471
474
480
483
482
479
473
473
469
460
466
471
468
467
471
479
484
488
486
480
478
479
479
477
477
476
477
477
478
480
480
479
481
482
481
481
485
490
494
490
488
485
482
480
482
480
471
472
476
473
472
477
481
483
485
486
487
486
485
483
485
487
485
489
497
498
500
494
485
487
492
492
494
494
495
499
502
499
492
492
492
501
509
510
508
506
508
512
514
518
518
516
516
518
514
504
508
524
524
514
515
517
519
518
516
512
506
494
485
479
477
478
480
474
464
460
470
486
492
490
490
484
481
481
479
474
475
475
477
479
483
481
481
480
471
467
468
471
476
476
477
475
474
475
474
476
474
469
465
465
468
473
476
476
475
475
475
475
476
475
475
477
476
475
472
475
474
475
476
477
475
472
472
473
473
475
475
473
467
461
456
456
464
474
473
466
465
472
474
470
467
474
484
494
498
503
522
544
560
581
612
645
677
712
741
769
795
819
834
833
826
828
837
841
847
857
849
832
814
790
753
710
683
667
656
641
620
594
569
543
515
485
452
433
422
419
421
426
432
433
434
440
449
449
446
446
450
455
457
453
455
459
460
460
455
455
459
465
467
462
458
455
452
449
447
449
449
447
448
450
448
446
445
449
450
450
451
447
441
436
438
447
459
463
462
461
455
448
442
446
450
452
454
457
454
451
452
448
446
449
454
452
452
458
462
464
464
464
464
458
461
466
469
476
477
480
483
489
497
497
481
475
481
483
476
464
465
471
474
473
476
480
482
480
476
475
483
487
493
495
495
495
495
490
487
486
495
504
509
504
494
489
486
486
488
492
495
499
498
493
494
500
508
512
511
508
508
510
509
508
507
507
513
516
517
522
526
529
528
523
521
520
529
538
539
540
538
536
538
543
546
548
548
553
554
553
553
556
558
556
555
560
562
561
561
563
565
565
564
562
561
565
567
566
569
571
569
566
568
565
561
558
559
562
562
560
559
559
560
560
556
555
554
553
552
551
549
549
549
549
543
539
538
533
534
534
532
536
535
531
531
533
530
521
515
517
524
521
511
505
509
504
484
473
470
469
471
466
456
453
454
453
452
454
459
462
456
450
446
445
441
433
425
420
417
407
412
420
419
416
415
419
414
410
406
401
404
404
407
413
422
431
427
420
419
416
414
416
420
418
404
401
397
399
405
413
417
418
419
417
419
419
423
426
423
421
421
427
429
427
419
412
412
416
421
421
424
428
429
428
431
434
438
441
440
438
435
434
436
434
432
431
429
430
431
436
443
452
456
451
450
456
465
463
457
449
450
450
437
426
436
446
444
443
442
443
447
446
446
453
457
458
465
467
461
452
451
453
455
454
454
448
445
453
460
458
461
462
467
471
469
466
462
462
465
464
460
461
467
468
460
454
456
458
462
471
477
477
473
466
467
470
470
474
477
474
462
453
454
462
470
470
469
467
470
464
466
468
462
456
459
468
473
473
474
475
479
478
474
469
469
470
470
469
473
477
475
474
470
463
455
462
473
482
479
474
473
468
467
468
470
470
469
471
471
469
471
476
483
486
479
471
470
474
477
476
473
471
468
466
468
468
467
470
473
473
470
471
471
473
478
482
484
483
480
477
478
483
487
488
481
469
469
473
473
473
474
470
468
472
478
480
482
482
486
482
470
461
464
471
477
477
473
464
458
459
459
464
473
472
470
470
472
473
474
471
469
473
478
479
470
464
471
478
481
480
478
478
479
477
477
480
485
482
477
472
473
475
478
479
480
476
467
468
478
481
481
483
481
476
473
474
476
482
485
486
483
480
475
472
477
483
485
482
482
481
480
479
480
478
474
474
474
476
482
490
491
491
485
486
490
491
488
485
486
486
487
484
484
488
490
491
490
497
497
496
492
483
479
482
486
486
483
477
479
481
483
482
477
473
470
472
475
477
475
474
476
475
475
477
472
464
466
473
484
488
492
495
490
484
478
475
480
484
488
487
480
478
482
485
486
489
494
483
473
478
491
500
491
487
483
483
488
491
490
486
482
481
480
480
481
480
479
480
483
482
480
484
490
492
492
487
490
491
491
494
497
497
498
499
498
495
494
493
490
491
494
498
499
501
500
501
503
508
515
515
509
508
511
518
529
526
522
521
521
522
526
525
523
523
526
527
522
517
510
507
506
507
508
512
513
509
504
491
475
472
477
484
487
484
482
486
482
475
471
467
461
463
464
460
458
460
461
463
469
483
489
489
484
484
479
475
473
474
475
469
467
468
467
468
467
469
481
481
474
474
473
473
472
473
476
478
480
478
476
474
473
475
476
473
473
472
470
465
465
474
479
482
480
476
478
481
483
473
461
453
453
456
457
457
458
458
457
454
459
468
477
486
491
497
508
533
561
590
620
652
685
717
749
778
802
817
824
820
814
812
820
833
839
838
832
820
802
774
742
715
697
685
678
667
649
626
595
564
537
515
494
462
431
407
398
407
425
436
448
461
467
459
444
438
438
444
454
461
461
464
465
461
456
457
464
466
462
460
461
457
449
446
443
445
443
440
437
436
438
442
444
451
457
458
461
452
449
444
439
438
435
440
441
440
441
439
438
440
444
451
452
451
451
442
441
443
444
451
454
455
457
456
456
459
449
446
447
453
459
461
460
462
467
469
473
476
473
471
474
476
476
481
477
471
465
465
466
464
459
454
460
471
477
479
482
484
487
487
489
492
491
493
496
500
497
494
493
494
496
497
497
496
494
492
494
503
510
511
511
510
513
514
516
517
522
524
517
512
517
523
526
524
521
521
521
520
518
516
518
527
534
536
539
537
528
520
529
541
545
538
535
539
544
541
538
550
563
566
563
557
557
557
555
559
562
570
573
565
556
554
554
556
555
555
560
564
568
567
564
564
564
564
564
559
553
549
552
558
559
559
560
563
563
561
559
556
554
551
552
551
550
543
532
521
508
503
507
515
512
514
524
535
529
523
523
522
521
517
509
504
500
495
489
488
487
485
478
474
469
464
462
458
452
451
452
452
452
449
449
450
452
451
446
439
441
446
446
432
418
414
412
411
415
416
420
420
416
411
411
407
407
416
417
409
409
416
420
419
406
402
407
412
412
413
413
410
408
410
416
411
407
408
409
410
410
414
415
416
419
415
414
406
411
421
431
428
422
421
433
445
446
443
444
446
448
447
440
435
436
439
440
438
442
443
445
440
435
432
433
435
436
435
436
442
445
445
443
445
445
445
445
444
450
455
457
456
454
452
449
449
451
462
465
458
454
451
448
451
467
468
466
462
458
456
461
459
456
460
466
467
464
461
461
464
463
463
462
458
460
462
464
473
479
480
473
470
470
463
455
453
454
458
459
455
456
464
464
462
462
458
459
456
453
456
460
463
466
471
472
468
467
469
469
471
471
472
470
472
476
478
476
474
468
461
459
468
470
468
467
467
468
470
467
466
466
469
472
472
472
475
478
479
473
471
470
473
477
468
460
462
472
477
474
469
466
460
454
452
461
471
474
475
475
477
475
476
479
475
473
474
473
474
478
477
474
469
461
461
463
469
468
459
454
455
453
456
476
490
498
500
495
481
471
473
481
485
480
475
468
464
469
479
480
478
481
480
473
470
467
471
479
479
477
476
477
477
475
473
475
477
478
474
475
477
473
476
475
472
470
474
478
476
471
469
474
475
476
474
471
473
475
480
484
492
492
483
474
471
471
477
486
490
487
485
483
481
475
470
465
462
466
474
480
474
470
470
476
484
490
490
474
452
441
447
463
472
479
475
475
483
499
492
496
481
459
457
471
476
480
486
490
493
496
500
503
506
503
497
495
481
476
476
476
476
476
476
477
479
479
479
481
484
484
482
481
480
481
481
484
488
493
496
494
493
496
490
479
470
468
469
474
481
480
475
469
465
468
471
473
478
482
486
488
492
490
481
477
477
480
478
475
476
476
477
480
473
465
468
478
485
491
489
485
485
477
469
475
478
473
469
476
474
482
492
497
489
479
481
489
493
495
493
488
493
488
479
481
484
488
486
483
481
481
487
491
493
497
489
480
482
482
484
490
499
499
502
501
503
505
508
498
493
491
490
495
497
497
496
494
494
495
497
499
499
496
493
494
498
504
509
516
518
516
513
516
517
514
514
517
521
525
526
521
519
516
516
517
517
514
508
512
516
512
506
503
508
515
518
515
516
516
516
512
512
508
498
494
498
498
494
490
490
485
483
481
478
478
479
477
478
478
470
466
466
468
469
472
473
481
476
470
475
472
471
469
472
478
479
479
477
469
465
469
473
475
476
476
471
470
473
476
477
481
477
464
462
467
470
478
480
483
485
482
478
474
475
478
475
467
462
460
459
460
460
460
461
455
446
446
449
451
449
452
464
472
479
486
489
497
511
526
556
593
630
657
686
716
746
775
802
826
839
840
837
831
830
828
832
838
838
824
807
779
749
716
692
674
660
648
635
616
585
554
525
495
462
426
410
406
408
417
426
433
442
443
438
434
432
434
438
446
459
469
473
465
466
468
474
466
450
448
448
445
444
447
449
447
442
443
445
442
437
441
444
444
438
436
442
448
449
453
461
460
454
447
446
447
437
426
426
436
445
451
454
454
453
453
455
456
456
456
457
460
459
460
462
468
472
474
470
463
461
459
460
455
452
454
456
460
468
475
469
460
456
466
483
490
487
482
482
485
491
498
507
494
473
472
480
482
477
477
481
483
483
488
492
495
497
499
501
503
505
499
498
498
501
507
501
500
500
497
497
505
514
518
513
506
507
508
509
514
519
521
522
524
528
534
531
522
519
525
533
531
527
531
536
538
539
538
539
543
539
538
541
550
552
557
553
550
551
551
553
551
555
563
573
572
568
563
564
567
568
570
570
570
567
562
557
555
565
571
568
573
56466
468
472
472
1
464
468
472
470
466
469
480
487
483
476
474
470
466
469
469
473
482
485
490
481
468
466
468
472
472
472
4
468
472
470
466
469
480
487
483
476
474
470
466
469
469
473
482
485
490
481
468
466
468
472
472
472
477
478
477
477
479
485
482
474
468
471
471
469
469
473
476
480
481
482
477
487
492
482
476
475
477
485
487
489
491
486
479
476
476
477
478
474
470
466
473
488
498
488
483
485
482
488
482
479
482
483
485
489
480
468
465
471
471
475
488
504
505
486
468
466
472
482
487
488
490
485
472
465
467
470
468
473
483
494
496
493
494
490
487
485
477
473
473
480
485
483
487
490
492
482
469
467
472
480
485
483
479
482
482
480
474
472
476
478
479
480
476
471
469
474
483
496
502
513
516
508
515
503
489
486
482
489
497
504
496
488
488
491
493
491
496
497
497
501
510
517
521
525
526
531
536
527
520
516
514
513
508
504
512
529
531
532
533
532
532
535
530
511
498
494
495
502
505
496
488
484
481
477
477
475
475
472
471
477
484
475
469
468
471
469
466
466
468
466
470
474
470
463
471
482
481
479
481
482
481
481
473
472
479
482
483
474
464
476
478
475
479
473
468
464
460
466
477
481
479
467
468
473
472
470
471
468
462
467
475
472
462
460
467
471
469
468
467
470
478
481
477
470
467
459
455
454
453
453
455
457
449
452
457
456
463
474
487
492
504
528
553
570
596
626
648
666
689
728
767
790
808
820
828
830
824
825
831
835
839
839
828
799
761
720
691
674
662
655
638
623
613
579
538
500
472
450
432
421
399
377
377
390
404
417
427
426
424
427
432
439
445
451
459
468
481
482
477
465
454
453
462
462
453
450
449
445
441
440
443
448
449
449
454
460
459
459
457
451
449
445
445
445
437
436
441
444
448
457
457
450
444
444
449
459
469
470
463
458
459
463
464
470
476
469
471
477
484
480
468
464
469
477
481
473
460
459
464
461
466
471
469
472
484
486
477
472
472
475
483
486
487
491
496
496
489
481
480
482
489
492
491
493
498
498
498
492
495
497
494
492
493
500
501
497
493
500
507
501
496
497
502
501
504
514
520
516
518
523
522
519
514
512
514
513
512
513
518
520
522
529
534
537
538
543
538
528
531
537
537
538
546
551
545
541
541
542
544
551
553
553
552
554
556
556
552
553
549
557
573
580
578
585
587
573
568
573
572
574
571
566
561
562
566
569
572
566
559
559
559
555
562
567
558
558
558
555
556
558
557
553
550
546
542
541
546
545
534
523
520
520
522
524
529
532
526
517
517
519
519
509
502
499
499
502
502
512
515
501
486
478
477
474
470
470
474
472
467
457
454
456
449
439
438
441
438
428
427
437
456
464
451
432
433
436
441
441
439
429
424
414
409
409
408
411
412
413
413
410
406
411
419
418
415
410
411
412
411
411
415
421
417
414
425
425
421
417
410
411
411
413
415
420
424
420
420
426
426
427
425
426
428
425
419
416
415
415
425
427
422
423
431
438
441
434
431
430
432
436
446
452
454
450
444
451
454
449
445
446
449
444
438
435
438
445
454
460
468
476
469
464
453
447
449
456
461
451
432
430
439
455
460
458
468
469
454
451
457
465
469
473
472
469
462
461
459
452
455
459
462
462
460
460
463
464
461
461
460
461
467
466
462
458
463
472
472
473
472
470
473
476
473
463
461
455
455
464
467
468
467
471
473
480
484
477
477
476
472
470
475
470
468
464
463
466
472
468
471
473
472
475
472
470
468
469
472
474
474
465
465
466
465
461
461
472
487
491
484
477
469
468
473
468
460
461
463
467
472
472
470
466
468
468
467
464
465
470
474
475
473
470
469
476
477
473
468
466
468
471
471
467
463
455
454
460
465
466
462
465
473
480
483
484
474
469
470
473
472
466
460
466
474
479
480
476
470
467
472
479
483
487
483
487
477
462
452
455
463
469
478
479
478
480
471
467
471
470
467
472
477
486
492
505
510
490
482
483
480
473
465
464
471
474
470
460
453
459
469
472
467
468
472
478
475
475
480
488
491
481
477
471
471
473
473
477
476
478
486
483
479
481
480
482
482
476
474
479
485
482
479
484
487
490
488
478
475
478
477
480
484
486
482
475
471
472
470
467
466
473
483
491
492
486
480
476
479
484
482
481
480
483
481
474
474
481
485
487
491
488
493
492
481
476
472
472
478
485
482
483
482
479
482
489
489
478
467
466
472
479
483
483
484
488
491
492
500
497
488
488
489
489
483
475
474
472
466
466
471
480
489
500
503
491
488
493
500
500
494
493
491
489
485
484
491
494
494
497
503
508
510
510
504
503
502
494
493
500
507
508
508
505
514
522
525
519
520
522
521
520
525
533
533
514
501
506
518
520
523
522
520
520
524
516
505
500
502
502
501
503
501
499
493
481
473
471
469
475
480
486
489
478
479
482
479
476
469
466
469
467
457
461
467
475
480
475
477
483
492
494
488
481
477
467
461
465
466
474
479
482
480
473
470
473
474
476
478
481
484
486
492
484
465
460
463
468
463
459
465
464
464
474
475
461
462
471
478
484
490
489
485
487
480
470
466
458
460
465
454
455
453
452
452
450
448
458
474
481
489
498
501
505
519
538
558
584
617
661
697
728
756
781
795
811
820
823
825
824
824
832
836
841
835
824
803
769
735
703
678
659
641
629
615
592
561
536
509
483
448
423
417
414
403
401
403
409
416
416
407
407
426
457
459
435
428
435
448
459
466
472
471
464
460
457
456
454
451
452
459
455
455
454
455
454
456
455
453
451
453
452
449
448
448
448
449
449
444
440
444
448
453
462
467
465
462
459
458
454
458
457
453
451
447
442
448
461
469
475
484
488
487
481
474
469
467
470
468
467
474
483
485
479
471
466
467
478
487
496
499
503
503
499
493
486
477
466
472
482
485
488
492
494
498
498
494
493
488
487
484
484
489
499
504
502
500
500
508
512
511
514
517
517
513
502
498
498
501
500
491
491
506
525
534
532
530
526
526
527
536
537
526
520
527
533
531
528
534
537
536
536
531
534
537
538
537
543
555
561
559
554
560
562
552
548
551
557
560
570
587
575
550
541
545
551
555
558
562
567
574
570
564
565
566
566
565
562
559
557
555
561
570
571
566
562
558
558
555
548
553
552
550
553
554
558
563
553
540
539
538
542
542
537
534
532
525
521
523
525
529
532
527
520
516
516
511
510
511
510
507
503
500
494
486
483
469
464
464
464
465
464
459
463
458
450
451
444
439
441
443
440
431
428
437
450
443
429
429
432
429
421
417
421
425
425
427
420
418
428
431
433
426
409
403
409
412
413
407
399
400
409
413
413
422
421
412
409
409
410
411
411
410
411
416
417
420
426
427
431
436
433
417
410
412
412
412
415
415
408
411
415
429
439
431
426
429
431
429
430
430
430
432
432
425
439
446
447
447
447
446
446
450
457
451
445
441
440
440
440
450
456
462
464
449
443
445
446
448
454
462
463
454
451
456
453
452
452
453
456
464
475
469
464
461
461
467
466
470
472
472
466
459
458
459
460
463
467
468
468
463
451
448
447
447
453
454
449
454
464
468
474
472
471
474
475
474
474
470
468
473
474
480
484
477
467
465
469
467
463
463
462
466
468
470
471
477
477
467
464
471
469
467
469
469
465
463
459
455
458
462
470
484
484
484
489
490
481
473
476
475
475
475
466
467
468
463
461
463
468
472
476
476
477
474
473
466
457
457
468
468
461
458
460
464
466
465
465
467
470
465
455
463
470
471
469
469
461
460
470
474
481
483
479
475
474
480
480
467
453
450
455
464
468
469
467
461
467
476
477
476
478
484
488
487
482
477
472
469
469
475
479
480
481
490
498
499
494
486
485
476
465
458
451
454
458
462
465
471
472
470
466
470
473
478
484
482
480
480
478
470
470
473
483
487
473
467
466
463
463
469
472
471
475
477
473
467
466
470
475
476
474
472
480
488
493
495
487
485
481
467
456
450
444
452
466
479
482
474
477
486
495
500
495
488
488
487
489
487
485
488
483
477
480
482
478
481
487
479
481
495
495
482
482
482
482
487
490
478
475
478
479
471
470
474
481
484
491
496
488
482
481
485
483
479
473
472
474
480
479
471
469
473
479
478
474
476
481
485
480
473
478
483
486
488
488
482
479
478
482
484
485
484
480
473
470
463
457
459
464
477
488
484
474
473
482
491
496
496
492
485
481
480
482
486
489
489
489
496
502
496
486
479
477
483
486
490
496
499
492
487
488
488
488
486
485
489
490
497
510
519
520
516
509
497
489
493
507
518
508
503
505
508
512
515
517
522
532
537
526
520
519
515
516
522
530
529
520
520
523
520
518
522
527
515
494
492
496
501
501
496
483
480
483
479
476
473
467
470
478
480
481
473
459
462
461
462
468
478
482
484
474
464
466
468
466
467
473
476
476
470
460
450
449
462
472
480
479
477
476
476
474
476
480
479
483
484
474
477
486
479
470
471
471
470
476
474
473
475
478
478
479
482
482
476
469
465
472
481
477
465
459
462
457
449
451
454
452
449
449
453
462
469
465
467
476
487
497
500
505
515
531
559
587
612
637
665
691
721
749
774
798
821
826
825
818
815
828
838
838
830
816
796
768
745
720
694
675
666
648
623
598
568
537
512
478
436
404
384
375
376
380
392
402
416
435
446
450
445
432
434
445
446
448
453
464
471
470
465
460
452
452
455
453
448
439
439
439
444
444
445
449
454
456
456
453
446
446
449
451
452
452
444
438
447
465
471
464
456
452
454
456
457
458
459
464
466
467
468
468
466
461
452
453
464
470
461
457
458
462
463
456
460
471
476
473
470
476
483
485
484
489
488
477
480
487
483
474
476
482
477
479
483
486
483
486
493
499
497
486
484
491
499
500
493
484
481
486
497
495
487
492
499
503
504
502
506
512
514
511
506
505
501
500
503
506
511
509
509
508
508
512
514
519
521
525
528
530
534
532
524
522
526
527
526
531
538
550
570
578
564
548
541
538
528
529
536
530
534
549
557
567
573
568
566
562
567
564
558
557
563
572
573
571
563
558
558
564
568
567
566
564
568
575
577
572
568
570
571
569
568
575
576
572
569
563
552
549
546
546
557
565
555
556
557
555
544
537
533
532
531
535
540
538
536
537
530
520
512
508
507
506
507
508
510
505
500
496
496
497
490
480
472
464
463
462
464
466
468
470
461
449
450
454
453
448
438
435
435
439
441
433
428
433
429
424
420
422
421
415
419
431
433
415
402
404
413
417
415
418
423
423
424
429
424
412
404
405
406
404
405
406
416
428
430
430
419
412
416
425
422
403
397
400
412
421
425
423
418
418
426
423
415
416
418
421
422
423
434
441
438
436
434
443
451
447
445
449
446
441
433
427
432
440
440
440
441
442
437
426
421
431
439
442
447
450
447
446
449
449
438
441
448
453
451
448
446
452
453
448
449
457
464
469
474
473
475
478
474
472
473
466
454
449
452
457
456
459
463
460
456
459
468
471
468
467
466
468
467
461
460
462
464
465
465
467
464
463
462
460
460
457
460
472
485
490
477
463
463
467
468
469
479
482
473
466
459
461
465
475
480
482
487
485
478
475
473
467
465
460
457
463
463
457
458
463
470
478
481
481
474
464
463
465
470
474
474
476
472
465
462
460
459
461
467
478
477
468
473
480
481
476
472
464
462
463
464
470
473
469
474
477
479
481
486
486
480
477
474
473
468
468
470
475
470
462
458
472
474
455
453
453
459
467
472
477
479
486
490
482
480
479
475
476
477
474
473
471
472
474
480
483
483
477
475
477
467
460
469
483
493
480
464
464
467
470
475
477
476
475
468
469
477
485
479
467
468
473
479
484
484
476
468
466
473
476
468
460
462
469
476
477
477
482
482
479
469
473
478
481
483
487
485
483
488
490
482
474
468
469
477
478
476
476
482
488
483
482
492
484
470
466
471
482
488
487
478
474
479
486
482
482
477
476
480
484
485
488
490
490
487
488
492
491
486
481
478
480
479
480
483
483
483
487
489
483
479
480
480
478
474
473
477
478
474
474
475
474
470
469
471
477
489
494
495
494
486
480
481
486
482
470
465
461
465
470
478
481
482
476
479
488
496
492
487
483
482
488
491
494
487
482
485
486
488
483
488
494
498
490
475
464
466
471
481
485
472
470
477
480
477
482
481
481
489
499
505
510
506
499
496
495
492
496
508
517
510
508
512
510
496
487
485
483
482
483
488
493
500
498
495
498
504
507
505
506
503
502
508
508
504
512
525
515
504
505
510
513
513
518
527
531
526
522
516
511
514
522
525
517
518
520
520
516
513
514
522
512
491
494
508
509
502
495
494
486
479
474
472
474
477
479
478
472
466
461
466
466
471
472
474
473
466
465
472
479
479
483
482
478
468
467
469
473
479
480
472
470
473
469
465
466
467
473
473
473
470
470
470
468
470
472
469
469
475
482
483
476
473
467
466
467
471
475
468
461
457
460
461
458
461
459
455
460
466
472
468
463
462
467
472
480
488
494
501
511
524
542
568
595
622
649
679
705
735
776
807
831
841
830
817
814
820
833
847
854
840
818
788
762
725
682
659
648
634
613
590
562
534
507
474
432
394
377
376
379
386
397
409
418
419
416
415
419
427
429
433
440
438
437
444
462
479
485
482
476
465
461
461
462
463
464
456
449
445
443
442
442
442
441
444
456
465
459
449
452
458
459
460
460
451
441
444
446
451
454
456
458
460
460
457
451
453
456
456
450
444
452
454
460
468
470
467
466
463
465
472
475
478
469
463
465
474
478
477
473
476
484
483
482
479
478
475
475
477
483
488
488
488
492
498
504
501
504
509
492
476
470
474
491
497
503
505
505
505
499
498
498
499
497
500
504
507
511
511
504
496
499
508
519
516
508
509
513
514
512
524
536
533
531
532
533
537
533
519
511
513
519
525
528
528
523
529
537
544
549
542
542
551
558
559
551
553
569
575
562
558
557
559
561
556
558
557
557
554
553
560
570
571
573
579
586
584
579
581
579
576
574
568
563
558
557
563
565
570
573
572
568
558
551
557
564
562
556
551
549
553
552
546
529
518
528
547
546
542
544
549
546
539
531
527
531
527
527
525
517
511
513
512
504
495
488
492
496
494
490
487
485
482
480
474
469
468
469
467
466
466
455
440
438
440
443
435
430
430
430
429
429
425
425
428
410
413
418
421
417
416
416
416
418
417
421
420
415
411
412
420
421
420
416
420
423
425
418
405
404
406
402
400
405
407
407
407
404
409
412
409
403
400
407
417
416
417
427
436
438
438
430
417
414
417
417
418
420
426
429
426
427
429
427
422
425
433
441
444
447
447
446
443
439
430
426
425
429
432
438
447
455
450
446
452
455
449
453
462
465
443
431
433
437
439
446
452
452
451
454
468
468
455
448
451
454
454
449
451
456
459
460
461
462
454
459
464
466
465
461
463
470
471
464
457
460
459
452
451
454
465
473
477
480
485
482
471
462
458
461
462
461
461
462
462
462
461
464
473
477
474
474
476
479
486
483
470
465
461
460
462
469
476
479
479
472
469
468
469
464
457
455
465
475
479
476
473
470
470
471
471
463
454
457
469
476
467
470
477
474
470
464
463
465
467
475
480
487
479
467
462
461
465
469
471
473
472
474
475
471
468
467
465
464
468
468
466
464
466
469
469
465
467
467
470
476
473
465
464
473
479
479
478
472
470
466
471
476
479
480
476
474
480
482
479
468
462
466
473
474
468
465
463
465
470
471
469
467
464
466
467
468
470
473
477
479
486
494
484
472
468
465
464
464
468
473
470
462
457
455
454
460
470
479
484
481
480
475
471
471
472
473
471
474
481
488
492
484
479
480
479
474
474
477
479
480
479
483
480
464
466
475
478
476
479
483
485
484
482
482
481
483
486
482
472
466
475
475
474
481
483
485
489
489
485
485
489
490
490
484
476
470
468
474
480
481
479
478
483
487
485
483
486
485
479
475
481
486
479
468
461
462
470
483
492
487
485
486
483
484
486
479
473
470
468
474
484
487
484
486
491
484
475
480
488
478
473
474
475
484
491
494
490
489
486
489
496
486
478
480
484
486
487
479
477
480
478
480
483
484
488
488
483
479
480
483
492
496
495
494
491
494
497
499
495
501
508
502
499
506
509
499
488
490
499
503
499
496
499
500
504
505
503
507
509
508
502
500
498
494
497
505
512
516
517
522
521
520
527
529
523
522
517
510
508
510
514
520
521
523
519
517
514
513
512
507
510
509
503
500
497
491
487
489
494
495
481
470
464
464
468
463
461
464
465
461
463
458
456
459
463
460
466
472
462
449
450
454
462
473
480
483
484
481
475
470
473
478
482
478
469
464
463
463
465
466
466
473
477
472
471
473
471
470
471
474
479
475
475
475
464
459
460
460
462
464
463
462
457
452
453
460
469
469
459
456
465
472
486
498
500
512
534
557
584
616
655
690
710
736
768
794
812
833
844
841
836
835
846
852
847
839
833
814
776
733
694
667
653
643
623
591
564
536
509
480
445
410
385
373
371
378
387
386
387
399
420
420
406
412
419
425
439
453
455
458
460
459
460
465
463
464
466
467
467
455
449
451
449
446
450
456
457
455
453
449
443
439
445
453
459
464
469
466
463
459
457
457
456
453
447
438
438
446
452
452
454
459
465
453
444
450
463
471
468
464
465
457
441
444
453
460
457
460
465
470
472
471
475
480
479
472
468
469
471
468
466
473
481
487
484
484
489
493
488
487
492
484
475
473
474
477
480
480
488
498
504
511
515
511
504
499
494
498
504
505
505
508
516
520
519
518
515
509
512
510
507
513
515
518
517
518
523
539
549
535
521
513
509
510
514
524
536
526
526
541
546
543
541
537
536
531
532
538
548
553
552
554
559
563
564
562
561
560
563
557
550
554
557
563
564
561
566
574
573
571
572
571
572
568
565
567
572
580
580
576
573
575
574
573
572
573
577
569
558
555
559
562
564
575
582
566
554
551
548
546
549
550
547
545
545
547
544
540
536
536
536
534
530
527
524
521
516
509
497
499
497
489
490
484
479
483
488
487
480
477
473
472
466
466
467
459
456
447
438
437
443
445
440
430
425
425
423
425
428
424
424
417
409
409
413
414
405
402
407
410
410
408
416
417
411
412
410
404
401
401
401
408
408
408
400
398
400
406
415
415
404
402
405
409
421
423
422
420
418
416
414
409
410
406
410
412
417
426
427
428
420
410
410
411
410
409
411
419
420
424
428
425
435
436
434
433
435
434
438
444
451
444
433
436
444
448
448
451
446
438
433
432
430
427
430
443
453
447
448
453
449
447
453
455
452
452
452
454
452
451
453
455
457
455
451
452
453
449
448
449
452
457
457
458
464
464
463
466
470
476
468
452
446
459
472
473
472
475
473
477
477
464
462
463
466
467
468
466
466
468
470
471
472
469
464
465
470
470
469
474
467
458
459
462
467
471
470
472
471
467
468
469
468
469
469
468
469
467
462
467
478
479
471
468
469
468
467
467
469
465
464
459
454
456
457
456
459
465
470
468
464
467
466
462
464
468
472
466
462
467
463
450
455
471
475
477
483
486
480
476
476
481
485
478
471
465
467
467
465
470
475
469
462
462
466
471
476
476
474
473
471
471
468
460
456
454
454
458
461
469
479
487
489
488
486
484
481
485
487
478
472
465
463
467
473
481
486
481
479
477
478
477
480
474
470
469
469
466
463
465
468
470
471
471
475
473
475
477
474
476
477
472
469
464
457
463
476
485
490
489
485
482
466
467
480
481
479
477
478
478
480
480
481
486
476
469
476
477
478
480
479
480
480
480
472
475
475
468
469
482
484
483
487
491
497
496
496
489
474
472
478
482
477
472
474
480
486
487
486
483
485
489
487
483
479
477
480
481
482
472
465
472
481
487
485
479
477
477
477
473
478
481
479
475
473
475
479
482
491
491
481
480
485
487
484
484
492
499
486
475
479
482
479
479
487
490
486
480
480
488
494
494
496
494
493
501
509
515
511
500
503
507
502
493
493
496
500
503
503
505
513
519
520
518
521
526
527
523
523
525
524
518
512
504
506
516
519
518
517
518
517
521
522
515
510
510
511
514
516
518
521
518
510
505
508
511
496
486
489
487
488
484
479
486
485
477
471
476
481
477
472
471
463
463
458
453
454
457
465
467
470
466
464
465
472
475
476
474
466
459
457
465
474
483
482
472
469
471
469
467
466
468
474
475
473
471
473
481
476
466
463
463
465
470
469
465
460
461
466
474
482
482
479
477
474
465
453
447
446
453
460
463
464
465
472
481
488
497
502
512
538
565
590
613
642
676
706
728
754
777
802
826
838
836
837
839
839
842
843
836
826
811
786
734
693
681
671
649
615
581
548
520
494
459
423
397
375
366
369
376
385
391
396
408
413
409
410
410
413
416
420
435
455
464
460
467
479
484
483
481
475
467
462
467
478
465
448
442
441
440
442
448
446
446
451
458
459
458
457
455
451
452
451
450
460
473
473
463
463
458
455
457
461
458
452
454
449
444
444
451
448
455
460
467
465
463
469
470
472
470
472
476
472
472
474
474
469
467
469
472
476
480
481
479
479
477
481
490
497
491
486
486
493
493
491
488
478
467
466
482
500
507
511
507
510
505
493
485
484
484
485
487
491
491
497
510
518
519
527
525
512
512
517
519
521
524
525
525
521
519
516
516
517
517
518
520
520
524
531
533
534
539
543
546
549
554
555
547
549
554
557
550
540
535
538
542
543
544
539
542
554
575
578
569
569
579
577
575
574
573
578
584
590
592
592
594
586
573
568
567
567
555
551
559
570
572
565
570
571
566
560
556
562
572
578
581
577
564
549
543
546
547
543
539
538
540
549
554
556
557
552
541
534
532
531
531
531
530
531
533
519
507
500
500
497
495
492
485
480
477
473
469
469
466
464
461
460
456
450
448
454
461
466
461
456
452
445
429
422
418
419
422
425
424
422
423
427
430
421
408
405
409
410
411
411
407
405
407
407
405
403
405
407
408
410
406
402
397
394
398
398
398
403
411
415
414
413
413
418
422
421
418
420
421
424
429
432
429
417
408
404
406
410
416
420
418
421
425
423
421
424
424
422
424
428
430
427
424
428
431
433
432
430
433
438
437
436
438
442
446
451
451
450
449
452
451
451
449
448
450
451
450
445
444
445
446
451
459
463
460
460
466
469
474
476
480
476
464
459
451
442
439
450
468
475
476
483
484
474
468
465
457
458
466
470
478
484
468
464
465
471
471
469
473
479
478
471
466
470
477
477
469
461
468
473
473
469
465
464
466
466
461
461
471
483
480
470
469
467
472
477
479
477
475
470
468
476
483
480
478
478
470
464
465
468
474
479
480
477
475
473
470
475
474
473
477
480
478
473
474
474
474
477
478
472
467
464
466
471
468
464
467
466
464
466
469
476
480
474
464
462
470
473
472
470
472
474
474
474
475
475
477
481
481
479
472
468
470
469
472
478
479
472
468
470
476
479
476
475
470
471
475
466
459
464
474
477
476
479
479
470
466
465
469
473
478
476
473
475
479
478
476
469
463
454
455
468
480
481
473
463
470
486
492
495
487
479
472
473
477
478
478
473
470
477
488
488
482
480
474
475
475
473
470
474
483
488
492
490
482
479
477
475
478
479
481
483
479
476
476
478
480
482
482
485
486
481
481
486
483
483
482
483
486
491
494
497
494
487
474
465
465
469
474
473
467
467
470
474
477
478
475
473
474
479
474
473
469
465
470
482
494
501
504
506
506
500
500
500
500
499
495
496
498
500
508
505
493
490
491
492
498
505
515
522
516
509
508
504
502
501
498
498
508
517
521
517
516
518
519
523
523
525
523
524
533
539
531
520
514
508
510
513
516
512
514
514
515
514
509
504
498
497
501
502
494
479
475
484
487
477
466
462
469
472
467
465
463
467
467
465
465
462
458
459
466
465
463
466
470
474
471
464
461
465
471
474
471
468
469
469
467
470
473
471
471
475
476
472
471
469
468
461
457
466
469
476
483
480
482
484
465
455
458
465
467
464
463
457
455
454
454
459
460
461
467
467
466
478
475
480
493
504
517
526
532
537
552
576
603
632
657
691
721
751
783
811
827
843
850
849
850
850
853
856
851
836
806
769
729
687
659
639
620
601
575
544
521
499
470
432
395
371
361
364
375
381
384
389
395
399
405
411
412
419
429
439
446
449
455
461
471
479
480
473
468
465
460
461
462
454
447
449
459
463
456
452
450
453
457
460
455
451
455
463
467
466
467
459
462
470
468
472
463
452
456
454
457
464
455
437
437
444
450
458
462
467
474
477
477
472
469
469
471
474
480
482
476
476
476
479
481
477
470
463
459
459
459
465
476
486
487
489
492
486
484
485
485
486
492
490
487
488
491
489
489
492
501
510
511
509
505
494
492
495
498
501
500
502
502
507
509
511
513
513
514
520
521
517
519
523
526
526
522
523
522
517
519
521
522
528
536
533
520
518
528
533
534
534
538
546
555
559
558
557
550
542
543
546
547
554
571
575
564
567
576
578
566
560
566
571
572
576
575
581
584
577
574
575
580
581
577
576
579
578
572
569
567
571
580
584
586
589
577
568
565
565
561
567
573
574
581
585
574
563
557
554
551
550
549
550
548
549
545
539
537
540
543
537
531
534
529
524
522
511
505
502
500
493
486
486
485
489
491
495
495
481
465
451
457
465
468
463
455
446
443
444
445
445
450
446
427
415
421
423
411
409
414
418
419
415
416
417
412
410
409
413
414
401
394
395
384
383
392
404
416
407
398
396
402
406
407
408
408
408
407
409
405
406
406
405
408
410
416
422
416
409
406
406
402
404
412
413
415
413
413
419
418
416
415
419
422
419
418
418
426
432
428
422
421
422
422
417
414
414
419
422
418
417
417
421
431
435
429
429
432
445
454
454
458
456
452
437
429
431
438
445
446
444
445
457
455
451
448
445
451
462
454
448
455
459
461
460
460
464
466
466
457
452
452
454
456
455
452
452
457
463
477
481
481
475
465
457
456
457
454
457
465
472
470
464
463
464
465
469
469
467
474
481
481
482
483
485
488
480
468
468
471
467
466
469
471
467
462
461
461
459
460
468
474
473
469
474
477
474
472
471
469
468
465
466
469
475
469
457
464
481
493
491
486
478
476
476
468
466
469
472
476
478
477
477
474
471
465
462
462
467
475
478
463
457
464
476
480
482
482
480
475
470
470
473
473
476
474
469
467
472
472
471
472
474
472
466
466
470
472
469
467
468
473
482
476
466
463
466
467
473
481
485
483
480
479
476
479
476
475
479
479
476
475
474
469
471
473
469
465
456
454
460
472
475
475
482
484
478
476
476
476
479
484
485
483
477
467
463
458
462
467
473
482
479
460
455
462
473
479
482
479
476
476
480
480
481
482
481
482
482
478
482
483
479
482
485
489
495
487
475
470
474
473
474
474
476
476
473
470
474
477
474
477
479
480
479
477
474
475
477
481
480
487
487
477
470
469
473
474
483
487
482
477
473
471
469
466
469
479
490
492
490
484
482
482
477
479
482
483
483
476
477
490
496
493
497
502
501
498
498
499
494
488
489
493
499
504
509
507
502
501
497
494
496
494
503
508
502
494
490
504
521
529
525
521
518
523
529
535
537
537
530
518
513
512
514
515
514
516
521
514
512
518
511
507
512
517
521
520
505
496
500
498
488
481
483
484
483
483
487
489
486
475
462
451
448
447
453
460
467
471
472
472
471
470
462
456
455
457
460
464
470
475
471
471
463
459
462
465
471
471
471
473
474
476
473
471
466
462
461
465
468
465
459
459
462
467
469
468
468
477
484
478
475
474
474
476
472
466
466
462
463
463
451
449
451
454
459
463
467
476
488
496
501
516
537
564
590
615
638
665
698
730
761
790
808
822
823
816
815
820
829
835
846
843
828
805
776
733
700
680
668
648
631
618
597
568
537
501
464
425
397
382
372
375
386
393
406
414
416
419
420
425
428
434
444
451
451
455
464
472
472
469
465
462
464
467
465
466
464
465
454
435
431
440
448
451
450
452
452
450
443
435
428
426
437
454
457
459
461
457
456
460
462
458
458
456
451
451
451
443
441
446
455
456
457
459
461
459
456
455
461
472
473
472
470
474
478
479
478
481
490
489
480
481
475
469
472
474
474
476
482
484
479
473
472
473
476
476
481
485
483
483
494
496
488
475
471
479
487
492
495
496
488
490
496
499
500
503
510
510
503
503
508
515
516
515
517
516
511
508
508
508
509
509
515
524
526
521
520
525
528
531
533
534
527
527
530
534
540
548
550
546
535
531
534
541
547
551
553
553
555
557
560
566
564
566
569
567
568
575
578
577
574
566
563
563
568
568
571
568
561
566
573
575
576
580
579
579
584
593
583
564
561
563
566
553
541
554
567
572
573
571
568
563
558
549
544
541
538
536
535
540
551
557
553
549
545
534
524
522
522
524
525
522
522
518
515
516
516
500
481
474
470
469
474
478
470
467
471
475
470
466
462
458
453
449
443
437
436
435
433
434
435
431
428
427
423
422
420
419
416
414
408
404
408
417
415
412
409
406
407
406
402
400
399
397
403
409
409
406
406
406
406
404
406
408
403
400
403
400
397
402
404
402
412
410
402
411
427
435
433
428
429
433
438
443
444
424
408
406
408
413
411
410
412
415
418
420
421
420
420
421
423
425
424
430
440
452
455
449
443
440
445
435
421
420
426
437
446
451
453
446
448
448
451
452
450
445
445
447
448
449
446
448
455
460
456
454
458
466
465
465
464
463
464
458
459
463
463
458
452
452
454
455
457
449
446
451
456
464
467
467
467
471
479
484
471
461
457
465
471
469
466
464
467
474
481
476
475
479
486
492
485
467
468
469
465
460
461
461
461
467
466
455
460
473
479
479
480
481
468
461
464
467
470
476
476
475
475
474
474
476
475
469
461
464
464
463
464
465
462
462
465
469
473
475
476
475
475
472
471
469
464
465
464
468
481
489
481
478
479
477
474
470
465
464
465
465
468
468
473
471
465
465
469
476
481
482
473
472
473
472
472
472
469
472
481
484
477
472
477
481
481
481
480
474
462
461
470
481
474
473
482
488
481
473
471
469
466
461
461
469
471
474
480
479
479
481
479
481
481
475
478
482
477
469
461
457
462
468
469
470
472
473
471
473
476
477
476
479
484
482
475
469
472
476
475
475
475
474
472
470
468
471
474
475
476
478
475
471
472
483
482
483
481
479
476
472
473
472
474
478
480
476
477
475
476
479
479
480
483
488
491
487
483
484
483
479
479
474
471
471
466
465
469
470
471
474
479
486
486
489
490
487
483
473
475
485
479
474
480
475
471
476
482
486
484
481
475
471
480
491
492
478
472
474
477
483
489
495
502
505
506
495
483
479
484
489
489
490
492
491
488
490
492
494
492
489
485
492
498
496
494
492
492
496
496
501
499
502
510
513
517
519
523
527
520
511
508
515
519
517
517
518
516
510
509
517
522
527
518
515
515
512
514
523
526
507
496
494
497
501
503
510
510
507
508
505
494
486
484
479
463
461
470
476
474
464
462
476
491
477
455
451
457
461
459
462
472
479
478
474
473
472
466
463
474
479
475
475
484
486
472
468
465
463
463
462
465
470
471
470
473
473
470
469
466
463
460
459
465
472
473
471
469
473
484
479
461
457
461
474
483
482
471
461
457
456
457
459
459
454
457
463
468
482
491
498
502
512
533
564
585
597
620
649
680
717
753
782
804
825
832
833
836
832
829
838
847
851
840
824
802
775
742
708
682
661
640
625
605
577
550
521
489
449
413
393
388
386
389
409
427
423
423
431
433
430
432
436
437
440
449
462
462
457
450
444
447
447
441
439
445
454
459
458
455
447
445
447
448
442
441
439
446
450
451
449
448
445
443
441
434
435
442
448
450
450
450
454
461
463
461
454
448
441
442
446
450
451
451
453
454
456
459
461
464
465
461
461
462
463
466
468
471
475
482
486
481
472
458
464
480
481
471
464
467
469
467
470
478
481
477
474
478
479
480
478
478
481
487
497
499
492
486
488
486
491
496
500
497
496
496
501
511
514
507
497
495
499
512
516
517
517
512
512
514
517
522
522
522
524
527
526
525
523
523
526
528
526
531
536
540
542
542
542
536
530
526
527
531
535
540
543
543
548
554
557
561
559
553
548
553
564
576
582
580
579
565
559
566
579
587
591
592
595
589
575
565
561
562
565
573
582
584
577
579
584
580
576
573
569
566
566
574
581
574
564
564
563
562
555
555
558
565
572
572
561
541
537
538
531
528
529
533
532
529
527
526
520
514
510
510
510
500
493
487
485
482
488
494
493
486
482
481
475
465
460
460
460
459
454
455
452
443
430
426
432
438
438
435
432
434
434
424
417
413
409
409
419
428
412
392
398
411
411
412
407
402
405
403
404
409
410
406
407
413
406
396
394
399
404
404
406
406
402
404
410
414
414
410
410
412
414
409
409
416
415
412
415
418
419
416
420
428
427
420
425
437
434
427
422
419
424
428
424
411
403
413
434
451
455
450
448
447
444
441
440
437
438
443
444
447
451
453
456
465
466
458
438
429
430
435
431
423
431
446
453
460
462
455
446
449
457
463
461
461
460
456
456
453
455
461
462
458
460
467
467
470
474
476
471
460
456
459
465
467
465
463
463
464
462
458
455
458
458
462
465
467
466
466
466
466
465
465
468
476
484
483
477
469
459
456
459
462
463
462
463
466
466
479
481
470
473
478
483
483
467
456
457
461
462
460
457
458
460
463
468
478
481
477
475
474
478
473
465
463
471
477
480
479
474
478
474
467
462
455
454
457
464
465
464
470
467
469
478
482
488
490
491
485
483
481
473
464
464
465
472
470
464
464
469
472
473
474
475
478
479
472
465
465
466
466
466
466
467
463
460
459
458
458
463
468
468
468
467
478
486
481
477
486
487
476
471
469
463
466
470
474
477
481
486
488
489
487
482
481
479
474
465
461
466
470
467
463
466
470
472
470
471
464
463
470
478
485
484
481
479
477
477
479
482
488
485
479
478
482
482
479
478
479
468
458
452
447
447
464
490
495
487
478
470
472
482
484
484
476
474
479
476
474
476
476
473
467
467
466
471
488
491
485
485
484
483
485
489
484
476
472
473
481
481
480
479
476
475
482
489
489
489
489
488
488
485
479
474
471
468
470
483
487
479
479
480
476
472
474
477
476
477
479
480
477
474
474
473
477
480
477
473
476
483
485
484
481
483
485
486
484
482
479
482
484
477
474
473
476
483
485
485
476
468
471
475
477
482
488
485
480
486
490
484
485
487
490
491
494
494
493
491
478
464
473
485
486
487
493
489
479
480
490
492
491
498
503
502
503
505
500
486
472
469
479
486
488
493
501
508
512
506
502
503
509
508
516
520
518
508
503
506
509
515
516
513
513
509
510
517
527
534
519
515
521
520
516
517
517
510
515
520
507
501
500
504
505
508
506
506
505
505
502
496
485
485
485
486
484
483
479
474
472
473
475
467
463
461
463
469
467
461
465
474
482
482
479
473
473
475
471
463
467
473
476
479
482
476
467
464
466
470
477
484
485
481
478
472
469
470
467
464
468
475
473
461
453
455
453
459
464
469
468
464
464
466
458
457
465
467
473
472
470
463
461
458
455
460
462
458
463
468
467
463
471
488
501
515
533
562
580
592
614
645
679
709
740
770
794
814
826
832
824
828
845
866
864
861
850
829
795
762
728
701
682
665
649
632
607
574
537
517
492
458
422
404
391
385
389
399
408
402
407
423
434
434
432
436
439
437
439
446
454
460
462
462
466
466
454
446
441
442
446
454
456
453
449
451
453
448
438
434
441
448
442
438
445
455
446
433
435
440
446
450
447
445
449
454
454
460
462
461
452
446
449
460
463
457
456
458
463
461
459
455
449
445
444
448
457
465
476
482
479
471
465
470
471
468
467
471
476
472
468
470
471
473
475
485
492
490
487
488
493
496
495
489
480
473
471
476
485
488
490
490
490
500
510
515
509
498
497
486
483
483
490
501
510
509
507
506
504
503
508
514
516
514
514
516
516
516
515
519
520
521
525
529
527
522
516
515
517
523
530
536
542
548
555
554
545
539
538
540
547
558
564
556
550
550
550
555
558
556
561
565
571
577
577
575
572
573
580
586
579
573
567
562
565
569
575
574
578
577
573
579
575
572
580
584
580
574
572
568
566
563
563
566
571
572
568
565
565
565
561
554
548
548
550
544
541
541
537
536
534
535
533
528
521
514
515
520
529
535
532
514
497
484
477
474
476
479
477
474
470
465
462
461
461
459
456
454
454
461
457
439
428
426
427
425
421
427
431
430
423
413
407
405
404
402
400
396
396
399
401
408
417
419
423
427
425
416
409
406
408
412
417
417
405
399
401
402
400
403
414
428
432
420
411
411
415
410
406
397
397
402
410
414
415
415
413
414
414
417
421
423
417
419
432
438
431
420
420
427
436
426
421
428
436
439
437
434
432
433
436
438
428
429
434
434
434
432
437
439
439
434
434
439
437
438
446
452
458
458
454
448
441
441
450
459
466
462
450
448
456
456
448
456
465
460
458
454
452
450
447
449
460
467
465
462
464
473
474
462
463
464
469
472
471
474
475
472
463
459
462
467
467
467
468
471
474
474
471
472
464
462
472
474
470
466
463
462
460
463
465
463
465
470
473
477
474
467
465
467
474
477
479
477
471
472
475
476
469
464
468
478
474
453
447
453
461
474
481
480
478
477
476
478
480
481
472
462
458
462
469
471
468
470
477
480
484
476
470
467
470
478
479
471
470
478
485
488
493
490
481
472
458
454
457
460
467
473
472
474
469
473
480
482
488
485
474
463
461
464
469
475
475
480
479
477
474
474
474
473
472
475
473
466
465
468
470
473
475
474
474
474
470
465
461
463
465
469
474
475
466
461
471
476
480
478
483
482
478
478
478
470
465
471
481
488
492
495
484
471
467
471
473
477
475
469
473
478
478
477
475
478
477
477
478
478
480
480
477
469
466
472
476
483
495
496
488
483
488
500
502
495
486
477
468
465
469
474
479
474
467
467
474
471
470
476
481
476
476
469
464
475
488
487
487
487
485
486
487
484
480
476
472
466
471
474
471
472
478
483
478
478
485
489
480
477
470
470
471
470
473
471
475
479
486
488
484
483
480
483
485
486
491
494
492
491
490
494
491
481
468
463
460
461
478
495
505
495
474
470
476
481
482
483
481
477
474
473
471
471
474
475
478
483
489
488
483
480
479
480
483
483
482
481
481
486
488
489
485
491
494
493
494
495
501
503
493
487
487
484
483
486
489
487
485
491
494
488
483
481
481
481
478
481
487
493
490
485
488
487
482
478
482
492
494
490
487
484
483
482
482
484
488
490
496
496
497
496
490
491
498
504
504
504
502
506
511
511
510
509
502
501
501
498
497
501
507
514
521
520
519
517
515
515
514
512
512
510
505
507
513
519
518
517
517
517
518
518
518
511
504
507
514
506
504
506
508
507
503
494
483
478
473
469
475
482
494
499
498
493
485
481
468
457
452
458
468
470
467
465
468
472
471
466
468
469
464
464
466
470
472
472
472
474
474
467
461
461
465
471
473
471
471
468
465
464
464
462
458
465
476
489
494
490
481
476
474
470
467
466
466
468
470
466
468
474
474
468
460
457
452
449
458
468
463
454
456
458
448
441
450
469
481
482
493
499
507
526
551
582
613
641
670
709
749
778
802
822
835
838
834
831
831
840
851
853
852
837
814
789
772
748
723
703
679
660
642
610
572
541
519
488
448
414
397
390
386
388
403
417
429
440
443
429
422
422
428
437
446
454
462
464
465
462
458
457
450
441
437
441
447
456
460
458
459
465
460
452
447
441
439
441
440
435
435
438
438
438
444
446
443
449
449
443
444
447
454
455
450
451
461
468
469
457
452
452
457
462
457
455
457
459
464
468
473
475
471
468
462
460
461
462
472
479
473
462
460
463
463
463
466
469
467
472
483
488
493
499
501
494
488
477
476
485
486
488
489
488
484
489
492
492
495
494
490
492
489
492
493
497
499
500
500
499
497
497
497
500
501
502
505
507
507
507
512
517
518
520
521
522
525
532
532
531
536
532
526
527
528
529
530
532
530
527
533
543
552
557
553
550
550
552
556
559
556
559
563
563
562
558
562
564
564
563
565
564
557
558
567
578
580
569
563
570
583
597
605
595
582
586
587
579
574
578
585
584
584
572
563
565
569
573
573
579
583
575
564
561
567
565
548
540
542
540
546
548
545
540
539
539
543
544
542
538
536
536
531
525
522
521
518
516
514
508
501
494
490
481
475
477
483
483
477
468
459
450
445
443
447
445
442
436
431
435
437
436
436
436
431
424
426
424
420
426
421
416
413
405
399
396
396
398
404
403
403
409
412
413
414
415
414
408
410
417
419
412
398
403
413
419
419
416
416
420
419
414
407
401
397
396
399
403
405
404
408
405
403
398
400
403
413
420
427
436
449
438
423
416
416
418
422
425
425
424
422
427
431
433
436
436
427
427
431
429
432
441
441
435
436
442
438
435
436
436
441
447
444
445
440
435
435
445
461
463
449
440
449
462
464
457
447
441
442
442
447
452
455
456
457
453
449
453
454
464
464
467
469
472
471
470
472
473
471
470
467
466
464
464
461
458
460
466
470
471
470
469
471
474
469
465
470
474
482
483
470
462
456
457
464
469
472
478
481
487
487
476
467
467
467
467
469
470
472
477
473
473
475
477
477
469
465
474
474
463
465
471
476
478
473
466
463
463
465
470
475
476
478
482
479
476
471
468
468
468
466
466
472
469
468
469
478
480
481
485
478
467
464
466
463
457
454
459
469
477
481
480
486
485
478
472
470
472
477
475
473
475
479
479
482
487
493
490
486
482
469
466
464
466
468
468
468
473
477
467
460
463
471
479
481
481
481
484
483
479
472
467
469
479
483
475
468
467
469
467
475
484
486
485
482
476
468
465
468
468
470
466
464
469
482
484
478
467
459
466
478
481
486
480
472
480
473
459
462
459
456
461
468
467
478
490
490
485
482
486
497
495
482
476
476
474
473
477
485
486
479
483
481
480
481
484
489
492
484
472
467
470
475
475
469
464
463
470
476
484
484
484
481
481
483
479
478
481
482
481
483
487
489
484
485
488
483
472
467
473
480
485
487
486
480
478
479
475
467
468
475
478
480
484
482
475
473
475
476
475
474
467
467
474
482
483
487
485
479
479
481
485
487
486
485
480
472
474
473
470
469
476
480
482
469
457
465
480
487
495
500
499
491
487
486
488
489
487
488
488
485
482
482
478
477
483
486
489
491
493
491
488
489
494
499
495
490
488
486
488
478
475
470
469
475
480
482
485
483
483
487
485
481
477
475
481
487
492
491
492
490
492
484
476
478
483
487
487
484
476
472
475
478
479
480
486
491
499
501
497
492
495
501
504
501
498
495
497
502
497
497
502
509
511
505
499
499
501
506
512
510
497
499
503
500
495
493
493
492
492
500
508
515
522
537
543
535
526
505
504
515
523
523
520
520
523
524
522
516
510
511
510
513
518
516
507
503
504
504
499
497
493
482
470
465
470
478
479
480
478
474
471
462
458
464
466
465
467
468
466
467
468
472
473
477
479
476
476
476
472
471
469
470
469
470
473
477
475
473
471
470
471
476
478
468
468
472
473
473
473
478
477
473
469
464
467
472
465
457
454
464
472
476
474
469
471
465
459
458
456
452
455
458
460
462
462
463
467
470
477
476
467
468
478
486
493
507
517
529
543
568
596
628
660
692
722
753
788
825
847
850
847
839
838
852
858
864
865
855
835
805
770
737
714
694
685
668
639
607
579
545
515
475
436
405
390
387
386
391
401
404
410
415
411
422
435
441
445
450
455
461
463
455
449
451
452
454
456
455
458
460
455
452
454
452
453
448
451
454
453
447
441
438
441
440
438
440
436
431
432
445
450
458
460
456
446
438
435
438
445
450
451
453
454
451
450
455
469
476
475
471
465
455
452
451
451
458
453
443
449
455
459
465
473
478
483
483
484
484
474
465
469
477
483
487
490
489
490
491
487
482
479
481
483
486
488
490
490
490
486
479
476
478
482
483
487
495
499
499
503
509
509
512
511
509
510
507
501
499
507
512
510
506
501
500
503
504
507
509
509
508
512
515
517
525
532
523
521
532
529
528
539
547
543
535
537
538
540
546
551
548
547
548
547
544
552
559
560
563
567
562
547
547
554
558
562
566
568
572
585
590
586
590
595
591
581
575
573
574
582
586
588
592
595
596
597
601
603
596
581
575
566
564
564
557
553
553
557
558
559
560
556
552
551
549
547
542
539
542
544
537
532
530
528
525
524
523
523
521
528
536
534
519
512
506
502
506
503
496
489
483
477
468
464
460
456
455
458
456
450
447
444
441
445
443
433
432
431
428
424
420
425
425
418
420
419
421
425
426
418
419
416
410
415
417
405
393
398
406
412
412
409
415
420
415
409
411
410
398
390
382
389
393
390
395
403
407
407
410
409
406
406
403
395
391
401
412
415
414
413
419
426
420
414
416
417
413
413
413
418
419
422
429
435
437
438
438
435
432
433
434
426
414
415
418
422
426
430
435
439
442
446
448
450
450
453
454
451
454
461
463
463
454
441
427
428
434
435
438
439
439
440
446
450
451
455
459
455
455
457
455
459
456
448
444
450
451
457
462
453
448
456
467
473
477
472
467
472
471
462
460
464
466
466
466
468
469
471
468
465
462
462
467
470
470
467
465
466
463
464
463
468
477
480
476
471
463
459
462
468
472
471
470
473
468
465
465
465
466
475
483
489
486
476
475
477
473
476
479
484
482
472
470
470
475
479
470
469
476
472
466
464
467
474
481
485
481
475
475
472
460
458
466
474
472
472
470
471
470
472
472
467
464
471
481
485
474
468
475
478
458
450
463
481
489
487
476
468
468
470
461
462
468
470
468
475
482
486
483
480
480
480
476
472
471
472
475
478
468
463
469
471
465
462
464
466
468
477
490
498
495
477
457
448
458
471
477
479
477
474
468
468
469
472
471
474
481
481
480
478
479
477
478
478
483
484
486
486
484
478
478
480
485
483
472
468
469
472
474
477
471
470
473
481
486
482
481
478
473
475
478
480
483
488
491
487
480
481
488
488
490
486
480
475
474
466
461
457
461
458
455
467
484
491
498
492
481
477
477
481
485
490
487
480
483
482
480
477
476
474
476
475
475
476
478
481
482
486
490
488
486
481
481
476
477
482
490
494
495
493
487
479
477
480
478
471
469
472
479
483
484
484
485
487
488
482
474
480
491
494
483
479
483
491
498
496
493
494
494
485
477
479
480
471
466
466
468
470
469
477
492
495
485
471
475
489
493
486
482
487
488
482
482
483
479
475
479
483
485
489
492
499
497
497
498
502
494
475
471
476
481
485
487
488
491
489
487
483
478
472
471
477
475
481
489
493
497
498
503
501
501
506
505
497
491
494
499
500
501
502
499
495
485
480
480
484
488
492
496
496
495
496
495
489
491
499
506
510
499
493
493
500
501
501
506
510
510
511
507
509
508
506
502
500
505
508
508
512
513
509
510
511
515
515
517
519
517
517
529
521
504
500
505
514
518
519
517
515
501
491
499
499
499
504
511
518
516
515
512
507
497
493
486
478
474
478
480
479
480
481
479
478
484
486
483
479
471
470
470
480
480
477
474
473
468
461
464
469
460
458
461
467
470
474
472
470
471
479
486
474
469
476
480
483
483
478
471
467
463
463
465
470
477
476
468
464
466
472
474
474
472
478
495
489
475
471
474
471
466
466
471
471
465
462
460
464
469
470
467
464
466
477
486
490
490
501
520
539
557
579
607
638
672
695
716
743
774
804
820
828
841
842
845
851
860
870
865
852
825
790
747
707
677
649
628
612
593
579
561
534
506
473
434
405
384
381
390
398
396
399
413
427
424
423
421
428
433
446
450
451
455
456
456
456
455
462
468
471
470
465
465
465
463
455
448
443
447
450
451
454
458
458
462
467
465
461
456
446
444
447
446
445
453
456
454
452
451
451
456
461
468
466
463
464
463
460
459
458
451
450
450
449
453
456
459
462
464
467
470
471
472
474
472
471
468
468
470
475
473
470
473
473
474
473
471
475
478
477
479
482
482
483
478
478
481
484
489
492
490
487
494
498
499
500
502
500
501
502
502
501
503
506
507
503
509
514
511
509
517
523
522
516
517
525
533
529
521
513
515
522
530
526
518
518
521
531
537
542
542
544
534
530
536
525
526
533
537
545
552
554
548
550
552
548
552
566
570
566
556
562
568
566
564
568
572
573
574
575
575
570
573
580
584
587
587
582
574
569
568
571
578
578
575
581
583
582
581
582
581
576
575
574
575
571
565
559
557
549
549
551
553
557
565
567
565
563
561
559
551
547
547
546
543
544
543
539
531
527
522
519
525
524
505
488
485
485
478
468
477
489
479
463
460
460
462
463
460
459
458
457
453
449
447
447
455
455
441
426
413
413
415
418
424
422
416
412
408
405
404
402
404
407
407
407
405
405
402
403
409
411
408
401
397
395
403
408
404
402
397
394
404
413
415
411
407
403
405
406
402
405
420
426
426
435
435
419
409
405
403
410
417
413
412
419
426
432
434
424
407
407
418
426
422
413
412
416
424
424
423
431
430
427
430
434
439
445
448
451
453
433
419
419
424
433
437
436
438
438
442
447
444
436
435
442
445
438
434
438
442
446
449
446
443
444
453
459
460
457
453
455
456
457
462
458
449
442
443
449
459
462
465
467
467
464
466
468
466
463
462
463
467
463
455
454
468
474
476
476
474
470
466
464
461
462
466
475
472
472
474
471
469
475
477
478
484
484
483
482
478
471
468
469
467
463
461
461
465
468
470
470
474
472
467
465
458
455
454
464
470
471
471
471
477
478
477
483
480
468
465
461
457
464
474
479
465
465
474
481
476
474
486
492
482
469
470
474
479
477
473
472
475
477
474
464
454
456
462
467
466
472
471
467
468
470
468
466
468
472
479
481
475
474
480
489
486
473
455
448
456
471
477
475
473
468
466
466
472
478
477
470
472
476
478
484
482
474
467
468
466
467
472
477
479
476
472
466
465
470
482
479
474
473
475
476
472
471
468
467
469
470
467
470
476
475
472
471
475
473
476
481
473
463
464
476
482
479
479
483
481
479
482
487
487
490
497
488
477
481
480
471
466
460
459
469
476
482
479
475
476
478
481
478
466
460
462
471
474
471
470
480
487
485
480
488
492
486
482
481
479
481
489
488
488
492
486
478
473
467
469
463
464
476
489
484
479
482
483
476
474
480
484
481
478
481
482
481
481
479
477
478
479
484
482
485
490
489
480
471
471
479
489
483
476
472
477
484
487
488
491
491
496
502
502
492
475
466
471
472
470
472
472
471
473
477
484
481
475
484
493
487
482
486
490
488
485
488
494
496
487
477
471
465
463
466
462
460
474
483
488
486
489
498
505
501
494
486
478
477
481
486
483
474
466
467
482
490
485
486
496
507
514
515
510
488
482
487
491
488
491
493
494
501
513
521
515
504
487
484
484
484
486
494
497
495
509
516
508
505
509
517
518
516
511
505
507
511
519
515
508
509
511
510
502
497
502
506
507
509
510
507
506
504
505
505
500
500
511
515
513
517
519
510
515
527
524
512
510
510
509
502
501
509
512
507
502
500
495
481
471
469
473
480
474
469
472
478
487
483
480
483
481
475
473
472
465
455
451
455
460
464
468
470
470
470
467
469
472
471
472
477
478
478
479
484
486
478
470
463
456
458
467
470
474
481
475
467
469
473
475
479
482
476
470
467
464
462
464
466
464
463
462
457
454
457
458
465
472
472
467
456
450
457
461
467
479
490
508
528
554
583
602
613
638
675
712
743
775
807
836
854
862
848
842
851
861
872
873
846
821
795
759
717
692
678
659
637
619
605
583
554
523
492
458
426
405
393
389
391
401
413
423
424
425
427
426
432
433
437
448
451
448
452
455
460
470
479
474
464
456
455
450
440
431
427
432
434
433
437
438
440
441
439
438
441
448
447
444
448
448
451
453
451
450
451
454
455
458
462
450
437
434
444
453
454
447
441
442
441
444
450
456
468
472
467
467
475
475
475
479
476
464
469
473
477
476
472
471
472
471
475
475
476
481
490
493
494
490
489
484
481
479
476
471
472
476
479
480
485
488
489
488
489
486
482
484
484
492
503
514
513
503
495
490
493
495
499
504
508
513
513
509
512
512
511
509
507
507
515
520
521
516
515
525
533
531
538
540
536
522
517
525
530
530
533
535
534
533
539
548
550
544
543
549
554
557
561
561
557
555
556
561
565
567
564
564
570
574
580
585
587
584
582
583
586
582
578
572
565
561
569
586
594
593
591
581
575
574
570
571
572
577
580
587
589
571
560
557
562
567
570
567
564
564
567
568
557
550
551
558
549
531
521
524
537
544
535
518
513
520
522
522
523
526
520
510
504
500
495
491
484
480
476
473
472
469
465
460
455
456
454
454
450
441
436
437
438
437
434
432
427
419
415
414
412
412
415
414
413
413
408
402
405
414
419
419
417
414
414
413
413
410
408
403
405
407
400
396
403
405
398
402
409
409
415
420
422
428
424
425
422
411
409
410
408
402
399
395
400
408
414
413
414
428
428
416
412
416
416
427
435
440
441
430
423
420
420
426
427
420
425
434
438
440
440
441
444
434
430
431
434
427
414
420
437
449
450
444
436
436
443
451
453
450
449
452
454
454
452
451
452
454
456
454
451
449
450
454
455
459
459
456
455
452
453
456
459
462
462
460
464
469
466
464
461
460
460
458
454
457
468
477
480
466
458
460
469
474
475
476
480
477
475
471
468
465
467
465
469
472
475
472
467
468
470
480
490
477
463
455
457
459
467
469
462
468
478
481
482
482
485
490
486
472
469
472
473
473
468
468
477
476
474
473
472
470
467
461
459
470
478
473
471
476
478
472
469
468
470
474
481
485
490
487
483
478
473
471
471
469
472
479
485
488
492
491
484
475
470
469
470
468
468
470
467
470
475
475
474
478
480
481
477
471
470
472
475
474
477
483
479
467
465
469
472
469
467
468
470
470
472
479
487
490
491
478
467
472
481
486
473
466
473
480
480
483
482
483
480
474
481
488
487
488
490
481
470
467
474
480
479
477
480
484
483
476
472
485
496
494
486
488
490
481
473
466
461
463
470
475
476
479
477
473
472
474
475
483
491
488
469
460
471
487
484
468
483
498
495
485
479
478
480
485
488
488
491
499
494
480
472
470
471
470
475
478
478
483
492
491
490
482
477
480
491
488
477
477
483
485
487
489
490
491
490
489
487
487
486
480
476
471
473
480
486
488
487
488
487
482
485
486
478
475
480
481
480
480
483
483
489
494
492
492
492
489
485
481
480
486
490
488
486
485
479
484
490
487
480
478
483
489
492
488
477
473
480
475
472
477
488
493
492
484
480
483
487
486
483
475
470
472
481
490
496
495
490
487
483
483
483
481
480
484
487
492
498
487
482
482
483
482
482
482
481
483
485
485
487
491
495
493
489
489
492
494
494
497
500
501
502
508
503
485
474
464
461
468
474
483
480
476
478
482
485
486
490
492
490
491
489
484
481
489
496
496
493
492
492
496
496
497
501
507
504
495
493
495
503
507
509
508
503
504
510
514
514
517
522
524
522
520
520
526
524
514
507
505
513
525
524
520
516
514
509
504
505
508
509
507
505
511
514
514
516
522
523
528
524
519
519
519
523
526
525
518
517
516
518
516
510
502
497
495
498
510
517
513
500
498
491
473
459
460
471
471
462
459
462
472
476
470
482
481
460
451
456
466
470
474
477
475
468
466
471
476
476
477
475
471
469
466
469
473
471
463
459
465
475
479
471
466
466
465
463
463
464
463
461
470
481
482
475
468
472
479
481
482
482
482
481
474
472
471
472
468
471
464
450
449
462
473
464
462
468
479
490
497
511
534
558
587
616
644
672
705
739
770
796
817
832
839
835
842
849
855
858
858
862
855
839
809
779
748
725
698
672
656
632
605
584
551
521
499
475
447
424
406
394
392
395
405
420
434
440
442
430
420
425
433
444
453
458
462
465
465
458
454
455
458
460
457
454
443
437
435
428
429
433
436
433
431
432
435
437
436
434
437
438
440
440
438
439
443
442
444
444
452
457
460
462
457
449
447
446
446
448
457
456
458
461
466
471
471
461
450
455
466
470
467
470
467
457
460
471
470
471
471
478
487
483
472
464
463
465
469
472
474
478
483
486
484
487
492
489
491
497
502
490
480
478
484
490
491
491
494
499
505
506
501
500
499
499
499
493
491
493
497
496
493
494
498
507
518
524
517
512
507
507
507
509
511
512
511
516
519
519
519
521
523
522
524
527
527
531
533
529
530
537
541
543
553
557
548
549
559
566
561
554
553
555
551
545
539
539
550
564
574
579
577
573
580
587
587
578
572
574
576
570
565
566
575
587
591
578
570
574
581
585
589
588
583
577
582
586
585
584
578
574
570
566
563
559
562
563
560
557
555
553
551
545
541
540
546
544
541
543
544
541
536
530
524
523
522
517
516
515
509
502
502
504
503
497
488
484
488
492
492
487
474
464
462
456
436
425
423
419
419
428
431
430
428
427
429
434
439
435
436
428
411
401
406
412
413
407
399
399
403
404
402
405
415
410
408
417
418
411
409
409
407
406
390
385
403
415
414
410
408
406
406
411
414
406
401
414
408
399
400
405
414
423
432
427
419
415
413
409
411
418
422
428
432
427
428
429
428
429
430
431
433
440
443
439
441
439
431
431
435
442
440
439
441
444
444
444
445
443
437
437
439
438
450
454
451
450
449
452
453
452
451
444
436
435
433
445
465
477
474
467
457
452
455
453
452
455
459
456
456
457
451
454
460
459
459
461
462
465
464
467
469
469
466
460
462
466
475
471
463
471
478
471
469
467
459
451
448
453
456
455
455
453
456
458
463
470
474
468
461
467
471
475
473
471
474
473
471
470
468
465
470
477
476
477
477
483
490
485
473
474
476
474
473
476
476
473
472
471
473
476
474
469
468
471
477
480
479
477
477
474
478
483
482
486
483
480
476
477
473
469
470
471
470
473
480
481
479
473
464
464
471
474
469
474
482
491
492
488
479
473
465
465
471
470
467
469
477
478
477
474
472
475
478
481
484
479
476
479
478
477
470
465
465
471
477
480
475
466
464
462
460
461
465
467
467
466
472
481
480
486
486
479
474
473
472
467
474
482
488
491
485
476
466
465
470
470
472
478
481
478
477
469
466
471
479
483
487
488
482
479
478
475
477
483
483
480
473
474
478
481
475
477
478
480
478
475
476
480
481
481
484
482
479
479
481
486
489
491
488
483
480
480
481
483
486
482
480
479
477
480
483
483
489
492
484
478
478
479
480
486
485
476
472
475
487
496
498
496
495
499
494
480
466
468
471
472
475
482
481
478
479
477
480
483
479
475
472
470
474
483
488
494
494
493
490
486
480
479
479
487
493
489
479
462
462
466
471
477
480
489
497
498
494
486
491
495
484
476
474
476
477
474
465
460
469
483
489
490
491
491
493
487
483
495
502
495
491
491
487
486
484
481
482
485
483
482
486
493
496
499
505
506
493
483
484
487
485
485
484
486
487
489
482
475
473
471
473
481
493
502
501
495
491
493
490
494
495
494
489
482
477
483
486
485
480
477
475
480
487
488
484
482
482
482
478
478
487
493
497
505
504
495
488
488
485
486
501
505
505
514
517
505
493
494
502
508
505
494
493
493
488
491
499
504
509
511
506
500
499
501
507
511
516
514
516
525
527
519
503
500
503
506
509
509
505
507
515
522
525
523
520
513
513
515
522
514
507
506
505
512
516
521
525
520
510
506
505
505
507
507
506
502
505
499
495
487
480
476
480
479
469
463
462
461
461
461
463
465
468
472
475
469
466
474
480
475
469
465
469
476
476
474
471
475
467
460
463
474
480
481
482
484
481
483
484
485
481
487
488
476
465
465
463
466
462
454
455
458
459
462
464
468
469
474
469
459
451
450
451
455
455
456
452
453
458
456
450
455
463
473
483
487
495
514
536
557
585
618
644
667
707
747
775
800
825
847
853
847
844
842
845
853
856
848
834
808
776
751
738
733
719
697
667
638
611
583
558
535
505
463
431
425
410
391
386
393
403
414
426
430
428
428
428
429
432
437
444
453
457
463
466
468
463
458
454
450
449
451
453
448
447
448
443
435
433
431
434
440
444
436
433
434
432
434
440
444
445
445
444
438
440
446
451
448
453
458
456
454
459
462
455
450
454
451
447
452
455
455
451
448
451
460
468
465
462
464
468
468
471
478
478
478
486
484
476
472
478
485
478
468
455
450
461
476
482
481
474
471
476
477
477
480
479
474
477
486
490
497
494
483
483
486
487
487
487
495
508
510
510
512
509
510
507
508
501
502
505
506
507
504
505
507
511
513
508
508
514
527
531
520
521
528
533
535
527
521
524
533
540
538
543
549
542
532
529
530
539
543
541
543
548
554
552
550
550
551
559
566
572
568
559
560
572
572
567
571
581
587
588
588
588
593
596
596
589
578
570
570
570
570
572
574
576
572
575
582
583
576
574
579
575
575
582
587
582
563
548
546
550
548
542
538
540
544
552
557
557
552
544
538
535
530
526
521
517
526
527
512
514
517
512
514
509
504
500
492
489
489
491
487
486
482
477
471
468
467
465
459
456
453
447
435
425
424
429
432
435
435
436
438
445
448
428
419
424
424
419
418
416
414
420
426
428
423
413
405
399
392
387
385
388
394
401
407
412
405
396
392
396
401
405
410
412
406
399
403
407
410
410
410
414
415
411
407
406
412
421
424
424
421
419
417
408
403
409
418
419
417
423
434
429
421
418
420
421
419
427
436
438
438
436
431
432
436
443
446
437
435
439
442
446
450
452
452
448
444
441
447
449
444
438
440
450
452
444
441
444
450
449
450
454
456
460
463
460
459
455
451
450
454
456
456
457
456
451
453
452
458
463
465
469
463
458
454
455
465
463
462
459
462
466
468
469
471
470
469
467
467
466
466
471
479
480
478
473
474
474
474
471
468
470
470
469
464
464
470
473
464
461
461
468
476
478
475
475
477
473
475
483
477
470
469
469
473
480
484
486
493
492
489
474
460
451
452
466
473
481
487
491
493
485
475
470
467
478
483
482
478
471
470
480
498
504
494
482
475
474
475
463
461
459
452
453
461
468
466
464
466
468
475
480
479
471
464
465
469
472
470
472
478
476
474
471
473
475
476
472
471
467
462
458
459
460
467
477
478
475
482
481
480
477
473
473
469
467
468
472
475
476
473
471
474
480
483
481
480
480
479
477
481
486
478
466
467
475
480
482
479
475
475
474
472
467
463
464
471
476
484
489
484
478
475
472
477
480
484
488
485
482
479
480
486
487
482
488
492
493
486
480
490
503
506
487
464
457
455
458
463
468
472
476
470
465
467
471
477
488
486
478
478
478
480
480
475
472
474
484
478
470
470
473
479
478
478
481
483
482
476
473
476
473
470
467
464
471
481
481
478
474
473
482
481
463
460
468
478
493
502
499
487
479
478
479
479
479
479
481
482
478
478
481
481
482
477
471
473
476
479
480
478
482
486
489
487
484
479
475
481
489
485
481
479
480
490
497
498
492
486
480
479
480
485
487
479
473
475
478
477
476
476
476
481
487
491
495
489
483
487
492
495
490
484
482
484
483
483
486
479
472
478
489
490
498
500
496
496
494
490
487
484
477
473
467
472
479
480
477
483
487
476
470
469
475
481
479
476
484
491
492
481
482
494
503
503
499
497
502
509
509
505
508
501
498
499
500
503
504
503
507
503
492
486
489
498
505
508
512
514
517
523
526
515
508
509
508
515
520
517
515
510
509
507
503
503
505
506
508
511
510
509
509
511
508
510
514
515
510
507
509
509
513
512
508
508
512
513
514
511
505
504
510
511
505
496
489
477
473
478
494
489
464
457
455
454
456
455
462
473
480
483
484
482
489
496
490
488
480
471
467
463
456
460
467
464
463
465
466
465
466
468
476
473
465
456
451
455
458
459
458
458
460
463
466
477
485
486
482
474
466
466
474
480
473
464
459
454
447
451
455
454
455
462
462
458
467
469
466
467
469
476
483
489
486
489
516
545
569
597
626
653
674
702
732
763
792
819
835
845
837
831
834
845
860
869
862
847
830
806
772
738
718
701
689
670
639
620
590
545
514
482
446
416
397
392
398
405
406
414
425
433
437
439
430
422
427
434
441
440
438
434
441
447
446
447
449
450
451
451
450
449
447
446
448
449
449
453
451
445
445
443
440
446
447
441
436
433
429
432
437
437
444
443
442
439
437
440
444
447
452
454
447
444
449
453
456
459
462
465
464
458
460
460
460
462
461
469
475
473
464
459
457
460
465
463
464
461
461
468
475
479
476
474
476
476
477
481
484
481
481
481
480
483
487
490
491
483
482
489
493
491
489
489
497
506
498
497
497
500
500
503
505
506
503
505
507
507
510
513
516
514
511
514
518
518
517
515
520
520
519
525
522
520
524
529
529
525
524
527
536
536
525
520
527
538
543
543
544
547
550
557
556
553
555
556
556
560
567
573
570
575
581
571
562
562
565
570
574
577
582
592
593
588
578
569
564
571
580
580
567
562
562
568
573
580
588
593
590
591
593
586
578
576
571
572
572
570
565
562
563
564
563
561
564
558
553
552
551
544
542
545
547
539
536
533
533
528
526
523
518
516
507
490
486
495
505
510
509
505
499
489
474
467
471
474
467
462
462
463
458
453
450
447
442
436
436
435
432
429
426
428
433
422
415
417
416
413
408
409
414
407
401
404
405
404
402
406
411
412
411
410
411
406
398
393
404
407
399
395
398
402
414
430
434
436
445
437
418
409
399
385
386
392
397
400
403
400
401
405
411
414
414
419
431
440
433
427
417
415
422
425
421
416
418
420
424
424
426
431
435
434
432
435
440
440
438
435
430
429
433
446
450
440
432
433
435
443
445
445
445
445
444
444
445
447
451
451
451
455
457
456
455
456
460
459
456
460
456
449
447
450
451
453
457
458
460
463
464
459
457
461
462
462
472
475
471
472
478
479
469
465
467
466
461
458
461
465
469
470
469
472
474
476
474
470
470
468
465
463
464
462
471
478
479
478
470
461
454
460
467
463
461
468
476
466
455
460
464
469
480
486
481
481
481
483
481
470
457
458
470
479
483
492
490
487
490
490
484
478
474
469
463
459
461
463
465
473
478
474
476
481
474
473
471
467
468
470
471
479
481
477
476
474
472
472
475
480
483
481
478
477
477
468
461
463
468
477
479
475
476
477
474
472
470
466
468
474
478
472
472
471
476
479
478
476
475
476
475
473
474
472
472
475
479
485
478
470
471
473
476
475
474
476
473
480
482
476
472
475
477
478
470
471
473
469
470
475
480
486
491
482
474
466
466
465
469
469
473
480
484
481
473
479
491
487
478
475
476
479
487
490
479
465
465
464
459
465
481
485
474
472
480
490
507
508
486
477
474
474
476
477
481
482
485
487
487
484
468
460
465
476
481
481
482
483
485
488
487
483
479
475
473
473
472
473
470
478
480
473
472
480
480
477
477
483
491
490
484
480
481
480
480
479
479
481
482
479
477
479
479
479
482
486
485
483
488
487
483
483
483
484
482
482
479
476
483
499
501
492
487
487
490
483
472
471
479
491
496
494
489
477
474
479
463
464
476
485
486
482
476
475
475
476
482
487
489
486
482
484
485
488
490
488
483
484
489
489
479
470
475
482
482
484
481
482
490
494
484
480
477
474
470
468
474
480
480
493
501
497
493
492
495
499
495
493
495
498
499
497
496
502
508
511
507
504
501
503
499
495
494
495
494
496
502
506
510
509
510
508
511
515
515
514
513
513
514
511
505
504
511
510
503
501
507
512
514
513
505
499
508
519
518
516
519
522
523
524
524
523
518
515
522
533
539
528
515
502
500
497
495
499
499
493
489
492
495
499
494
475
467
464
462
465
467
461
457
454
455
458
463
472
480
479
473
467
459
455
459
464
469
472
477
478
477
475
473
473
470
466
464
463
466
470
475
477
470
466
472
475
475
474
475
475
478
478
472
466
463
457
458
461
464
465
468
472
468
458
454
453
459
467
469
468
472
470
463
456
463
471
481
487
492
492
499
510
521
534
554
583
608
637
673
711
745
772
797
818
843
861
859
854
849
849
854
854
851
837
808
772
732
696
670
655
639
620
596
580
560
532
501
460
421
383
361
367
383
392
400
409
413
408
408
416
424
428
435
437
434
435
444
456
464
461
456
457
463
467
471
467
467
467
465
462
464
461
453
442
445
450
445
445
448
450
454
447
447
450
439
436
445
457
464
458
450
447
451
453
457
462
460
456
453
452
450
450
454
454
456
451
451
448
455
468
473
467
466
468
466
467
471
474
473
473
477
475
474
474
474
475
470
471
481
484
483
484
491
498
499
495
490
488
487
491
492
492
495
494
492
492
494
492
501
511
506
504
506
501
500
510
509
497
494
494
494
494
502
510
521
525
523
517
521
529
536
535
530
532
528
522
522
526
528
530
534
539
543
540
533
527
530
536
544
546
542
541
542
539
538
541
545
541
534
540
551
554
551
552
557
559
557
565
572
577
582
584
584
582
582
583
584
580
581
584
587
586
585
584
585
589
591
589
585
589
587
585
578
578
586
590
583
579
580
581
584
589
575
560
555
553
552
558
567
565
563
559
552
549
548
538
530
532
541
544
532
527
521
520
522
518
513
500
496
499
501
505
503
499
498
491
482
476
471
466
460
457
453
453
455
450
444
442
441
438
432
429
431
433
429
423
422
421
415
414
416
419
429
429
420
408
396
392
397
400
392
384
383
378
384
405
411
404
397
397
395
396
395
392
392
397
402
407
404
404
403
405
410
417
422
419
410
408
404
403
403
402
406
413
425
429
427
419
418
421
417
411
413
423
425
416
410
408
417
425
429
432
441
438
431
425
421
424
427
422
422
424
427
431
426
425
433
437
438
433
429
431
433
438
440
442
443
447
448
441
439
441
447
452
454
453
448
447
448
450
454
453
449
446
449
448
447
448
450
454
461
465
466
464
461
456
455
466
471
478
482
486
476
459
450
450
456
452
451
455
457
467
472
467
463
470
477
479
479
484
480
469
463
459
458
460
466
470
466
467
478
487
491
476
468
471
470
472
471
471
472
477
479
467
460
463
462
464
470
479
474
476
477
475
472
468
458
448
449
459
468
478
482
482
476
469
460
458
459
462
464
465
463
459
459
466
472
478
477
468
455
455
465
470
472
471
469
470
471
475
477
479
484
481
483
483
479
479
482
485
480
474
471
471
475
471
467
469
474
469
465
466
474
482
484
481
477
473
479
489
482
476
478
479
477
478
477
474
464
461
461
465
467
469
473
486
484
470
462
464
471
482
491
489
469
461
462
467
472
481
483
474
471
466
465
472
478
472
468
464
450
441
443
452
461
461
465
469
467
461
467
472
474
477
472
473
484
489
481
471
471
472
477
484
485
485
476
469
470
477
479
480
481
482
483
481
479
472
467
469
473
477
478
477
476
477
480
472
469
469
475
477
476
471
473
480
479
483
494
494
495
487
486
489
486
485
474
471
476
476
473
473
477
481
479
486
497
500
492
479
472
470
472
474
478
482
481
482
485
487
488
488
485
480
480
478
478
477
470
464
468
473
479
483
482
480
476
470
470
479
483
475
474
474
477
482
483
483
488
492
484
481
482
489
494
491
481
472
470
469
473
478
482
480
475
476
478
482
492
496
499
497
495
499
501
495
486
481
480
482
479
481
482
484
488
489
485
488
492
490
484
479
477
483
482
487
495
486
480
480
479
484
487
492
492
487
485
486
484
486
489
489
492
493
495
492
486
486
487
491
491
492
495
500
504
506
504
502
501
506
510
512
511
504
497
488
487
492
492
496
499
500
492
492
497
506
521
528
527
520
511
507
513
515
516
517
518
521
520
520
514
506
502
506
514
519
523
521
513
508
514
513
511
511
523
536
533
520
512
512
513
511
503
505
510
501
492
486
480
473
470
472
472
469
473
472
469
469
468
469
469
468
466
461
461
460
463
466
472
469
464
462
466
467
469
471
474
474
477
475
473
478
476
476
479
479
475
473
474
474
475
475
478
481
479
481
481
482
485
484
477
464
462
463
463
462
466
473
480
487
495
490
487
476
470
467
454
442
441
440
437
436
443
449
458
468
482
496
509
527
544
563
597
635
671
698
728
758
777
790
808
823
834
839
841
840
843
850
867
861
828
802
775
744
712
691
672
662
658
639
613
581
547
515
482
452
422
400
393
389
391
396
407
413
419
420
423
426
429
436
438
443
445
450
453
455
457
457
458
459
458
450
444
444
443
442
442
445
450
453
456
459
458
454
445
437
431
432
434
433
423
418
434
446
446
444
449
448
442
448
458
463
463
467
462
456
453
458
468
466
453
448
456
462
468
469
469
474
476
474
477
473
457
453
447
446
455
462
458
457
459
465
470
475
480
479
478
478
470
468
472
476
480
482
484
486
488
487
490
488
480
480
481
490
494
499
497
488
493
505
513
496
481
485
494
500
501
494
491
495
504
504
501
500
497
498
504
513
523
522
511
508
509
516
516
513
514
520
518
513
517
523
530
534
537
536
531
530
532
533
534
541
546
549
551
551
551
551
544
542
551
559
562
562
562
559
561
563
572
582
583
586
589
588
585
584
585
581
580
586
584
569
567
569
571
580
583
576
571
569
571
573
572
567
566
571
569
568
563
564
569
567
561
565
568
566
565
568
567
563
561
556
552
548
541
537
538
532
529
518
512
514
516
517
517
521
527
512
500
498
499
498
495
488
481
470
461
466
467
471
471
465
460
454
448
439
434
435
437
437
439
429
417
419
427
426
427
420
421
428
426
418
410
409
409
401
397
399
397
396
399
406
416
419
416
412
411
409
408
408
406
405
403
403
400
404
412
416
414
411
416
420
423
426
424
417
418
421
417
418
426
432
431
419
408
404
408
415
418
419
421
422
421
423
421
414
407
410
419
429
431
434
438
440
439
434
426
423
428
433
434
433
431
428
431
436
447
452
451
439
440
444
437
440
445
448
442
442
442
443
442
444
447
451
454
454
451
452
459
455
447
450
447
445
449
455
463
463
454
448
455
466
466
456
453
451
452
459
468
469
465
464
457
457
461
462
464
466
469
470
472
473
470
469
465
460
459
461
464
465
461
467
475
474
468
469
469
470
474
479
478
471
471
477
476
479
476
470
464
461
461
464
468
478
483
480
472
468
474
478
472
473
477
480
474
468
473
476
481
482
475
470
469
467
467
467
474
480
481
472
467
468
469
468
468
469
474
475
475
476
469
470
474
479
472
458
446
440
455
478
476
469
470
472
470
465
470
478
475
477
478
478
479
479
479
475
473
472
473
471
470
472
481
485
488
491
492
490
485
480
469
471
473
468
473
470
460
462
476
479
481
482
480
478
480
483
483
478
473
473
478
472
468
472
474
476
474
474
473
473
472
469
467
470
476
476
472
470
473
478
483
479
474
475
478
478
483
484
482
481
479
479
481
481
481
479
480
481
477
481
480
475
471
466
464
462
465
471
471
474
481
490
499
498
501
510
520
508
492
494
503
508
492
479
480
482
477
470
476
482
479
475
476
476
469
463
463
464
468
473
468
465
464
464
467
472
479
480
482
488
490
493
484
476
478
477
478
477
479
485
489
480
472
478
483
475
469
477
483
482
484
481
478
475
481
495
492
479
480
485
486
485
486
481
476
482
484
486
487
484
484
487
483
483
481
477
478
481
483
482
482
482
481
477
474
480
485
487
491
493
489
485
475
467
472
479
488
489
488
485
485
493
496
494
489
482
483
488
493
501
508
504
488
489
481
476
486
494
487
480
479
480
482
483
484
481
481
487
497
501
495
490
491
498
500
492
476
476
483
482
485
491
491
496
502
503
503
496
488
488
484
485
490
494
499
500
498
505
515
520
526
531
530
524
527
533
532
514
511
512
511
506
500
497
497
502
502
498
501
506
508
513
513
509
504
506
506
506
511
506
504
514
517
515
511
503
506
510
512
505
499
493
489
485
481
476
474
476
478
477
469
463
470
480
475
471
476
484
493
482
468
476
486
481
471
467
462
461
467
473
472
467
467
469
471
465
459
461
463
467
468
466
465
471
479
485
485
481
471
470
474
475
473
470
474
478
479
478
472
464
460
459
461
465
471
476
469
460
455
453
452
449
448
453
453
444
444
455
464
473
482
489
497
520
550
572
590
622
649
669
696
731
767
800
829
846
844
829
825
833
842
848
843
837
834
823
793
762
729
705
688
675
664
650
630
600
557
520
485
451
421
402
385
385
397
409
414
415
423
423
421
419
425
429
430
432
438
450
461
469
472
467
465
461
458
450
448
447
451
454
456
446
440
445
455
454
447
438
439
439
436
436
440
444
449
444
437
435
439
445
443
443
446
449
448
452
463
471
471
465
449
434
435
445
453
457
456
458
455
450
451
455
456
456
458
458
455
455
454
454
458
460
462
459
458
457
465
473
471
469
468
470
474
478
476
480
482
481
479
478
480
488
490
481
482
486
485
487
493
498
499
496
492
490
485
484
489
491
491
493
495
492
488
488
494
502
512
515
517
520
515
511
508
509
512
523
530
522
520
525
524
524
530
525
521
518
508
503
524
532
536
539
543
545
548
548
552
554
542
534
539
549
556
561
564
564
566
569
573
572
567
561
559
563
568
570
570
567
568
573
576
580
587
594
595
587
585
584
580
573
574
571
569
570
571
577
583
585
576
564
561
563
564
564
570
577
582
579
569
559
560
557
552
545
546
552
553
542
539
537
534
535
533
531
534
529
514
503
499
503
505
504
499
500
503
497
490
482
469
463
459
457
449
449
459
469
466
451
450
450
445
443
445
446
442
434
429
427
427
425
425
424
422
423
431
420
398
394
406
416
417
417
417
416
413
411
408
405
402
401
399
401
401
410
410
398
395
393
401
408
410
409
408
409
408
410
411
409
409
411
411
413
414
418
419
418
422
424
425
425
422
421
420
419
414
411
411
413
416
424
434
442
449
445
440
439
433
426
418
416
415
414
412
415
422
425
425
427
426
430
433
435
436
438
435
434
442
446
443
437
429
431
440
447
444
443
452
457
460
458
453
451
448
443
450
465
477
469
463
464
458
455
456
463
466
465
465
468
463
461
456
451
452
457
454
455
459
458
453
459
474
474
463
463
464
466
469
469
468
468
468
472
468
467
466
467
467
470
471
470
469
472
473
470
470
469
470
471
473
467
459
457
463
473
476
480
491
496
494
486
471
465
468
473
486
492
481
463
453
451
450
451
456
461
464
468
466
466
468
471
473
473
468
464
470
471
468
468
470
474
476
476
481
474
466
461
457
452
451
460
469
476
483
478
474
477
478
474
467
463
457
456
455
459
469
475
475
485
498
504
496
479
462
459
459
468
483
486
484
484
480
473
473
477
483
491
485
471
467
477
476
474
472
472
473
474
478
476
473
466
463
470
473
476
476
474
475
477
476
476
480
484
483
480
474
472
480
478
471
465
467
474
486
496
496
485
477
475
474
478
479
476
471
470
471
472
475
477
484
487
489
490
487
472
459
461
461
464
464
465
478
489
492
487
470
466
477
486
476
462
458
464
479
483
482
477
473
474
481
495
500
494
486
485
492
502
501
488
470
464
464
458
461
468
473
474
478
481
479
476
475
477
478
482
483
482
479
480
482
482
483
478
479
481
477
478
480
481
483
489
494
489
481
480
481
484
481
481
483
482
480
479
486
485
484
484
485
490
492
495
494
492
490
491
489
479
472
477
477
480
484
480
475
471
475
483
493
497
492
490
490
499
498
489
480
486
496
491
482
473
468
468
475
474
474
480
493
505
499
490
486
483
478
483
490
491
485
476
474
477
476
475
476
479
477
476
484
492
497
503
497
491
496
506
512
511
504
501
503
503
504
496
491
494
496
498
496
495
496
500
503
501
497
502
511
517
519
512
510
512
502
501
506
515
520
521
519
516
509
507
507
506
511
512
509
510
516
521
520
520
517
517
515
511
515
521
528
531
527
522
528
527
511
505
504
499
491
490
491
491
490
488
489
489
485
476
474
481
486
470
464
477
491
491
490
488
484
478
470
467
463
467
469
468
467
466
467
471
472
478
483
482
477
472
464
461
468
474
467
461
461
460
464
477
474
460
460
465
465
469
474
478
474
471
470
462
456
457
464
469
467
462
459
463
468
466
462
460
458
456
452
450
449
457
461
461
462
468
477
482
490
492
500
519
541
566
594
620
651
691
734
768
792
810
827
834
836
833
831
843
854
863
874
863
843
820
784
741
715
695
680
663
636
614
590
557
525
493
458
428
406
391
392
401
408
409
411
423
429
426
416
413
419
433
441
440
445
449
460
462
461
458
460
459
461
461
456
453
450
454
451
448
447
448
449
447
447
456
452
446
442
440
438
437
437
444
451
457
462
462
458
456
454
450
450
450
452
458
462
455
448
451
460
459
449
445
447
456
455
448
445
450
452
461
465
466
468
472
476
474
467
461
460
464
472
475
475
482
487
497
498
489
472
463
469
477
478
473
481
489
487
489
487
489
496
493
489
489
493
495
496
496
496
493
492
497
501
498
503
505
501
500
504
505
506
509
510
511
512
511
510
511
515
511
508
509
518
524
524
516
511
517
519
522
526
525
528
532
542
539
539
540
537
538
550
563
572
573
565
560
565
562
558
561
564
566
558
559
567
573
575
575
579
581
576
569
572
576
569
566
565
569
565
571
585
594
594
587
582
584
585
579
569
572
578
579
579
579
576
572
573
577
579
580
582
580
568
561
557
556
557
554
554
550
551
552
544
535
529
527
526
525
530
528
522
521
523
520
518
517
512
499
490
489
492
484
482
479
477
469
463
460
459
460
459
452
439
438
445
455
454
456
447
437
431
423
423
431
435
431
433
429
424
422
422
417
409
404
404
406
408
407
406
410
408
404
402
410
414
410
408
408
407
405
403
400
404
418
418
412
415
421
415
406
412
417
414
412
407
397
393
399
406
411
410
414
413
408
409
413
415
416
417
413
414
416
418
417
415
419
428
430
431
433
421
422
431
431
422
425
432
432
429
430
433
433
434
443
448
444
435
432
435
441
442
439
436
439
440
440
439
446
450
447
449
447
446
447
449
445
435
438
444
451
458
459
459
460
460
466
480
478
468
464
467
468
459
452
446
449
455
455
468
475
475
473
469
470
471
473
476
474
473
471
471
473
476
467
464
462
467
475
472
468
467
471
481
488
481
466
465
468
470
476
482
477
467
465
475
487
488
474
468
472
479
476
474
475
476
476
474
474
477
478
473
471
477
481
475
472
476
482
484
472
463
465
468
475
474
466
466
472
471
468
464
466
469
472
469
464
456
458
467
474
479
479
471
465
464
469
474
473
472
476
481
486
487
481
468
453
444
447
462
478
484
490
489
486
493
502
497
491
488
481
480
479
479
478
474
466
466
471
475
477
478
482
486
483
478
468
477
491
485
474
475
471
472
467
462
459
460
471
477
480
479
484
486
478
477
480
481
488
489
482
477
477
477
481
483
477
472
475
479
475
470
477
484
487
489
497
502
496
490
484
471
463
452
453
461
464
464
466
472
479
487
486
488
490
485
475
470
466
459
462
463
461
462
471
479
479
478
480
477
474
478
476
474
473
467
468
477
488
487
485
486
495
493
483
475
468
471
475
477
480
482
484
486
484
488
497
495
495
497
496
496
488
478
470
471
479
478
474
476
481
486
486
486
482
478
477
482
481
473
469
477
484
490
492
479
474
479
487
495
491
484
473
477
483
484
478
474
474
484
483
478
474
477
480
484
483
484
482
481
484
489
496
502
497
495
492
487
487
492
500
508
506
502
495
487
483
483
485
489
494
497
495
492
492
496
506
510
503
500
499
497
504
504
504
502
498
494
501
514
520
519
520
523
522
518
516
514
512
511
517
516
511
511
510
511
510
507
510
517
518
514
505
503
508
510
510
509
505
508
513
511
511
510
504
493
480
474
471
474
481
483
479
477
475
470
460
452
453
459
465
463
464
471
480
479
465
459
460
460
468
475
475
471
469
463
463
466
473
474
475
475
464
460
463
469
476
478
480
484
477
469
466
468
472
469
467
464
469
476
480
485
483
482
474
469
466
459
462
466
477
484
481
477
474
469
463
460
453
449
444
443
448
461
469
472
472
478
493
514
535
557
578
607
634
667
704
734
766
795
825
841
848
849
840
833
834
844
854
854
842
819
783
744
715
692
677
653
618
587
565
545
523
492
449
417
392
372
360
363
373
380
390
401
412
415
413
417
429
441
446
444
446
456
463
461
459
464
465
471
476
470
451
446
442
444
444
441
439
439
442
449
452
450
452
453
460
464
466
464
462
459
451
446
445
449
451
452
453
456
454
450
449
457
469
464
455
454
459
463
462
461
463
467
467
469
473
475
477
468
455
446
450
458
462
471
475
473
470
466
470
476
483
490
489
481
475
480
481
482
483
479
478
483
477
467
463
466
475
484
493
496
485
478
477
489
500
504
509
506
497
492
494
491
489
492
492
497
507
512
510
510
509
516
521
511
505
505
503
502
508
517
514
521
523
525
529
536
543
546
546
544
539
532
533
538
542
545
551
552
541
540
543
548
549
550
551
554
557
560
562
561
559
561
566
570
571
578
592
595
583
574
566
565
568
572
571
571
575
572
571
574
577
577
578
582
587
588
591
595
584
576
572
567
568
574
578
580
586
592
590
584
574
577
577
570
561
559
554
549
544
534
524
521
521
524
524
524
516
516
520
517
512
505
503
503
500
500
501
495
492
489
487
480
472
471
477
476
464
466
461
441
432
440
447
442
438
431
425
429
435
427
419
420
421
420
420
416
410
408
409
412
409
402
394
393
397
401
399
396
401
407
411
408
404
402
403
402
399
398
407
416
412
404
394
393
394
393
393
398
390
388
399
415
418
414
412
414
410
398
399
409
418
420
423
427
423
416
410
411
415
421
425
423
422
423
429
437
442
438
431
428
427
428
427
424
422
426
434
439
439
444
438
425
424
433
439
434
430
431
436
437
438
444
444
441
436
430
431
437
437
439
440
440
445
446
448
454
452
458
462
458
452
448
451
464
472
470
466
455
447
455
455
449
444
448
457
462
465
465
465
464
462
457
454
453
453
457
466
469
469
468
468
466
464
462
464
468
469
471
471
473
472
466
466
468
469
466
468
466
461
460
461
466
468
470
477
479
479
478
478
476
478
477
473
474
471
464
463
467
469
477
479
475
472
472
471
470
471
476
481
481
485
493
493
484
483
482
484
479
469
469
469
469
472
464
459
466
474
475
490
483
466
466
476
483
478
462
453
460
467
471
478
478
469
454
452
462
468
463
461
456
452
453
459
463
466
478
487
488
487
481
470
471
474
468
464
466
472
476
474
477
479
473
468
470
471
475
480
483
483
481
483
480
478
477
468
470
474
477
474
472
469
461
461
466
469
471
479
485
486
487
484
483
481
477
473
475
474
474
467
468
473
474
475
477
478
485
485
484
483
478
473
472
466
466
472
479
480
479
479
485
483
482
479
487
498
491
473
464
465
468
472
470
466
467
468
475
476
480
483
481
479
483
482
481
485
488
492
489
478
467
465
465
470
479
480
481
487
493
482
469
467
471
471
478
481
482
475
468
475
479
477
477
479
476
476
475
475
472
471
475
483
497
500
490
475
466
467
469
469
470
471
470
467
470
469
467
470
480
491
488
487
487
484
482
483
487
486
488
486
486
483
484
485
482
475
474
475
473
474
477
483
487
487
484
482
480
477
480
490
492
486
484
485
491
490
485
487
488
481
480
486
489
480
473
477
487
502
491
491
492
489
494
504
505
501
501
501
501
505
513
510
503
494
489
489
499
507
510
508
504
507
507
502
502
507
513
518
523
513
505
513
531
528
514
510
512
509
496
488
495
503
505
508
513
519
528
537
537
532
525
520
517
513
503
493
488
487
483
489
495
500
500
494
490
489
487
484
481
482
483
477
469
470
474
472
468
469
474
475
467
468
471
469
468
467
468
469
472
473
474
474
472
469
467
467
465
469
471
472
470
475
476
466
464
467
470
464
461
465
474
484
491
484
484
487
476
472
470
466
467
469
472
471
464
457
459
463
479
482
478
472
458
450
456
459
455
455
459
460
454
455
461
469
479
485
486
492
513
543
561
583
620
649
664
679
708
741
777
811
840
850
846
838
837
842
850
852
850
837
824
799
771
743
721
709
688
669
649
626
594
558
527
492
461
433
410
394
388
390
402
418
429
430
432
442
437
424
418
418
425
437
446
455
460
462
462
459
455
452
453
448
447
447
445
441
437
430
435
448
450
453
450
448
445
437
443
444
442
436
429
435
442
447
446
439
436
439
447
449
447
448
448
451
461
457
449
441
438
446
455
460
457
455
454
453
453
453
459
459
457
462
463
464
464
469
478
481
479
473
479
487
481
473
468
461
468
476
481
480
478
478
482
476
468
469
476
477
478
477
473
476
481
483
481
480
471
476
486
491
493
491
488
494
499
506
506
500
502
503
507
512
507
499
496
496
494
498
503
512
518
520
514
504
509
512
494
492
506
523
533
543
540
528
520
520
522
530
534
537
539
540
542
545
550
551
543
542
543
551
559
556
546
546
549
563
573
579
580
582
579
570
563
561
569
571
573
581
578
571
572
582
591
591
591
589
581
575
575
578
580
581
576
577
579
573
571
575
580
585
581
569
570
570
562
552
548
550
551
556
564
565
550
532
525
526
526
526
521
516
513
508
504
505
511
516
518
511
507
501
495
495
498
496
478
468
470
466
463
460
455
447
443
438
445
453
453
440
431
428
425
425
425
425
429
421
411
401
399
406
411
417
417
417
416
415
413
408
404
402
403
405
409
412
414
414
414
405
394
397
397
400
411
414
406
403
409
419
413
398
396
398
407
414
410
405
411
420
417
414
414
415
417
423
422
416
416
420
423
422
422
424
429
427
429
431
428
426
432
431
423
421
430
447
446
438
436
435
439
436
436
435
438
442
430
417
414
420
426
438
447
450
449
451
454
459
460
454
448
451
457
450
441
438
437
442
446
450
455
460
450
446
449
451
460
467
462
454
455
457
461
456
451
451
454
460
469
470
465
461
465
470
463
457
465
468
453
448
446
453
466
467
463
464
473
474
467
462
461
464
467
470
475
475
475
478
476
469
467
469
477
484
487
480
479
483
476
473
473
475
477
474
469
469
469
470
473
472
471
473
475
478
474
468
473
481
481
470
469
469
466
465
469
471
469
467
465
461
464
465
462
458
463
466
466
475
485
483
480
469
463
464
462
461
465
470
474
475
483
486
477
468
468
470
475
476
480
482
483
484
481
469
470
477
481
485
484
480
479
475
473
476
491
486
469
464
469
467
470
466
463
464
464
468
478
470
462
469
470
471
468
465
469
479
483
476
472
472
474
479
477
471
469
470
471
471
476
479
480
478
476
476
476
476
476
474
473
475
474
474
475
480
479
478
475
472
474
475
477
479
479
476
473
474
482
485
482
477
478
484
486
487
488
489
487
479
477
484
498
492
483
480
478
484
486
482
476
473
472
469
473
479
477
474
474
481
469
454
455
470
478
480
487
487
488
495
500
496
490
492
494
486
476
472
467
472
474
473
472
481
480
479
481
480
481
482
484
485
491
486
472
467
471
480
481
483
485
485
482
480
479
489
493
483
479
485
487
481
479
480
476
477
487
501
498
486
481
477
477
477
480
482
478
477
483
487
485
481
482
482
482
481
483
485
483
486
486
487
489
491
487
483
482
473
473
478
478
480
485
492
495
493
492
486
484
494
500
510
509
503
498
500
506
504
506
508
511
506
487
479
481
488
489
494
510
518
514
511
515
522
522
519
518
518
515
511
508
509
510
512
514
511
511
507
509
506
506
505
506
515
518
519
518
519
515
508
505
506
509
517
526
529
527
516
517
517
509
494
488
491
490
494
498
502
493
492
484
471
465
465
462
456
452
458
460
461
466
462
458
459
467
478
483
475
464
464
471
474
474
468
466
466
470
471
464
460
457
458
460
455
459
465
473
481
482
478
478
478
474
469
466
467
469
468
466
465
471
473
474
475
477
477
470
468
468
466
467
468
471
470
467
455
450
453
451
447
446
450
459
464
468
484
498
496
500
511
522
540
574
613
643
662
681
714
753
776
791
816
828
826
820
823
837
851
857
863
854
839
826
802
768
727
700
682
669
650
625
594
568
544
520
483
445
421
405
393
391
395
396
404
421
434
430
423
416
415
423
430
441
458
473
476
466
455
457
455
448
447
441
440
440
444
449
444
439
438
442
443
441
438
437
435
434
441
446
443
441
443
442
440
441
444
447
448
448
448
451
454
452
451
450
455
457
458
459
460
460
460
458
461
461
464
464
459
453
453
458
455
449
452
458
469
471
473
474
474
475
479
482
478
474
476
481
482
479
484
480
478
482
486
490
488
488
488
477
472
474
479
480
481
487
496
493
483
487
490
492
498
499
495
504
516
514
511
505
498
494
502
506
500
496
493
498
510
514
499
492
504
515
521
529
535
536
530
519
513
510
510
512
514
516
524
535
537
540
539
537
542
545
543
542
539
538
548
561
570
568
566
565
568
574
572
561
561
563
570
583
587
585
581
582
579
581
584
583
576
573
584
594
592
585
580
578
572
572
575
576
581
584
586
581
576
572
568
570
571
569
565
564
567
572
563
556
556
568
567
569
569
562
555
545
533
520
521
527
529
531
535
535
521
512
514
511
512
515
510
501
488
475
462
462
465
469
475
474
473
473
471
464
457
452
457
460
449
445
448
457
453
433
421
417
420
421
420
409
403
413
417
422
421
414
405
402
407
403
394
389
388
387
391
392
397
402
407
408
410
412
405
396
395
399
409
416
409
396
396
396
398
403
410
419
422
419
412
407
407
408
414
418
418
421
423
420
418
411
408
405
415
423
420
425
422
414
414
427
439
444
441
436
432
437
446
450
448
448
448
436
425
429
437
448
449
434
432
439
444
450
453
457
458
455
455
458
462
457
447
439
435
440
447
455
460
467
452
434
435
433
429
427
437
447
448
449
453
453
456
458
457
458
460
459
460
461
460
457
462
468
469
464
461
464
464
464
464
467
466
461
463
469
471
471
471
474
477
473
471
476
475
460
451
451
460
460
452
449
456
463
469
463
467
481
489
484
473
474
477
478
475
476
480
474
472
476
475
474
481
477
474
476
473
476
472
470
467
469
474
478
479
482
484
479
480
483
483
481
478
474
476
475
469
461
463
474
479
474
472
474
475
476
471
473
475
468
470
468
469
475
479
477
477
479
482
472
465
468
474
481
485
486
487
486
482
475
470
470
476
483
480
472
474
472
465
472
482
481
475
468
462
466
459
457
465
474
476
477
481
482
482
481
475
466
464
465
464
460
458
458
467
482
485
479
481
490
484
474
470
473
475
480
485
483
483
481
477
479
479
479
481
478
474
477
479
478
476
476
474
472
476
479
479
485
488
480
480
480
483
480
475
477
470
462
471
490
501
504
497
487
483
486
485
486
482
474
474
480
488
484
479
479
484
489
496
502
507
504
491
480
475
477
478
471
476
478
474
473
465
461
461
464
475
483
478
475
472
466
463
466
473
476
479
488
495
486
482
482
480
476
477
485
487
484
480
481
483
475
469
468
467
468
480
495
500
494
495
504
501
484
481
479
477
471
461
472
484
484
480
479
479
484
491
496
495
494
497
497
483
473
474
481
485
480
474
479
483
477
468
464
463
467
484
494
498
497
493
490
487
488
493
498
501
505
506
501
492
491
495
497
499
496
498
498
498
501
503
499
503
505
504
511
514
515
513
511
510
503
500
506
510
512
515
518
518
520
522
521
519
515
514
508
498
488
487
492
505
498
501
505
508
509
507
513
520
521
526
523
523
527
525
518
506
504
509
508
508
505
512
523
507
497
494
495
502
500
493
487
481
470
466
471
475
477
458
449
452
462
465
468
463
458
457
458
464
472
473
464
466
471
470
465
460
458
458
461
464
468
469
468
471
470
470
474
476
473
468
468
472
472
474
470
475
479
479
475
465
462
464
467
467
464
468
469
467
463
470
478
485
477
469
468
468
474
472
464
463
466
464
464
469
476
489
493
493
502
518
541
565
588
612
634
665
699
717
733
759
789
820
840
850
853
851
848
853
859
859
849
811
771
727
686
659
645
634
618
592
565
541
519
492
457
420
396
384
384
390
390
390
400
413
413
419
422
420
424
430
437
439
440
433
438
445
457
465
471
479
480
475
478
477
463
447
453
466
471
468
455
446
447
450
447
451
453
454
456
453
449
453
455
457
459
465
467
469
473
468
464
454
448
451
455
453
452
451
458
464
466
468
472
472
462
455
454
455
461
464
463
460
461
460
458
462
468
476
478
473
476
475
471
473
481
483
483
481
485
485
483
486
488
489
487
489
495
497
498
497
502
508
509
505
505
511
509
500
498
501
505
506
500
496
497
498
494
499
507
510
510
510
514
521
530
530
515
501
499
497
492
497
506
517
530
538
529
526
518
509
510
516
520
524
530
531
537
531
533
543
547
548
547
547
558
562
563
570
574
569
571
571
573
573
569
565
564
566
567
567
571
574
576
571
563
569
580
582
576
569
564
561
572
587
593
592
586
580
579
585
593
592
586
580
576
571
578
579
579
575
575
571
569
568
566
570
568
562
559
555
555
555
546
537
531
530
537
536
528
526
528
531
525
517
516
514
508
501
503
502
495
487
481
475
476
478
468
459
455
456
458
457
459
453
449
442
431
430
431
427
429
432
429
421
410
406
406
413
416
405
398
398
402
406
409
409
409
412
408
404
402
406
402
403
408
417
420
417
417
424
424
421
409
403
398
389
380
384
391
401
411
413
408
402
404
404
399
394
401
408
410
412
414
408
409
418
415
403
403
408
413
415
429
440
442
433
429
430
431
429
434
434
429
421
424
430
434
436
437
435
428
429
432
432
428
423
426
435
442
441
440
442
440
443
450
446
443
443
440
443
443
444
454
459
451
447
453
457
455
452
453
453
449
451
459
466
466
462
457
465
475
474
469
469
472
462
459
461
472
474
468
459
454
453
460
466
463
455
455
457
462
464
468
471
468
458
460
466
469
464
463
464
463
458
463
471
479
478
465
462
470
479
485
493
498
482
467
458
454
462
462
467
482
487
479
476
473
474
483
481
480
485
481
467
462
464
469
469
473
476
474
471
467
468
472
476
480
480
475
475
479
479
476
474
475
483
480
467
454
454
462
470
477
482
487
484
476
472
475
476
473
471
469
468
469
472
480
486
485
470
466
468
469
469
466
464
467
474
482
480
474
478
480
479
479
480
480
469
465
465
466
472
475
477
476
478
487
488
482
477
470
463
463
461
461
471
476
478
471
470
480
481
476
473
469
469
472
473
475
480
480
474
466
465
463
470
473
474
476
478
486
485
479
477
469
456
455
459
470
491
504
495
482
479
478
476
480
484
478
470
469
474
476
474
470
470
478
474
470
474
478
480
479
480
482
483
483
473
468
477
483
478
473
470
474
476
479
484
479
470
468
473
475
478
480
481
473
472
476
482
484
487
485
484
481
478
486
485
481
478
475
472
476
479
487
489
488
483
479
480
480
481
479
484
491
484
486
491
493
482
470
470
472
475
478
481
484
488
491
496
495
495
485
470
466
470
471
475
480
482
480
482
486
488
490
499
502
499
495
495
496
491
485
487
495
494
492
501
501
491
492
500
500
484
475
485
508
514
508
514
520
525
526
526
525
524
522
522
522
510
504
500
502
511
508
499
499
502
504
508
511
515
520
518
510
511
517
522
521
512
513
509
494
490
493
500
509
509
505
497
490
482
479
477
473
474
475
474
478
478
473
467
467
470
465
463
468
471
475
476
473
471
468
468
468
470
464
458
467
482
485
472
452
447
453
459
464
470
473
480
477
471
470
469
475
480
477
478
468
453
446
449
463
475
476
476
472
465
467
468
461
464
467
473
473
465
455
447
450
456
442
430
440
455
462
463
462
462
464
473
490
492
491
502
513
532
555
579
604
635
661
683
706
734
765
792
816
831
835
833
832
840
847
844
843
836
821
792
750
718
697
691
675
654
635
612
589
560
532
499
467
437
409
390
386
392
398
405
416
425
431
431
433
433
440
441
441
446
456
459
457
456
457
457
459
453
446
448
452
454
451
453
454
454
455
449
443
439
440
443
445
442
440
449
459
459
450
436
435
438
441
446
448
447
447
449
451
452
458
463
469
477
475
462
444
434
434
434
438
443
446
450
451
445
449
459
464
464
468
464
458
455
453
447
451
467
478
479
480
484
487
481
475
476
476
476
473
469
470
475
488
491
480
482
493
497
493
493
493
491
495
497
496
495
493
490
492
489
486
489
492
494
500
493
484
488
500
514
515
508
502
503
510
516
517
512
505
510
520
520
518
520
526
529
529
525
530
540
544
538
525
523
529
536
541
547
545
539
537
539
541
548
551
550
547
545
553
565
571
565
565
559
560
561
560
553
554
562
567
571
579
578
582
586
580
579
576
584
584
576
575
573
566
566
567
562
572
580
577
576
571
572
583
595
599
587
572
566
566
571
559
541
543
543
543
540
540
537
537
540
544
542
540
541
535
526
520
516
514
513
515
509
500
506
512
503
485
473
472
478
478
470
463
462
463
458
455
451
453
448
444
444
443
444
445
438
432
429
430
424
419
416
414
414
417
413
409
409
410
411
399
397
408
416
405
399
397
402
405
404
400
399
397
401
405
407
413
414
408
403
404
403
402
406
417
424
399
383
385
396
408
425
434
433
431
425
421
422
421
422
416
415
420
425
426
424
420
423
426
424
416
413
414
414
414
415
420
432
435
428
422
421
421
425
433
450
457
448
435
433
432
433
433
438
442
443
444
444
436
433
442
447
449
450
453
454
451
452
453
454
451
446
443
439
437
436
444
456
461
460
460
461
459
460
465
467
460
459
450
451
456
459
463
464
461
457
458
465
469
469
475
478
473
468
467
470
469
468
466
461
458
456
465
469
468
468
468
474
476
472
466
464
467
473
475
474
470
477
476
476
466
462
466
473
473
467
467
470
470
471
474
474
469
472
473
473
469
473
480
479
476
477
472
467
464
468
472
472
471
474
483
489
481
468
460
461
465
471
475
476
473
471
472
477
479
480
478
475
466
464
467
469
470
474
484
486
486
491
486
472
463
461
461
464
470
477
475
475
474
473
474
473
473
473
475
473
469
466
472
476
475
472
471
474
474
473
475
475
471
469
468
466
468
467
472
473
472
471
468
467
465
467
467
462
464
475
497
500
488
481
480
491
490
478
470
469
474
479
473
479
493
493
486
478
477
478
485
480
476
480
488
491
493
495
496
496
488
481
475
483
489
486
484
485
476
462
462
474
483
480
476
473
475
472
467
462
464
469
470
471
474
482
479
470
472
474
477
479
478
474
470
468
480
494
496
491
482
471
470
480
488
494
495
495
492
493
493
482
463
455
461
469
466
468
474
471
470
476
480
482
483
488
492
479
475
479
480
471
464
468
484
486
483
483
485
481
483
485
486
481
479
480
477
477
478
474
479
486
487
484
484
481
483
486
485
488
485
493
493
484
478
475
479
485
489
487
482
480
478
479
483
487
486
484
482
482
482
485
487
486
491
500
495
489
493
494
486
485
485
482
483
485
491
493
498
506
514
516
514
501
497
505
509
509
508
504
501
505
503
499
500
508
513
518
521
516
504
504
511
515
515
515
512
505
503
499
496
498
498
496
502
513
523
532
539
539
533
523
510
504
502
497
494
496
499
507
512
509
506
505
510
502
487
484
486
488
485
486
480
476
467
463
466
472
477
476
473
467
463
462
460
457
454
454
460
462
466
466
464
470
473
470
470
475
478
477
471
466
464
468
466
466
464
465
466
466
468
470
471
475
478
470
460
456
461
468
471
470
472
475
481
489
477
468
470
475
475
473
472
470
467
467
469
463
464
464
459
452
448
446
450
452
460
475
481
484
490
500
528
550
576
606
632
659
691
718
750
792
829
846
853
852
849
852
860
860
858
857
844
828
805
775
741
723
705
681
664
646
623
598
566
531
499
472
445
420
402
398
395
394
399
414
422
421
422
425
423
422
426
430
434
439
448
452
461
465
467
465
457
454
454
453
451
450
439
436
445
451
451
447
447
447
436
424
424
426
430
437
438
439
441
441
442
448
453
450
444
444
443
448
454
449
449
453
453
454
455
460
466
469
463
458
451
449
453
456
452
448
447
455
462
464
464
469
478
476
472
475
465
459
462
463
463
466
468
464
470
470
471
473
481
489
492
486
477
469
469
472
479
480
465
461
469
489
499
498
495
485
481
494
506
505
498
502
508
512
515
508
496
492
496
501
502
497
496
501
504
503
503
502
503
511
520
527
529
527
528
529
526
527
528
533
537
548
550
535
530
531
533
540
540
538
540
539
543
544
546
549
551
555
555
555
553
551
554
561
571
573
570
570
570
574
575
577
576
579
585
584
585
588
580
573
577
582
582
580
575
573
574
570
575
581
584
582
571
564
566
568
573
576
577
586
573
554
547
554
565
564
551
547
552
557
548
535
532
539
538
533
531
527
518
510
507
513
514
506
497
489
479
475
477
482
486
487
485
486
484
477
466
453
446
447
458
461
462
460
451
433
425
426
422
420
424
421
421
422
414
404
397
397
403
403
405
404
404
402
401
402
403
408
412
409
409
410
417
421
408
405
406
405
401
407
412
403
403
402
401
403
404
402
402
403
407
413
417
411
401
404
411
418
421
424
421
418
413
412
416
413
415
417
418
419
427
432
429
424
422
424
427
437
442
423
425
431
432
430
433
430
426
428
429
428
428
433
436
435
437
447
466
471
462
463
462
450
439
438
448
449
444
448
456
450
439
438
440
444
450
452
447
449
462
470
474
472
463
456
457
461
461
456
456
458
455
454
455
457
457
459
461
456
462
462
460
460
455
454
456
453
456
463
468
466
465
462
456
456
455
459
468
477
477
474
470
465
463
468
468
463
463
470
474
470
466
468
474
474
469
466
468
469
471
470
468
466
467
471
472
471
473
473
476
474
475
476
475
476
478
478
470
462
458
456
456
459
459
463
480
487
482
483
484
481
479
477
475
475
475
468
464
463
462
456
462
480
493
490
482
475
476
478
478
479
482
484
484
487
486
475
464
459
466
482
485
486
491
497
486
471
461
460
460
465
469
470
467
475
482
476
472
474
471
465
467
476
483
483
479
473
469
466
462
464
470
475
480
477
472
466
476
480
475
471
472
473
470
464
465
467
470
473
474
469
468
469
474
472
471
475
478
478
479
485
491
491
482
476
471
463
465
474
478
485
483
484
484
478
475
476
476
473
472
469
474
480
485
489
493
489
485
488
487
491
492
485
485
488
486
481
475
473
476
478
471
472
478
480
477
467
465
468
474
479
482
482
483
478
475
474
470
471
471
476
483
481
477
476
476
482
490
493
495
490
482
483
490
491
494
497
494
481
469
465
470
476
475
478
481
484
485
483
482
476
474
473
476
478
479
480
480
487
485
482
482
477
481
483
477
472
476
487
496
494
490
488
488
489
493
493
491
487
479
477
474
472
477
484
487
490
490
492
487
481
478
483
486
486
490
494
496
497
500
497
497
497
489
480
478
484
496
502
500
507
516
512
499
494
498
501
497
495
496
496
502
512
516
520
516
515
517
524
524
523
526
519
517
521
528
524
515
513
515
514
508
503
497
496
496
502
504
509
515
519
520
515
515
516
512
511
514
513
516
518
516
510
502
496
497
500
500
498
494
485
489
492
494
494
491
486
485
480
470
463
467
468
472
472
467
456
449
450
453
456
457
459
468
479
485
498
500
482
464
461
468
475
465
456
454
452
452
457
459
459
457
457
463
474
472
474
471
461
466
471
473
480
485
482
477
472
475
475
473
469
467
467
468
470
471
464
459
449
449
459
471
474
473
472
459
453
460
471
483
488
493
498
507
526
542
558
585
606
633
669
703
730
768
799
817
835
844
844
841
843
851
858
865
867
855
833
802
774
737
711
694
678
661
642
619
588
557
523
485
451
421
406
407
407
409
408
407
408
414
417
416
414
419
419
424
430
439
455
461
463
470
476
477
474
473
475
475
465
451
430
426
435
441
436
430
433
432
435
437
442
448
452
450
450
450
452
451
443
442
442
445
453
457
447
446
450
448
446
444
447
454
457
464
470
458
450
447
447
447
447
455
459
454
449
454
455
456
464
471
473
473
471
470
471
473
471
473
478
477
478
481
480
477
474
477
488
494
496
496
494
495
491
489
492
495
485
476
478
482
487
492
493
488
483
492
502
502
503
505
496
494
493
495
494
492
496
504
507
510
515
516
516
515
516
517
521
520
523
525
525
525
524
524
526
526
527
527
522
524
530
537
545
550
555
556
547
540
544
549
555
557
560
559
560
557
556
563
562
557
559
563
569
572
571
566
561
561
570
572
575
581
584
583
585
587
587
592
586
580
580
587
578
563
568
575
581
582
577
577
576
571
566
566
571
575
568
557
552
554
555
554
551
547
538
532
542
548
546
543
548
545
542
532
520
515
513
511
514
513
504
508
512
508
500
496
497
494
488
487
484
471
464
462
461
461
459
455
452
454
452
447
442
439
436
433
431
427
425
427
426
425
423
418
411
407
409
416
418
414
408
411
417
416
400
389
396
403
405
408
402
395
398
410
423
422
415
406
403
407
412
414
403
399
402
406
412
420
416
409
406
407
417
408
393
393
394
393
403
418
414
408
411
419
422
425
427
422
423
428
425
421
418
419
422
421
416
416
422
425
428
427
433
444
450
449
446
439
439
445
440
440
443
441
439
436
441
444
443
444
446
446
440
436
436
436
437
444
450
454
457
454
453
455
457
454
452
454
455
454
453
462
475
469
458
458
465
474
473
465
464
466
467
462
452
449
448
453
462
464
462
461
463
464
465
463
466
476
482
479
473
469
468
472
477
476
473
468
464
465
467
474
476
477
479
476
474
475
478
469
462
463
468
473
467
461
463
462
462
463
469
479
478
471
469
477
486
483
477
484
485
481
477
480
482
476
463
451
452
458
459
462
469
472
477
481
483
482
478
475
477
479
482
486
488
480
478
479
475
468
471
475
463
453
463
474
477
473
470
471
473
473
482
477
472
468
471
469
471
477
478
478
484
480
467
468
474
478
474
470
471
476
472
471
475
471
467
464
469
472
470
469
468
473
477
476
476
471
464
465
472
482
488
489
485
484
481
473
477
483
479
474
471
472
478
478
476
471
471
479
474
465
456
456
457
462
463
463
464
463
463
465
468
469
483
485
476
478
477
475
473
476
481
491
489
484
486
486
479
473
472
474
480
483
482
486
494
499
491
479
479
497
496
477
462
453
453
459
467
471
472
474
479
476
474
473
475
479
479
481
484
495
495
485
481
471
473
479
480
480
474
469
466
472
477
478
478
473
467
472
479
486
485
485
486
486
487
487
487
485
490
489
489
489
483
482
483
484
482
486
491
494
492
489
487
489
489
491
490
487
488
492
497
499
495
494
497
495
492
492
495
500
496
490
491
496
499
500
503
502
501
507
520
527
530
533
538
538
515
500
506
514
511
505
495
492
495
505
513
508
506
506
505
510
518
517
510
499
492
504
514
523
521
518
523
520
509
499
494
497
497
498
499
492
483
475
467
468
468
471
476
470
471
474
477
476
475
472
473
471
474
474
471
466
465
465
468
478
482
479
478
475
468
469
471
471
475
477
465
457
456
455
459
467
477
469
460
463
471
478
482
473
465
459
461
472
478
473
470
473
477
475
470
473
480
472
470
469
465
466
470
480
477
464
451
446
444
442
451
457
461
461
462
467
478
492
497
507
528
538
556
580
606
630
665
711
738
761
792
823
838
838
826
822
830
846
855
863
860
843
813
776
735
701
680
669
660
642
625
601
566
528
489
449
413
385
373
379
386
393
395
401
409
415
419
415
411
414
423
430
434
437
443
452
462
465
464
464
468
459
451
445
442
438
442
455
459
452
455
460
460
455
452
448
441
440
444
444
445
441
440
448
461
469
466
454
449
452
458
456
455
454
453
450
444
449
456
457
454
447
442
448
464
467
461
461
468
471
475
474
473
473
472
475
479
485
481
473
470
466
462
458
459
463
470
477
478
482
486
483
480
479
477
481
486
490
493
494
495
495
501
507
501
488
478
475
484
492
494
495
495
500
507
507
503
504
506
509
511
514
520
523
518
505
496
492
487
484
488
493
505
522
533
534
536
541
547
540
535
541
543
535
531
536
539
540
539
541
546
550
551
549
541
538
539
545
551
559
561
558
559
558
560
564
569
569
574
579
580
579
581
581
581
579
578
575
577
583
585
585
582
579
575
577
582
585
580
565
571
585
595
595
592
595
595
590
580
571
567
568
570
563
562
568
578
575
560
544
540
538
537
541
547
548
543
541
537
530
517
513
513
514
511
501
486
485
497
506
506
494
480
475
473
477
479
474
470
467
459
455
456
456
456
454
443
433
433
441
440
438
434
433
433
421
418
416
410
406
405
409
411
408
409
409
411
403
397
397
402
401
401
400
396
399
405
409
408
409
406
402
401
401
401
398
399
402
401
399
408
410
409
407
405
404
401
400
408
409
409
412
412
413
417
420
428
436
433
429
432
434
435
429
430
426
415
411
420
427
429
430
432
427
425
426
426
426
429
435
440
441
443
439
427
425
428
433
437
439
442
441
446
445
433
428
431
433
435
436
440
449
456
451
442
442
451
448
448
451
452
457
463
461
463
459
458
459
455
451
449
457
464
460
465
464
459
458
457
456
461
469
471
466
460
459
461
464
467
468
473
484
488
476
464
458
458
462
464
466
466
470
473
471
468
467
468
467
470
475
474
474
472
471
468
470
473
468
460
464
474
477
470
468
474
479
480
470
461
461
460
460
461
466
477
482
487
487
483
488
484
476
473
477
479
479
482
479
473
470
470
472
472
468
469
475
481
483
473
472
478
484
480
475
472
477
484
485
479
471
463
465
467
464
461
464
470
475
475
472
475
483
475
467
471
476
480
477
474
473
476
479
478
473
472
477
473
467
464
467
477
484
480
476
478
477
477
477
465
458
462
467
462
463
468
473
469
470
474
469
467
477
483
480
475
472
466
464
470
476
478
478
475
469
464
463
460
461
474
485
484
481
478
477
473
472
472
474
472
464
468
475
477
477
473
477
490
486
472
469
474
478
482
484
487
488
481
477
480
476
475
481
489
488
475
468
470
477
479
481
481
481
483
483
482
484
489
496
495
488
481
476
473
472
473
479
483
481
480
477
479
485
491
492
491
489
494
494
487
462
445
443
448
461
472
476
487
493
479
467
474
483
487
491
488
471
465
469
476
482
481
476
476
475
473
471
468
464
455
456
467
482
485
484
482
491
498
497
491
488
489
493
488
481
477
478
477
478
484
489
493
489
484
484
488
496
496
500
505
501
493
500
504
499
500
499
495
492
498
497
492
499
495
490
504
509
499
499
505
517
524
524
519
506
501
507
516
515
516
516
512
512
510
508
511
514
515
516
513
512
516
514
511
508
509
513
516
519
522
522
524
522
511
503
500
495
496
508
510
507
498
480
464
460
463
475
483
486
481
467
459
462
466
471
475
471
458
447
447
455
460
458
458
462
467
469
471
468
462
468
477
480
479
474
474
475
473
471
472
473
476
479
479
482
478
477
479
481
478
471
462
458
456
455
453
456
456
455
452
447
447
454
466
474
474
469
469
467
466
461
460
462
457
455
452
456
458
452
450
461
468
472
479
491
504
521
537
555
583
623
651
675
705
738
771
804
832
851
854
849
847
848
855
868
870
865
853
841
818
783
746
719
696
674
659
642
620
592
560
534
500
459
423
402
391
394
406
414
418
414
420
419
415
414
410
415
419
427
446
460
469
474
477
481
478
464
456
452
441
434
435
434
432
436
437
437
440
429
427
433
443
450
443
437
438
437
435
443
450
445
438
437
439
437
445
455
457
449
441
440
442
447
451
450
448
441
436
435
438
445
451
452
450
456
460
457
463
459
459
464
467
469
471
469
472
478
480
482
485
480
472
467
464
469
475
478
478
478
474
476
482
482
479
477
479
483
488
486
478
481
485
487
492
495
495
494
494
488
488
491
496
498
492
489
498
509
510
508
503
500
503
508
518
517
516
514
516
524
523
522
525
526
528
537
547
543
525
513
517
528
538
533
534
537
538
534
542
547
533
525
531
544
543
536
550
562
561
560
555
554
565
576
579
571
569
573
572
573
577
579
573
567
569
580
588
596
598
598
592
583
579
575
580
588
590
586
578
575
579
586
584
573
572
569
558
557
559
565
569
565
561
562
562
562
558
558
556
551
545
541
533
520
516
524
530
524
519
523
530
530
523
519
510
506
503
496
490
488
489
486
481
474
470
474
467
460
464
460
452
446
439
437
445
445
432
425
423
424
428
431
428
425
420
415
415
419
425
419
410
406
395
389
401
408
404
398
395
397
402
404
400
404
408
414
415
411
409
406
404
409
410
419
418
411
415
419
416
415
414
412
414
417
412
404
405
407
409
417
421
416
411
409
407
408
413
416
421
428
426
424
422
418
417
421
429
428
429
430
428
429
431
432
431
427
423
424
427
432
438
440
441
441
436
435
442
448
448
451
450
447
449
453
456
449
440
434
429
438
456
448
436
434
439
444
446
448
447
448
449
460
473
480
472
466
464
459
457
461
458
454
454
455
455
446
447
454
464
475
478
479
485
487
489
487
479
470
465
464
466
465
469
475
478
482
487
490
485
480
475
478
482
473
465
470
480
486
474
463
460
461
459
460
464
470
472
471
473
480
478
476
480
482
482
479
474
468
470
474
469
463
468
466
466
468
467
467
475
478
469
469
472
474
474
477
471
466
471
478
479
478
477
473
477
477
472
467
465
463
463
471
480
482
478
466
462
464
473
475
479
478
470
464
475
492
491
486
480
475
473
473
470
469
473
477
478
473
472
474
485
492
486
478
478
481
478
472
469
469
470
472
474
473
470
470
465
473
479
484
490
488
482
480
486
486
483
485
491
490
483
475
470
463
459
466
481
484
479
482
483
482
475
471
474
480
483
479
480
486
483
485
491
493
486
484
477
472
469
464
460
465
467
466
470
477
481
478
473
472
478
476
481
492
488
485
479
473
472
473
477
479
485
484
475
472
478
485
488
481
477
483
479
467
465
475
484
482
479
484
485
487
494
496
499
497
487
475
475
481
486
487
485
486
479
466
461
467
474
486
490
487
484
482
487
490
483
474
474
484
497
506
504
497
492
489
486
482
476
475
475
477
476
478
478
482
485
484
485
484
485
488
493
490
490
481
476
475
476
479
479
479
484
492
498
501
500
500
502
499
506
511
495
476
472
473
472
473
490
500
482
472
471
484
495
500
504
496
490
489
501
515
521
515
512
509
491
479
489
498
501
512
515
508
500
500
507
508
509
511
514
526
530
520
517
509
504
506
508
513
513
505
506
509
506
504
505
505
506
506
509
514
522
526
528
521
517
521
523
523
523
526
521
520
519
515
507
500
493
494
496
494
486
482
491
492
491
493
487
480
474
477
478
474
469
471
473
474
473
470
469
475
479
484
484
484
483
481
476
471
466
467
469
470
471
468
467
469
471
474
483
487
483
470
455
453
459
464
467
468
471
478
478
468
461
463
469
473
478
477
473
467
464
464
462
463
470
464
452
453
461
467
461
456
456
468
471
468
463
459
464
472
480
489
504
517
530
544
552
572
603
631
659
687
714
750
777
800
827
842
838
841
850
854
853
862
871
855
835
804
772
737
706
684
673
658
635
612
589
563
536
501
465
432
412
401
387
389
402
415
423
426
432
434
427
426
432
430
428
427
436
450
466
468
465
465
465
465
461
461
462
457
454
455
460
461
448
446
451
461
463
461
457
456
453
448
448
445
447
454
453
438
433
445
455
453
450
449
454
456
456
457
457
457
458
452
450
455
456
452
449
442
447
453
454
456
458
456
449
448
454
461
467
474
482
479
474
466
468
472
477
479
477
469
460
462
470
475
477
488
490
479
477
479
484
494
490
486
490
486
481
479
482
488
489
490
498
504
497
491
495
495
498
502
501
497
498
497
499
500
504
504
504
508
516
515
513
514
518
519
520
526
530
531
522
519
518
517
522
526
528
527
525
525
525
524
525
530
544
557
565
569
561
552
547
551
546
546
560
575
580
583
578
567
570
578
579
577
572
571
578
586
587
576
580
585
583
578
576
574
568
562
562
565
568
573
577
577
582
584
582
574
566
565
562
558
562
562
560
563
571
561
547
543
546
552
558
560
555
550
546
546
547
545
549
548
537
526
517
516
514
510
502
497
492
484
480
482
485
485
486
478
470
468
467
466
466
463
457
452
447
446
446
448
443
434
431
432
432
430
429
426
420
419
419
419
411
407
411
416
415
417
412
403
409
417
406
397
402
407
406
402
403
408
410
408
406
404
399
402
410
414
411
410
415
418
417
417
414
420
426
429
413
400
398
403
410
409
406
415
423
412
404
404
404
406
412
416
427
444
450
440
432
435
439
433
425
426
419
416
423
426
426
430
436
429
421
424
435
444
445
444
442
443
438
436
439
443
451
456
456
456
450
439
436
442
446
447
448
449
449
442
438
443
451
457
453
441
428
433
451
458
455
454
456
459
457
456
462
469
470
466
465
469
464
460
459
458
458
467
467
468
471
470
463
465
470
472
470
467
468
473
475
478
476
482
488
477
467
467
470
472
473
477
472
467
472
479
477
473
472
476
475
473
470
467
471
472
472
471
470
466
467
469
468
470
472
473
475
477
478
474
477
481
477
473
470
470
470
472
474
473
475
469
467
474
478
471
475
477
468
463
465
477
478
469
462
465
471
468
459
460
471
477
474
475
481
484
483
482
473
465
466
471
475
475
472
471
471
472
469
463
455
456
467
474
474
477
488
489
482
475
478
477
483
487
480
478
473
471
466
461
465
474
480
481
480
474
476
479
479
475
474
473
475
476
477
479
479
478
484
485
479
474
470
464
461
462
470
474
473
474
479
481
483
484
482
487
491
476
463
464
472
475
478
481
476
473
480
485
483
477
473
469
473
483
483
484
483
482
479
474
478
478
479
480
481
484
480
478
477
474
476
479
474
464
458
458
461
470
473
476
477
471
468
473
477
478
489
502
486
475
483
489
476
468
467
467
474
482
481
479
475
468
469
470
474
478
479
482
482
490
490
488
486
483
482
483
480
488
487
484
485
487
488
483
479
476
478
482
485
488
491
491
489
489
489
494
489
483
481
480
477
480
481
481
483
484
486
488
490
489
488
494
497
493
494
491
489
488
492
493
493
494
496
500
502
495
491
494
498
496
491
489
496
504
500
498
501
501
502
506
511
515
520
515
512
518
525
526
527
527
523
509
505
501
495
491
488
492
499
500
500
505
512
520
529
524
517
521
524
508
500
506
508
505
502
499
499
500
508
510
502
501
505
511
509
500
483
476
477
482
476
471
469
466
468
474
474
474
470
465
465
466
473
475
479
483
478
472
474
470
455
456
458
462
464
463
465
469
472
470
470
469
467
467
469
469
469
468
470
474
476
475
471
469
469
470
468
463
458
460
465
469
472
472
476
479
479
475
469
465
466
469
474
474
466
464
464
467
469
458
452
458
462
462
463
465
474
490
492
487
494
511
536
559
581
605
632
662
698
729
766
798
820
833
847
843
836
829
831
839
853
854
832
801
769
735
703
681
664
651
629
610
596
572
545
509
467
427
395
381
376
381
388
394
407
424
428
418
415
412
415
427
435
433
438
448
456
466
474
477
464
449
451
454
448
444
445
445
450
454
454
453
449
450
452
451
445
444
446
452
452
446
444
444
444
443
447
449
448
445
446
449
453
453
449
449
451
449
448
452
453
456
461
462
459
457
455
458
462
468
472
476
478
481
484
485
479
475
476
474
472
476
475
466
463
471
477
475
470
479
483
480
477
485
487
479
476
479
483
482
481
481
481
479
481
483
483
486
491
495
498
494
493
505
509
499
492
492
496
501
503
