577
577
571
558
554
556
563
571
572
577
561
548
569
577
566
566
574
583
591
622
615
613
604
593
591
584
593
594
596
590
587
596
597
590
588
582
580
575
564
561
568
577
576
570
577
577
574
571
560
552
553
545
535
534
532
521
522
524
526
526
519
525
525
517
491
483
489
491
497
492
491
495
486
473
460
449
434
443
456
464
467
462
455
451
448
436
428
428
433
431
432
432
430
425
424
422
419
418
415
424
443
460
437
415
410
405
400
405
408
408
411
414
414
428
428
428
431
424
428
438
442
444
443
440
446
440
442
442
453
453
457
464
458
457
453
458
465
455
443
440
432
423
427
446
461
461
447
439
430
424
427
429
432
434
432
436
448
447
434
432
438
446
460
469
476
471
465
457
459
459
453
458
470
471
469
460
455
454
469
493
509
491
465
459
476
489
491
480
470
470
470
474
474
483
484
486
494
493
484
483
492
507
502
496
498
496
495
491
491
494
499
498
500
497
502
503
499
502
495
483
480
490
498
497
491
490
487
495
502
502
500
493
490
494
500
503
492
486
484
482
479
485
495
498
494
489
498
507
505
506
512
510
510
522
537
528
523
530
523
516
513
514
511
508
514
519
525
514
508
496
482
475
484
491
487
485
480
476
470
474
479
485
482
482
487
477
485
487
474
469
465
466
461
466
477
488
489
490
491
492
491
483
478
471
469
472
491
512
513
511
506
501
504
491
476
465
471
480
481
486
479
478
482
482
479
476
490
492
503
505
508
490
472
467
472
478
471
467
469
477
485
491
489
490
482
473
473
479
487
505
501
490
500
511
523
523
530
533
531
530
533
518
522
532
543
546
547
539
526
518
521
525
532
522
518
519
516
501
486
494
502
503
507
517
508
518
515
503
495
490
485
489
498
487
478
480
488
479
479
472
460
464
466
477
507
536
538
531
520
512
513
509
492
483
473
469
464
446
444
451
443
445
454
471
465
464
466
460
461
472
490
498
487
484
496
505
505
498
499
508
507
508
502
494
483
481
492
496
510
510
513
522
520
523
515
522
531
536
537
521
508
510
524
529
526
523
509
489
476
477
474
466
463
477
486
476
483
484
483
484
460
482
501
522
532
515
488
474
468
457
444
440
445
455
467
467
469
480
492
482
476
479
476
478
492
490
487
500
498
504
497
491
489
477
500
506
506
494
496
488
481
492
522
549
560
552
543
530
516
524
533
516
517
521
522
516
510
502
502
506
496
491
479
470
475
482
473
477
485
496
507
524
529
536
550
558
540
537
542
544
527
516
531
552
555
551
533
508
490
474
469
478
485
490
485
469
479
478
456
446
454
452
450
455
451
463
480
484
482
474
475
471
452
439
455
493
517
534
532
497
475
469
461
459
458
457
452
423
407
407
404
413
432
444
460
477
491
503
509
505
494
487
482
488
488
470
463
472
488
509
505
482
489
505
508
487
494
511
506
505
488
484
439
426
457
475
465
463
469
441
419
464
566
633
615
542
496
496
507
532
575
614
651
673
689
712
722
733
748
772
789
795
799
808
812
818
814
801
782
763
736
712
683
673
661
656
654
634
616
592
568
542
531
494
446
420
416
429
439
437
435
417
428
449
452
424
418
422
393
397
421
459
490
539
540
507
503
495
516
553
636
634
534
566
606
612
566
473
413
393
397
388
395
416
420
407
395
394
413
454
480
455
430
445
462
488
499
492
500
502
479
467
462
455
458
448
444
434
425
427
432
451
463
469
467
465
461
484
480
465
459
465
465
464
481
490
488
518
536
535
516
510
504
497
491
500
528
523
512
490
472
460
467
466
470
473
467
465
470
472
469
459
451
455
457
460
460
462
475
488
498
503
502
504
496
486
480
491
497
498
495
498
501
504
509
518
522
522
524
527
525
520
516
515
502
514
524
534
548
554
561
559
543
536
529
524
526
533
543
549
549
549
552
563
565
563
564
557
560
571
581
592
594
589
589
585
579
574
566
563
569
563
562
562
563
557
564
578
595
606
612
619
620
612
601
605
594
571
562
566
572
582
588
596
598
597
595
597
591
587
577
568
557
554
554
551
551
557
561
565
592
588
579
562
557
562
554
546
553
558
563
565
538
511
490
500
514
518
513
498
474
463
458
471
480
475
475
475
462
461
457
451
444
444
444
443
452
457
451
440
429
416
397
392
395
395
407
414
421
421
412
405
401
401
396
395
392
395
401
404
404
413
426
423
425
430
429
414
412
419
410
413
416
417
422
432
434
434
434
423
410
395
387
383
398
407
417
425
429
422
419
431
426
422
422
431
428
410
415
421
421
423
429
432
433
441
457
461
446
431
429
434
438
435
428
433
430
423
426
430
433
436
433
431
426
433
445
445
442
454
459
463
469
465
460
462
464
459
450
448
453
450
449
450
449
455
458
457
465
462
456
451
460
459
454
460
460
459
460
457
455
461
457
446
434
439
445
448
449
449
447
454
461
461
462
457
459
461
459
456
462
460
470
490
505
499
471
455
454
463
464
462
465
475
489
489
488
488
485
481
479
483
488
499
499
492
488
483
473
461
458
460
464
462
458
462
470
475
472
471
472
469
472
465
457
451
448
457
455
454
458
459
462
463
473
477
479
483
487
484
476
468
464
450
441
435
438
453
472
483
483
468
461
459
456
457
463
461
446
440
434
436
444
450
458
447
439
450
455
451
452
441
452
460
468
493
470
471
480
469
460
482
493
489
500
502
494
476
467
483
488
492
479
466
462
482
494
496
478
464
467
469
497
499
473
470
481
488
473
468
469
452
466
489
514
516
502
480
490
506
508
498
491
492
495
503
505
515
493
471
469
456
470
477
465
449
449
443
451
452
436
441
454
470
483
475
479
495
508
499
497
510
520
509
505
499
498
504
504
498
492
497
506
499
490
505
509
514
496
472
454
455
460
479
504
503
486
478
495
497
487
482
482
484
482
491
490
478
470
465
473
485
486
499
505
501
491
490
478
462
467
479
481
490
491
491
478
471
479
491
499
493
494
479
479
467
462
474
459
451
458
487
504
527
507
485
491
483
475
482
492
508
501
500
521
498
514
500
498
482
504
526
499
484
504
504
486
484
509
544
531
521
504
497
519
506
507
516
506
484
483
464
435
438
464
482
493
489
515
515
489
495
511
535
537
516
505
512
531
548
532
493
480
475
497
502
491
479
474
467
484
515
507
501
435
452
476
454
471
465
456
466
471
454
465
471
458
432
408
410
461
484
517
543
512
475
459
483
481
443
442
448
433
437
444
467
470
457
465
462
452
445
454
456
450
447
446
447
457
462
463
464
461
462
471
483
494
487
473
470
472
476
477
463
463
469
464
463
456
453
432
436
438
437
440
441
435
420
394
392
417
436
451
479
515
551
576
582
590
620
665
694
734
781
821
863
891
903
908
905
911
920
934
948
960
956
952
931
911
872
837
798
773
741
702
645
625
623
594
548
510
461
427
406
398
388
380
396
408
416
421
427
435
436
428
428
430
429
427
436
441
443
436
440
441
446
445
429
403
402
408
413
400
387
395
407
422
437
442
453
464
442
423
420
432
434
417
405
407
411
411
408
412
414
429
438
432
437
441
439
446
452
449
440
429
434
425
419
405
419
421
431
428
431
448
450
442
441
414
404
429
451
476
498
494
463
439
448
464
472
474
472
469
461
467
472
463
463
476
507
512
499
485
472
469
476
482
484
466
453
458
471
484
488
499
501
503
497
491
488
497
504
511
508
523
528
526
515
501
492
500
505
519
537
527
470
484
510
519
522
544
562
552
542
537
534
534
536
531
525
520
522
514
511
529
561
552
539
540
550
566
576
582
589
589
581
575
577
574
560
554
553
565
567
585
610
604
574
570
578
590
593
591
591
582
577
585
596
602
607
609
606
599
595
586
580
588
609
614
596
592
597
605
604
590
572
555
546
550
573
592
581
573
571
556
538
532
532
536
547
561
572
551
531
529
542
536
525
515
518
516
516
513
509
508
505
495
487
474
455
446
455
468
462
452
453
455
440
422
411
406
410
427
445
439
428
421
418
417
413
411
401
382
364
360
368
407
451
411
380
372
372
371
368
365
368
372
373
378
385
392
387
381
383
383
385
384
379
378
377
380
385
389
391
399
399
396
391
380
382
385
384
392
404
402
402
398
388
382
384
399
413
413
425
441
417
398
396
403
411
413
426
437
409
395
393
393
395
400
409
419
422
423
413
401
393
391
392
404
428
442
445
450
457
457
446
435
424
419
410
396
403
417
424
421
413
406
412
431
450
441
464
468
447
429
421
419
422
431
441
436
429
435
465
471
454
458
465
460
460
460
457
452
441
436
437
439
442
453
454
452
451
450
454
467
479
486
496
479
464
457
454
459
461
460
461
459
457
455
454
449
450
453
453
452
452
456
453
450
440
436
453
492
500
474
457
453
455
461
462
459
458
455
453
447
439
436
452
483
485
468
463
463
455
453
466
464
458
451
452
456
457
457
456
455
461
465
465
464
459
451
452
462
463
454
443
442
448
447
440
438
451
475
470
464
461
452
447
445
449
468
497
510
494
473
467
475
475
470
465
460
461
466
464
456
456
455
456
444
440
438
450
468
482
485
479
472
467
467
464
457
458
462
462
459
452
448
439
431
437
456
483
494
475
450
448
457
477
468
458
460
459
453
445
441
436
437
454
465
474
481
475
464
466
470
468
467
464
461
461
470
480
482
477
462
453
450
457
466
462
463
463
466
465
460
453
457
483
497
477
475
472
469
490
524
519
496
480
490
501
506
503
498
489
482
491
492
493
494
492
491
484
472
467
472
489
502
490
483
481
463
494
496
487
482
484
487
494
497
494
509
518
503
498
495
487
480
467
457
468
483
491
492
493
507
529
514
498
502
507
511
508
500
499
506
520
519
512
511
510
512
492
483
479
480
484
486
483
494
514
513
484
475
483
500
517
512
506
505
502
504
505
514
509
496
486
482
480
479
480
476
466
467
470
467
463
466
466
466
484
499
474
459
463
476
475
464
460
459
458
452
442
442
438
453
465
477
456
443
453
454
451
455
462
468
464
457
457
459
464
476
475
479
481
473
466
461
442
435
446
466
483
481
470
454
449
446
446
463
490
472
450
459
489
510
487
475
474
477
463
450
445
445
440
433
432
435
437
445
462
481
487
487
488
506
521
538
560
582
615
649
675
693
716
742
774
810
836
847
836
830
829
836
844
848
833
808
778
743
693
667
665
647
625
634
625
584
556
543
530
488
454
425
413
411
428
437
434
424
430
440
439
439
437
420
410
416
422
430
440
451
451
448
462
485
498
494
481
459
434
428
431
454
478
468
464
464
473
472
467
467
463
466
462
472
484
495
461
449
457
460
462
464
457
454
451
448
447
450
450
456
465
473
493
495
494
487
481
479
473
469
476
477
470
463
470
480
461
457
463
483
497
498
494
493
491
487
480
481
483
486
487
483
475
474
471
465
465
468
488
518
508
502
494
486
486
494
494
488
481
477
482
491
485
476
470
476
483
491
512
520
509
512
521
514
501
492
492
488
489
492
497
501
489
487
490
503
518
508
502
502
511
516
513
514
513
513
511
509
482
474
479
490
4
483
484
480
483
489
495
492
489
474
463
456
453
463
470
470
478
486
490
486
488
487
482
474
479
490
492
3
484
480
483
489
495
492
489
474
463
456
453
463
470
470
478
486
490
486
488
487
482
474
479
490
492
494
502
498
486
476
470
474
486
489
492
490
485
478
465
467
472
466
463
474
469
468
478
489
478
461
465
472
470
487
487
484
490
486
476
479
490
488
488
493
490
484
487
484
481
478
471
464
466
469
465
471
488
495
495
485
478
469
482
487
491
492
483
474
478
483
482
471
467
472
477
478
476
468
451
459
467
477
494
501
499
489
490
507
514
499
493
500
505
505
506
497
488
491
485
491
487
484
485
499
503
511
514
510
510
507
513
514
506
511
523
516
504
513
517
500
508
510
505
504
502
503
509
502
500
499
505
509
508
512
507
512
518
510
507
500
491
500
502
501
494
490
490
494
502
505
496
484
470
462
457
469
484
488
495
498
490
485
493
481
448
445
449
461
465
474
466
467
473
481
486
487
484
487
485
476
469
460
455
456
458
456
459
465
465
453
451
466
479
484
487
475
469
468
467
467
463
458
458
461
465
467
469
468
467
469
480
474
468
465
472
477
468
464
459
465
458
466
474
472
468
462
462
459
455
469
475
487
496
498
505
512
529
548
558
575
595
626
654
672
701
730
745
757
780
799
802
794
795
796
799
793
787
767
738
707
672
647
619
589
572
551
542
532
509
478
445
412
387
390
385
387
400
408
423
427
423
428
437
434
444
466
468
460
454
456
458
462
470
473
477
485
484
477
476
471
469
475
482
483
482
472
471
462
449
446
450
458
472
473
472
468
459
454
463
468
466
469
467
474
476
474
478
474
477
467
459
462
463
458
452
461
465
453
446
449
451
455
468
477
483
477
478
478
482
470
458
458
457
463
463
474
476
477
482
488
483
480
474
476
486
496
503
504
493
481
482
474
481
486
480
476
475
485
489
492
493
499
505
509
514
506
509
526
522
514
508
504
508
512
511
508
512
503
504
509
508
510
510
516
522
520
521
526
524
520
523
529
529
527
531
539
535
537
542
543
543
537
540
536
542
542
539
538
539
535
542
559
570
573
573
565
562
564
555
547
545
557
567
565
557
549
559
572
574
573
581
582
573
575
557
555
565
568
571
572
566
560
554
548
560
569
571
575
589
589
580
580
567
550
543
549
549
544
543
541
542
539
535
526
521
523
525
527
539
531
527
515
514
513
504
496
496
497
483
480
478
474
467
463
464
472
467
468
469
460
465
470
465
448
434
437
441
431
427
421
425
431
423
416
417
424
432
424
418
414
407
403
404
412
413
410
406
398
404
411
415
423
419
419
414
416
409
410
412
416
427
428
417
405
408
412
412
414
422
429
435
429
417
416
409
405
416
431
436
429
429
432
437
434
431
444
445
439
431
436
435
425
424
431
434
426
416
424
427
424
431
436
438
443
441
433
439
438
441
450
452
444
442
439
443
450
446
442
442
443
450
461
462
460
477
477
468
465
469
472
467
461
461
463
460
466
471
476
470
455
453
452
443
434
432
443
464
462
450
459
467
459
460
466
475
480
477
482
475
464
467
461
459
480
498
497
494
487
483
478
477
480
483
486
488
487
480
478
473
467
461
471
477
475
480
480
475
469
462
461
462
463
470
483
485
481
480
483
490
488
483
480
487
473
473
473
477
474
466
473
478
488
491
490
488
483
483
485
485
489
486
465
456
454
460
465
473
470
473
481
486
486
480
477
479
478
473
479
483
486
479
466
467
465
455
456
478
483
477
470
477
483
487
490
486
483
479
487
477
480
483
482
474
475
472
476
473
478
483
485
484
483
471
478
478
479
471
469
468
474
473
477
486
482
476
473
470
471
475
476
469
474
480
481
482
480
478
474
474
477
480
486
482
481
475
477
479
472
466
464
468
469
463
458
462
466
481
488
492
499
497
486
476
475
477
477
485
492
477
472
475
469
456
462
471
478
481
479
476
482
480
474
475
479
481
474
479
488
496
501
510
509
498
490
487
493
495
486
483
487
492
493
498
495
491
499
496
501
505
508
514
511
508
508
503
501
507
508
504
497
499
502
505
509
502
499
498
501
498
511
514
517
525
527
523
515
507
508
514
517
506
498
499
494
496
496
497
496
491
491
493
499
494
476
480
475
480
485
482
477
473
474
480
488
481
471
461
462
469
477
481
478
476
471
473
474
477
472
465
463
465
461
461
463
456
459
451
450
459
474
478
471
467
469
480
477
479
479
478
473
471
471
478
483
478
467
470
476
476
466
460
462
471
482
479
470
465
467
470
470
475
476
467
459
452
448
455
452
445
452
464
476
478
483
493
494
500
519
543
574
605
635
651
673
703
728
761
786
799
794
797
801
803
801
805
816
812
798
765
735
705
671
645
624
613
603
590
571
539
521
511
482
454
428
412
415
418
429
435
434
443
460
459
459
453
450
454
456
458
459
455
469
468
476
479
473
467
473
476
473
467
467
471
458
445
449
465
470
464
469
468
462
456
450
447
428
430
439
445
451
458
461
460
459
464
466
457
449
447
449
453
457
454
450
449
450
455
458
466
468
460
455
458
468
486
488
485
483
479
467
460
469
474
478
479
480
476
470
466
464
474
472
469
467
472
476
486
483
483
489
496
494
486
485
472
474
471
483
496
500
501
498
497
503
515
504
484
482
488
495
491
478
481
482
485
493
502
513
516
509
510
508
505
504
504
500
504
511
513
514
514
515
520
509
509
509
514
515
518
522
518
516
519
521
531
542
550
545
542
545
539
541
544
545
547
548
544
547
559
561
568
568
563
556
559
562
552
542
558
564
564
566
563
559
553
558
571
573
570
564
562
562
560
575
586
581
574
563
548
539
531
539
545
543
542
538
541
541
544
543
552
556
551
540
530
524
525
530
535
527
513
507
499
497
504
514
513
517
506
497
495
500
494
484
481
479
467
459
452
439
424
435
442
444
446
453
456
452
446
449
458
457
454
445
430
422
428
435
436
430
429
423
410
403
412
430
435
439
443
436
421
410
414
420
426
438
428
420
425
430
434
425
418
428
425
422
419
412
407
408
411
405
404
413
423
429
429
431
442
434
424
416
409
414
418
421
426
426
435
435
437
440
441
440
444
448
442
438
443
447
451
448
442
436
430
432
430
427
426
429
432
432
422
414
429
435
427
436
447
456
461
458
457
465
467
474
485
478
463
464
462
454
450
457
469
478
470
462
461
471
472
460
456
462
475
491
488
469
452
454
464
471
478
483
486
483
480
476
474
463
461
456
463
468
470
469
467
472
476
470
472
474
476
474
467
466
474
471
471
474
475
470
472
472
460
459
463
464
463
466
475
479
476
469
467
466
462
457
456
468
480
489
492
493
486
477
476
480
476
473
469
461
458
466
473
472
474
469
470
473
472
470
464
453
465
478
478
490
489
470
461
464
468
473
471
469
468
471
471
468
476
484
483
481
483
480
473
476
478
479
471
479
493
497
486
477
471
465
470
463
459
464
478
485
481
478
482
474
476
478
487
491
483
482
481
479
473
476
478
471
469
466
466
469
469
475
474
472
472
477
481
477
477
482
485
484
482
474
465
463
466
474
480
482
485
483
472
467
475
476
471
465
461
462
478
488
489
489
494
501
497
504
501
480
469
475
483
490
497
504
503
503
510
508
498
475
459
465
485
496
499
499
498
493
490
489
488
482
474
468
468
478
483
475
474
467
472
478
484
473
469
470
469
474
476
475
476
475
474
475
478
480
483
486
488
492
483
474
481
474
460
462
470
472
474
477
473
473
482
486
484
485
485
482
473
471
485
497
496
493
493
480
471
477
481
480
485
481
481
488
489
477
467
475
485
491
493
487
481
478
478
481
491
500
505
505
505
499
501
501
494
481
480
480
477
482
493
492
488
489
491
489
489
495
502
504
501
509
517
520
516
508
502
504
513
515
523
517
513
512
520
518
517
516
494
477
479
499
504
494
492
500
507
514
516
504
497
499
499
514
513
505
504
502
509
516
516
516
507
506
514
517
516
507
490
476
474
483
492
494
496
502
491
474
460
453
446
448
463
476
477
472
465
464
465
463
459
464
473
482
488
485
480
477
481
485
485
479
470
463
459
460
465
464
466
465
472
478
484
488
491
478
472
471
463
459
467
474
472
474
464
444
438
454
476
488
489
484
483
481
479
476
469
468
464
462
466
466
454
445
445
456
468
468
474
478
482
483
483
500
533
553
573
604
640
662
682
715
750
778
809
823
825
814
810
806
793
800
810
817
802
787
766
728
695
672
655
653
659
657
647
619
572
537
514
494
471
455
444
441
442
446
450
444
439
439
441
447
444
441
457
468
472
470
456
456
464
478
480
481
481
477
477
470
458
454
446
448
447
444
442
447
451
447
447
453
462
471
477
467
464
466
462
448
435
429
425
423
429
440
442
438
440
436
441
447
455
458
463
461
455
453
471
471
462
454
455
458
448
441
454
469
472
483
490
474
464
457
461
461
466
478
484
473
466
463
465
462
461
466
470
475
478
470
473
481
473
467
472
483
493
499
500
504
502
495
482
477
483
489
492
499
508
511
502
497
491
480
475
478
485
495
516
525
523
527
529
519
514
506
500
504
503
501
505
518
512
502
504
504
503
504
504
504
512
520
516
515
527
541
546
544
542
544
546
546
545
539
535
543
555
560
565
558
549
551
550
550
545
537
540
553
557
557
552
556
560
569
570
565
560
561
566
561
553
553
562
567
563
555
550
552
557
554
558
557
551
550
543
535
538
551
558
563
563
564
563
552
533
523
526
529
528
523
522
526
518
515
521
521
520
519
517
518
512
499
496
490
483
488
493
488
477
465
468
479
485
476
471
468
467
465
467
464
453
444
438
425
424
435
439
445
453
462
446
431
422
417
415
416
418
417
412
407
416
429
432
423
417
417
419
413
407
413
424
414
401
407
415
415
414
422
435
438
442
445
434
432
434
427
418
412
419
434
448
446
439
434
431
424
425
433
434
436
440
449
451
454
456
450
447
445
434
422
421
427
438
447
445
449
455
456
451
444
438
438
444
450
455
448
445
447
449
456
466
477
467
447
438
443
450
455
460
456
449
448
450
449
450
453
460
465
467
464
459
457
457
456
463
467
468
473
469
467
475
481
480
478
478
471
465
466
470
475
482
490
491
490
483
479
477
477
478
475
475
472
467
459
464
466
465
471
477
478
483
487
487
478
481
484
477
472
472
473
474
471
464
460
454
452
458
472
475
466
468
479
481
484
473
468
465
470
471
464
462
463
465
476
482
486
486
477
475
475
477
480
475
467
460
462
463
469
473
477
480
474
476
483
474
469
472
475
478
480
477
480
484
479
483
485
483
487
483
481
483
485
478
470
475
478
480
475
477
489
490
480
474
474
481
479
469
472
477
478
481
485
487
479
467
470
479
480
478
477
479
481
479
472
469
474
482
483
480
476
475
476
481
484
488
492
488
482
483
480
480
485
492
485
476
474
472
474
473
478
480
479
481
481
484
482
474
466
465
468
464
459
463
470
477
482
484
485
482
476
474
475
478
483
485
483
479
472
471
474
482
480
482
478
481
489
485
483
476
479
490
497
491
482
481
475
469
472
485
496
505
496
481
472
467
463
467
465
465
486
503
505
504
493
489
486
480
477
483
489
487
484
486
497
503
492
482
469
460
456
466
479
478
478
483
483
485
494
496
491
484
480
482
477
468
467
474
484
488
493
493
489
483
477
479
477
475
475
481
482
478
486
488
485
485
482
479
477
473
474
483
491
486
481
478
474
472
476
480
483
487
499
506
501
491
494
492
489
488
489
487
488
493
498
498
492
483
480
481
481
482
481
490
493
491
490
489
486
483
481
487
499
505
500
493
501
513
512
505
497
502
511
513
505
498
498
492
496
510
515
499
485
485
499
508
500
487
487
487
479
480
483
485
491
492
494
501
505
505
508
512
509
514
520
522
526
524
518
509
503
503
511
518
516
508
518
529
522
504
503
504
507
507
507
502
500
497
501
500
494
492
487
477
475
481
479
477
475
480
484
479
479
480
483
484
483
479
472
472
472
469
467
466
467
469
474
482
476
466
464
464
463
472
480
484
481
479
474
470
470
474
478
475
474
478
473
467
470
473
472
475
485
488
482
476
474
477
481
487
486
477
458
454
451
448
446
459
470
473
468
468
464
466
472
473
474
464
463
468
459
460
465
462
468
487
494
491
487
496
533
565
591
624
657
679
703
734
764
786
792
799
802
798
789
784
801
810
805
801
799
783
755
734
707
693
684
674
660
638
612
589
565
551
532
503
473
451
431
421
424
424
421
427
435
444
454
458
459
458
452
465
473
471
473
466
465
463
461
460
458
456
445
447
453
457
460
452
454
454
451
452
454
454
449
444
444
441
447
453
461
457
443
430
430
436
438
429
438
453
452
454
459
460
458
453
451
451
445
436
438
448
461
462
454
455
459
458
452
450
452
460
467
473
484
477
465
457
455
468
478
479
476
467
468
469
469
473
471
464
469
476
480
483
484
475
473
476
482
480
470
461
463
472
485
496
491
489
497
499
497
491
485
488
494
499
509
518
507
500
503
502
498
503
515
513
502
501
506
509
502
505
513
516
518
519
524
520
513
506
506
513
513
503
502
517
525
523
522
523
522
526
538
544
542
544
541
540
535
533
531
539
550
559
563
561
552
547
558
568
568
565
554
550
549
548
544
539
541
550
547
547
559
570
575
575
573
571
567
568
564
558
558
555
557
556
551
554
565
565
555
545
538
540
544
550
561
562
554
552
545
536
531
528
527
525
523
519
517
515
515
514
504
497
497
498
494
487
483
487
489
491
498
499
489
479
472
467
465
466
467
464
459
453
448
449
450
438
430
429
434
436
436
433
438
442
438
441
444
426
405
402
399
401
406
412
414
409
404
404
410
412
416
428
420
401
406
413
409
409
405
405
411
418
425
446
463
455
461
459
445
445
424
402
403
414
417
435
467
480
458
457
432
411
434
428
427
419
405
397
403
409
424
446
482
512
464
440
440
443
439
435
440
446
447
459
472
476
451
446
448
462
473
451
435
431
433
446
448
441
438
460
474
466
483
495
463
462
485
498
504
477
431
434
458
481
481
461
444
448
479
492
487
457
435
449
467
473
505
505
460
439
440
449
462
474
511
517
503
460
460
466
466
472
474
460
448
459
475
495
492
467
460
465
466
462
462
466
472
476
483
496
495
506
497
482
456
462
463
468
476
476
468
466
470
474
468
465
471
476
471
468
463
455
447
452
471
473
477
504
494
502
504
481
466
469
460
460
460
460
462
464
471
468
468
466
462
458
459
462
470
478
474
472
466
461
469
465
466
469
463
455
457
462
464
459
458
469
479
473
462
472
471
477
486
492
481
472
470
473
474
451
444
446
440
443
438
439
459
492
494
483
465
466
482
473
466
466
468
476
475
451
442
449
458
466
469
468
482
495
495
487
465
451
449
454
463
471
478
466
463
467
462
461
464
473
484
467
469
474
469
480
482
481
475
468
462
460
453
455
460
459
454
461
480
498
495
497
490
492
489
485
480
467
466
461
454
464
476
478
479
468
463
467
466
464
473
483
486
481
476
472
467
468
491
489
477
471
475
475
477
489
487
477
457
463
469
468
462
467
478
486
487
482
478
481
485
480
477
478
477
478
476
474
475
486
496
492
484
474
472
466
467
472
472
472
474
477
477
477
483
492
497
486
472
466
464
464
464
462
465
466
470
475
478
480
477
472
473
477
474
470
478
478
483
476
469
474
479
484
489
492
491
490
493
498
493
480
474
473
472
477
472
458
456
462
473
480
484
489
496
492
490
490
491
495
496
498
492
480
478
483
484
474
468
471
472
468
469
481
486
478
469
476
494
502
497
499
495
499
494
489
482
487
487
480
473
477
489
490
491
479
467
466
476
486
490
489
483
479
475
478
484
480
474
474
479
494
504
506
509
517
531
509
494
491
491
495
486
483
490
501
501
496
499
497
493
494
505
507
505
504
505
508
509
510
508
511
519
514
512
512
512
511
510
516
527
530
519
512
498
482
487
484
499
504
498
499
503
507
509
500
486
473
461
462
476
484
477
463
457
464
463
458
460
463
459
457
462
477
490
485
483
477
461
456
461
476
488
479
474
466
463
461
457
455
461
466
469
470
474
478
482
486
489
484
481
477
475
470
467
465
471
477
477
475
469
461
471
478
476
475
471
470
470
474
468
468
463
458
467
472
474
476
464
454
451
454
457
453
446
448
457
465
470
475
485
502
524
540
555
593
636
665
686
707
729
748
773
806
825
805
781
779
792
794
798
800
802
799
785
759
723
688
678
674
665
665
665
649
618
573
543
523
501
478
453
436
430
433
442
451
449
444
440
436
430
427
437
456
475
478
483
484
477
475
467
456
457
458
459
448
429
435
451
456
453
438
428
426
430
438
444
443
446
458
462
473
469
472
463
447
426
419
429
442
451
458
481
474
476
464
468
473
445
441
434
437
450
459
480
485
472
466
442
450
462
462
444
443
452
462
480
492
475
453
461
464
464
472
495
505
492
502
486
441
449
448
453
469
477
474
456
445
442
450
447
476
487
482
485
491
484
495
498
516
520
495
427
394
441
490
505
506
501
492
482
479
476
487
497
490
478
482
500
505
500
499
505
510
513
512
512
507
502
509
519
527
532
537
526
493
481
486
500
521
525
529
523
521
535
536
529
527
533
539
544
554
565
571
576
579
579
578
571
559
548
552
562
565
568
573
579
588
594
576
568
571
579
577
572
572
570
585
592
576
579
598
591
567
554
558
554
545
556
582
588
581
581
573
568
555
540
537
541
539
550
541
533
540
545
539
537
531
522
519
519
523
519
522
536
533
531
518
500
491
478
490
490
481
474
480
471
452
440
447
458
465
458
452
450
450
452
446
442
439
428
428
432
433
432
429
430
434
431
419
416
415
415
411
410
415
416
414
407
401
399
403
407
409
404
411
419
422
414
413
423
423
424
430
416
401
392
397
400
404
398
400
413
424
425
412
406
408
417
427
434
430
422
423
425
423
419
421
425
426
438
439
426
410
405
419
425
431
439
443
434
432
435
427
423
432
440
440
443
432
439
450
450
450
444
440
450
460
470
471
482
464
472
462
464
472
466
456
452
441
433
441
446
454
457
464
470
469
448
433
436
445
453
449
457
463
469
474
461
457
471
478
477
471
471
472
467
466
473
464
457
459
458
459
467
474
484
489
471
459
454
457
462
460
452
452
461
467
472
477
475
469
468
465
470
467
467
470
465
461
462
462
463
465
466
461
456
460
465
471
478
473
463
459
461
464
467
468
467
469
472
477
473
480
493
493
485
480
484
489
490
480
470
470
472
466
461
466
483
504
503
491
467
427
440
457
474
482
482
479
477
474
465
467
470
484
495
484
482
476
462
457
456
453
454
468
482
486
479
479
471
467
471
475
481
486
479
476
479
471
464
459
454
465
483
486
479
475
473
472
472
469
464
463
467
467
467
479
487
487
484
477
477
486
484
481
480
485
478
479
482
492
488
488
492
491
476
464
465
467
477
485
481
485
485
497
490
481
485
471
458
460
456
469
473
469
474
487
496
503
511
509
497
480
477
484
477
467
466
460
463
470
467
468
483
486
486
483
480
477
477
478
484
489
487
480
474
476
478
482
482
478
472
464
465
467
474
476
479
473
471
469
472
477
482
479
474
472
475
477
473
479
487
495
504
513
508
492
485
491
491
489
497
499
493
490
482
487
489
478
476
483
477
473
471
473
482
493
498
490
473
469
483
495
504
493
484
480
478
487
493
494
499
504
498
489
474
471
484
489
489
484
479
477
484
494
484
479
479
476
480
488
491
494
501
500
491
493
499
494
478
479
483
487
491
489
487
483
486
498
499
494
488
490
491
486
485
478
474
477
482
487
496
496
492
487
490
485
479
478
478
481
487
494
495
489
480
472
470
470
481
496
500
497
501
500
492
489
488
493
487
480
471
474
481
476
469
467
468
476
493
504
505
502
496
498
504
513
508
497
495
490
484
480
479
478
467
454
468
491
498
492
497
499
497
493
490
491
496
501
506
513
509
505
498
489
486
491
492
497
502
506
502
508
515
520
521
525
529
537
533
530
534
526
515
512
504
512
515
515
521
519
511
507
507
506
510
518
526
531
534
529
522
516
507
502
496
500
498
492
484
472
479
489
493
491
488
483
480
482
482
483
479
483
485
489
492
484
469
471
477
482
484
483
482
482
486
479
470
467
478
494
491
475
468
469
472
477
484
496
495
485
491
491
481
476
476
475
480
476
461
467
478
474
474
470
464
468
469
471
476
474
466
470
479
474
464
462
471
479
483
476
471
470
460
462
468
465
459
459
469
479
473
461
462
466
473
486
494
501
521
547
571
582
592
619
658
697
726
762
791
818
836
835
822
814
819
813
802
792
796
792
780
762
732
701
683
672
668
667
654
626
599
566
542
519
482
442
415
408
405
417
428
434
436
451
459
456
459
457
447
444
451
461
461
462
463
466
476
478
472
467
469
472
472
463
460
458
454
451
450
449
447
448
447
457
466
463
445
437
435
441
457
458
454
448
445
444
437
436
445
449
457
468
465
461
457
449
451
455
461
456
460
464
468
465
459
454
459
465
468
467
467
461
464
464
460
470
472
466
464
469
471
472
480
478
474
478
479
475
473
479
481
492
495
492
484
480
484
479
473
484
495
491
495
496
497
500
504
514
508
486
467
477
497
502
501
505
508
508
507
504
503
501
515
517
516
518
522
518
513
515
516
519
517
520
522
524
524
524
509
507
515
520
522
527
536
536
537
537
524
524
534
534
529
532
544
559
554
550
555
567
575
572
567
558
552
552
557
567
573
571
568
569
573
574
569
579
585
584
578
568
566
555
546
546
547
552
555
567
574
571
569
573
583
583
583
577
565
579
584
569
560
560
563
562
559
548
547
544
541
539
540
544
543
539
537
532
528
521
515
516
520
514
508
504
497
495
500
499
501
502
499
498
485
477
462
448
449
455
461
463
459
459
467
470
462
451
449
441
435
432
431
432
430
421
421
419
419
420
417
416
422
419
420
418
411
406
413
419
420
422
419
416
412
411
405
406
408
406
402
404
403
396
396
406
412
411
416
419
421
434
453
467
462
434
416
420
427
421
421
426
424
420
419
419
427
428
426
427
428
427
431
426
426
431
431
439
446
447
444
441
436
433
438
441
436
432
441
447
441
436
437
439
438
436
441
453
460
461
455
447
442
437
449
460
459
461
463
461
457
451
443
445
453
460
455
458
468
470
470
465
463
463
458
456
451
453
459
464
460
455
459
467
472
468
466
464
476
478
473
467
464
470
471
470
469
473
481
484
483
472
457
453
461
467
459
458
472
482
479
475
475
477
477
476
472
475
482
488
486
473
467
467
465
461
453
453
458
466
467
472
477
477
479
486
485
487
483
475
469
463
467
475
477
475
467
467
474
476
480
484
468
474
482
485
477
478
479
476
476
475
469
464
467
477
481
484
485
485
481
473
475
478
477
470
471
485
494
492
480
476
472
457
447
447
449
460
476
478
473
482
492
492
489
482
480
488
500
503
494
480
471
470
473
469
454
458
467
471
476
486
488
483
479
472
470
476
481
482
473
469
472
473
470
462
465
482
481
466
461
467
478
483
482
485
488
490
486
483
488
490
484
481
479
478
468
474
483
490
484
469
469
474
474
473
478
484
486
481
471
465
472
486
498
495
488
489
495
498
486
477
468
462
465
475
476
474
476
479
478
478
479
484
493
490
484
484
478
467
469
475
478
482
481
481
484
489
496
493
488
486
485
482
483
482
489
488
475
467
475
478
472
472
478
481
488
493
492
490
493
480
481
484
486
491
498
496
481
472
467
474
485
489
485
485
483
482
479
474
469
471
479
485
496
506
504
498
495
485
484
487
485
486
485
484
481
483
483
482
478
484
489
493
499
501
495
482
470
464
467
482
488
485
481
483
488
492
490
479
471
478
487
486
486
486
484
484
486
483
488
490
489
490
480
472
474
471
471
470
476
493
499
497
491
485
475
476
491
499
488
475
469
470
478
484
490
497
496
495
494
495
498
500
493
490
490
490
488
480
484
498
502
507
513
506
494
486
485
493
497
493
495
497
494
480
472
474
475
472
474
484
492
497
503
504
504
508
508
509
507
485
484
497
499
496
496
499
496
496
493
493
490
484
493
503
514
525
531
531
519
511
498
495
496
506
509
501
495
502
518
523
521
518
531
532
524
515
515
517
517
523
522
525
522
512
501
502
506
502
489
480
477
471
481
494
506
506
501
498
485
472
472
475
473
477
474
474
470
465
470
475
478
480
479
482
483
477
472
474
474
468
469
471
471
472
471
468
463
459
463
471
477
473
471
474
473
471
473
480
484
485
485
483
479
478
473
474
474
475
476
472
469
465
466
471
469
462
463
473
472
463
459
468
473
471
467
460
471
481
470
461
462
464
483
496
495
500
513
527
551
570
598
636
667
690
724
759
785
806
820
819
810
800
798
802
813
824
829
823
802
772
738
690
664
655
648
641
624
596
568
533
506
484
466
444
427
421
422
422
434
436
435
443
446
446
446
447
466
470
458
453
454
465
478
485
475
460
454
444
441
447
461
468
470
472
472
460
452
453
450
448
457
466
463
457
449
445
448
448
438
438
441
445
448
452
449
443
444
450
453
451
451
451
450
449
449
448
456
457
454
454
459
462
462
465
473
474
471
467
474
475
468
464
463
466
473
474
476
472
465
468
481
493
498
492
481
477
474
463
457
464
476
483
486
493
494
492
494
498
503
505
506
507
497
489
489
488
488
477
480
491
491
488
498
512
523
527
521
511
511
509
512
520
526
523
509
495
488
496
505
518
524
519
520
516
520
529
528
529
534
535
537
535
523
512
511
516
521
525
536
544
547
546
543
543
548
552
553
562
570
564
556
555
551
544
550
560
567
570
571
570
565
570
575
579
582
586
587
576
566
566
571
573
564
555
562
568
560
561
567
567
573
584
586
584
572
562
553
549
555
556
555
556
554
557
568
568
558
548
542
537
537
537
528
525
523
526
529
529
529
529
521
509
507
509
505
494
486
484
486
483
479
478
481
473
464
464
467
465
458
452
445
439
439
438
436
439
440
436
429
427
425
418
423
421
407
404
412
419
433
438
428
413
405
397
395
404
418
428
421
415
411
409
405
401
407
413
416
413
414
413
408
409
413
413
408
400
401
411
413
414
418
415
408
408
416
426
433
436
440
444
444
440
433
429
427
420
422
426
424
420
422
429
434
422
428
441
435
435
444
441
429
426
430
435
439
437
436
440
450
453
453
451
454
461
462
465
463
459
464
467
470
474
469
449
443
442
445
454
458
460
457
454
450
449
450
449
455
460
456
448
442
446
450
458
460
468
468
463
463
462
461
468
479
484
474
469
465
454
459
466
457
454
461
476
489
483
478
470
468
472
472
464
462
469
473
478
486
486
480
477
474
470
468
470
466
467
476
487
495
499
489
470
463
467
465
458
463
473
473
469
472
484
490
478
460
461
471
478
471
457
457
469
481
478
479
483
487
485
485
482
472
468
472
478
481
485
486
486
483
481
485
484
476
473
477
477
477
477
479
476
472
460
460
465
462
455
458
460
466
469
472
471
469
465
465
467
474
481
479
478
477
474
473
478
484
485
485
484
485
480
471
461
453
450
464
473
474
476
481
480
479
478
479
489
495
490
480
470
470
475
474
467
468
474
475
477
481
491
484
466
454
458
469
473
479
478
480
494
495
489
476
471
470
474
477
477
483
491
488
484
483
488
484
474
463
466
470
471
467
466
463
464
472
484
485
486
488
489
490
493
502
500
492
481
474
479
490
499
489
473
466
465
474
480
484
483
481
485
487
486
481
482
484
487
482
471
477
479
471
466
470
485
494
496
498
492
484
481
481
476
472
479
478
476
481
488
484
467
459
468
481
487
483
485
491
493
492
496
496
499
505
489
480
477
478
471
479
490
487
484
495
497
481
472
465
467
470
478
480
478
476
483
489
495
500
501
497
483
479
485
489
485
482
492
499
488
474
469
479
495
496
492
497
495
489
486
485
487
489
485
483
482
487
498
499
490
476
471
478
481
479
481
483
481
483
487
494
492
490
490
490
479
469
475
479
484
490
488
483
482
484
487
487
494
498
495
496
489
485
490
496
500
504
510
510
496
485
482
486
494
493
491
494
490
497
504
507
509
511
514
523
519
514
513
516
518
512
502
503
504
498
499
502
508
518
526
531
531
530
523
510
495
496
504
511
512
512
513
519
524
522
515
511
510
514
511
513
516
516
515
504
495
489
494
497
482
473
474
476
472
470
466
470
465
463
464
462
463
462
466
471
476
478
483
485
481
475
467
457
462
472
480
477
472
463
469
474
478
487
490
482
486
493
490
488
486
481
477
474
474
470
469
468
472
476
481
478
475
474
473
471
464
462
468
474
471
468
473
481
488
479
469
464
463
459
456
459
468
468
465
468
473
481
491
501
503
509
519
526
543
578
614
644
677
710
741
756
762
781
800
805
796
805
824
827
823
809
797
783
760
731
701
666
645
639
636
629
615
588
556
525
493
457
429
414
410
410
411
415
420
428
431
439
443
432
431
435
436
445
465
483
483
480
483
488
485
475
460
448
446
452
452
453
454
458
468
471
463
461
457
450
450
454
458
456
456
453
445
444
450
450
447
445
453
459
457
446
443
457
468
463
455
458
465
467
459
463
472
475
468
463
457
453
449
454
461
470
476
472
465
467
465
466
466
468
464
464
464
461
465
468
471
477
478
474
473
476
474
475
485
487
485
484
483
484
489
493
490
491
493
490
486
494
506
513
505
493
491
499
504
501
500
500
493
501
520
528
522
517
522
525
521
519
512
508
507
504
504
508
514
520
526
525
521
523
523
518
521
527
529
533
532
535
535
536
541
536
537
539
534
538
541
542
542
543
543
547
556
556
546
548
556
561
563
564
566
571
574
571
572
571
572
570
567
561
570
580
584
579
576
579
577
577
573
565
565
572
569
562
555
553
560
569
569
572
576
574
564
565
559
548
550
557
553
549
551
555
557
556
550
545
541
535
533
534
538
534
516
511
512
513
509
506
506
501
499
495
501
498
483
476
481
485
475
463
455
450
449
448
445
444
443
440
435
435
436
434
434
434
430
425
421
415
418
422
423
423
417
409
400
413
426
431
426
421
422
425
412
408
411
414
424
430
422
414
405
403
404
414
417
418
419
421
417
414
420
422
414
415
420
419
414
417
414
402
401
409
423
429
430
435
438
435
428
418
422
430
433
430
430
432
430
431
433
424
416
418
424
435
445
447
444
438
439
444
443
446
454
451
436
436
446
446
447
446
441
433
438
447
451
456
459
461
466
466
466
461
458
463
474
472
468
460
454
457
459
459
458
454
448
451
460
463
460
457
454
454
457
459
459
464
465
466
468
464
453
458
468
473
475
470
459
453
462
473
473
465
454
449
452
460
473
478
483
489
490
486
479
481
493
493
489
476
462
466
484
486
465
459
467
465
465
467
471
471
470
460
459
463
476
482
477
473
472
472
477
475
468
467
476
481
479
478
479
487
485
481
475
465
462
465
464
464
468
475
477
479
480
479
472
456
453
459
458
458
462
467
467
465
475
488
491
493
494
484
477
466
462
473
479
477
472
472
480
482
479
473
469
469
480
488
485
481
479
481
479
474
469
464
466
471
473
476
480
480
481
482
481
470
465
475
479
476
468
473
470
468
469
473
471
467
468
470
476
482
487
481
478
475
470
474
479
479
476
474
476
477
480
482
481
478
472
469
471
469
470
470
473
476
481
483
476
472
465
466
478
491
490
476
472
472
472
473
479
484
480
481
487
483
485
491
497
495
480
476
481
488
484
485
480
473
471
473
472
472
467
471
484
489
490
481
471
466
474
484
491
486
484
488
494
497
488
479
474
474
467
481
492
495
494
493
488
487
493
492
478
472
464
472
475
481
475
462
461
466
475
482
475
475
483
490
488
481
473
476
478
478
477
471
471
476
479
486
496
496
488
482
482
488
488
484
478
473
485
495
496
492
491
495
491
475
472
480
489
493
489
484
483
487
490
496
495
485
473
471
470
475
482
485
483
478
479
492
502
505
507
504
491
483
489
496
496
500
504
507
488
477
486
491
489
487
493
511
515
502
501
498
499
499
502
506
510
514
518
515
511
509
510
513
509
509
510
511
510
506
504
510
521
527
526
521
518
517
522
524
523
521
520
513
507
510
518
513
510
505
493
483
493
502
497
490
485
483
480
476
473
474
478
479
478
473
465
465
469
475
470
477
493
494
488
482
484
477
461
452
450
451
454
450
453
461
461
462
469
478
479
473
468
466
464
460
466
467
466
468
476
473
468
471
474
466
460
460
464
472
474
472
468
467
469
474
476
473
479
480
469
461
457
457
461
461
463
462
461
463
471
483
488
490
490
495
509
522
546
575
603
638
679
714
742
766
791
816
833
838
831
823
821
822
834
839
831
811
787
750
711
668
640
630
618
606
589
572
547
521
491
449
406
384
378
377
387
400
417
419
426
428
426
432
445
454
458
461
465
469
480
479
467
464
465
464
460
460
459
458
466
465
455
447
440
444
455
461
453
456
459
458
453
457
462
458
443
435
439
441
449
449
452
458
464
467
460
446
441
448
456
458
459
461
461
460
462
464
461
452
434
427
431
453
473
472
468
469
466
464
464
469
472
476
482
482
475
476
478
478
475
476
477
476
479
488
499
502
494
494
490
484
480
480
484
485
485
484
474
471
482
493
496
494
497
500
507
514
514
506
494
497
517
515
496
498
519
526
519
518
517
513
510
513
518
527
534
528
522
514
506
503
507
511
516
524
529
530
531
531
531
527
525
532
539
541
544
543
543
544
553
556
544
536
545
568
575
569
564
568
573
578
583
569
560
562
565
563
568
574
577
580
584
581
573
570
569
563
565
570
574
572
567
575
593
599
597
589
577
572
564
554
554
561
570
571
575
569
562
559
558
556
560
561
557
557
553
548
541
531
526
533
540
537
531
524
512
508
513
514
512
506
503
497
499
500
493
484
478
476
476
474
475
467
457
453
449
452
461
464
456
452
443
429
426
429
431
424
417
424
421
420
421
419
417
419
423
426
430
433
432
431
429
421
415
409
404
403
404
408
409
409
408
399
396
390
392
398
407
413
413
414
414
411
413
412
414
419
427
428
425
423
416
412
415
419
420
423
424
423
425
426
418
411
408
407
410
419
424
426
439
448
447
453
453
451
450
447
437
426
426
426
428
434
437
443
437
431
431
438
439
439
445
457
469
473
469
463
461
454
445
439
441
441
439
438
436
447
453
450
453
457
460
455
451
458
466
467
469
468
462
457
462
461
459
460
464
469
470
469
467
468
468
472
483
482
476
476
476
474
467
464
472
474
472
469
470
474
479
479
472
473
475
476
473
471
466
463
464
460
455
464
480
483
481
479
472
468
468
465
469
475
484
481
476
475
471
464
467
474
475
467
468
475
476
469
462
464
471
479
479
472
477
484
484
482
479
478
476
482
480
475
476
481
481
470
455
449
451
450
458
465
465
466
468
481
488
488
487
481
476
470
474
481
479
473
470
473
479
480
475
473
474
478
481
480
480
477
474
479
479
475
469
463
466
480
500
503
493
487
485
482
483
484
486
478
468
471
471
467
462
463
467
475
488
493
484
469
472
483
483
474
471
479
483
476
473
469
461
463
472
477
484
492
495
493
473
465
470
479
482
477
474
473
471
468
474
481
487
488
482
478
477
478
475
473
474
475
479
481
486
483
480
483
482
475
471
473
473
472
469
472
473
470
476
486
490
485
481
478
475
477
479
477
480
487
486
485
481
477
474
479
477
475
479
487
490
496
506
496
485
483
486
489
479
470
468
482
480
474
468
475
479
478
474
473
473
474
475
479
483
490
491
490
498
494
485
477
470
470
483
495
494
490
481
474
475
485
492
500
508
515
508
495
483
480
486
495
495
492
496
501
507
509
506
501
502
505
510
501
493
489
496
505
511
511
511
516
515
500
488
491
505
518
521
518
514
509
503
501
508
512
511
510
511
512
513
513
514
512
512
514
519
520
518
519
521
517
514
516
514
511
508
499
495
501
507
508
500
493
484
477
473
470
471
472
469
472
474
475
480
484
484
482
477
476
477
475
469
464
471
474
472
475
481
484
481
470
462
456
452
459
461
462
469
480
485
479
477
475
473
465
457
459
462
462
459
462
468
470
473
470
466
465
460
462
470
480
474
463
461
469
474
468
473
475
470
463
467
473
473
460
454
461
474
484
494
499
503
505
512
523
536
564
598
632
668
699
723
750
771
793
822
838
844
839
829
824
827
834
831
814
787
761
726
697
673
650
633
617
591
564
541
512
476
435
401
383
381
380
384
394
402
414
422
420
422
437
442
446
451
459
453
443
454
470
483
494
493
486
482
480
468
455
454
456
456
461
462
457
454
460
462
462
449
444
441
445
456
464
459
454
454
450
445
446
446
451
458
459
454
455
456
459
457
455
462
469
466
460
460
453
452
459
459
458
464
467
473
481
480
474
475
475
472
461
463
468
471
477
483
483
482
483
479
479
487
483
479
486
493
495
491
480
474
469
468
470
478
485
488
490
495
496
495
493
497
504
506
502
499
499
497
502
508
513
514
519
515
500
489
491
500
514
518
508
498
504
512
514
511
510
513
521
528
518
515
527
534
536
524
521
507
513
528
541
551
546
537
536
544
555
563
566
561
558
556
558
559
557
562
575
578
574
574
568
556
559
567
567
561
559
562
566
572
580
581
576
572
567
573
575
570
561
562
575
571
562
562
565
569
564
560
563
568
567
567
566
567
562
560
563
563
563
563
563
561
553
542
540
543
545
548
547
537
529
533
532
521
521
515
509
510
505
494
491
489
491
489
487
484
476
476
473
461
448
442
451
468
468
466
471
472
455
447
449
443
444
438
431
428
424
426
426
428
425
421
416
414
422
435
427
407
398
401
408
411
414
406
406
410
410
406
401
413
423
423
423
421
414
412
412
402
399
410
415
415
411
404
403
408
416
419
418
416
413
415
419
417
412
410
417
423
418
411
416
417
421
426
435
441
440
427
421
427
438
446
442
438
438
438
450
455
447
446
444
444
445
449
448
435
430
442
446
449
447
455
458
450
442
437
447
451
454
461
457
452
464
477
475
471
473
473
471
462
452
442
437
446
447
446
444
452
459
460
465
468
471
471
472
471
470
471
470
464
457
454
456
460
465
463
461
465
471
476
474
472
475
477
473
466
470
476
479
475
469
474
481
475
469
471
471
474
475
480
481
480
478
474
471
471
472
475
476
469
461
458
463
466
472
483
484
478
470
463
462
473
484
485
483
476
477
482
490
494
486
484
481
472
458
453
461
471
474
470
465
465
469
473
470
465
468
473
475
474
471
473
486
499
494
475
471
470
466
471
481
485
480
474
472
477
480
478
473
475
477
472
466
465
475
480
482
484
478
466
462
469
471
471
473
474
468
465
473
468
455
454
466
472
479
480
467
457
465
476
482
490
492
482
476
477
479
477
474
473
478
482
479
476
477
477
471
471
476
482
490
489
483
492
492
481
471
474
482
483
481
475
476
478
477
483
483
478
477
472
469
471
467
464
471
482
480
473
473
485
490
489
485
478
469
467
476
483
486
485
487
484
482
479
473
475
477
480
483
495
503
504
499
486
478
475
472
471
480
494
493
487
487
489
488
494
497
489
481
485
491
489
489
489
486
488
485
489
493
495
503
509
512
514
519
521
516
524
529
520
515
509
503
512
522
523
518
510
511
505
510
516
515
514
515
515
511
506
502
500
504
507
503
503
511
509
499
491
492
491
486
497
497
486
473
466
467
472
476
471
470
476
478
472
464
465
471
473
472
471
470
464
462
467
470
471
469
469
472
469
469
470
471
468
469
475
479
480
484
480
468
466
471
470
463
456
454
453
460
463
461
464
471
472
471
478
481
473
460
450
448
453
460
465
464
463
467
472
477
479
469
449
440
437
441
467
499
518
514
506
506
505
514
526
542
568
594
623
655
681
714
744
766
783
808
823
818
808
807
814
822
827
825
804
774
746
705
674
649
634
624
605
580
551
524
505
487
448
401
373
369
374
380
386
392
403
414
427
436
432
424
423
426
434
448
462
469
476
483
487
490
485
475
474
473
471
465
463
463
461
458
451
449
450
449
460
455
450
458
465
462
453
453
457
456
446
434
447
457
464
465
456
454
457
461
470
477
467
460
464
468
471
463
457
448
442
445
455
461
459
459
469
473
468
463
466
468
470
468
471
475
482
485
482
475
472
475
485
489
489
487
486
480
477
483
488
487
484
477
483
489
487
488
496
506
501
492
493
498
498
498
504
511
506
492
489
503
516
515
512
512
518
518
503
492
498
507
501
496
501
519
525
521
516
515
508
512
518
526
539
542
530
532
543
546
536
532
534
530
526
534
539
543
546
550
545
543
543
547
561
565
562
565
565
556
557
559
560
561
567
574
577
572
572
579
579
569
567
572
578
584
587
584
587
592
576
569
570
572
576
579
579
577
566
559
562
565
560
557
560
566
563
565
567
559
554
552
549
546
548
549
544
542
540
537
531
524
523
521
512
509
518
521
519
511
495
486
491
493
496
497
479
461
454
454
457
463
467
471
472
470
465
456
444
434
433
428
432
432
420
415
422
430
432
423
414
406
404
410
417
426
424
419
417
415
412
404
400
400
407
414
412
406
404
410
412
418
423
418
419
419
411
406
404
400
404
413
418
412
398
390
390
400
415
421
419
413
407
407
418
423
415
412
411
417
425
431
432
427
423
425
429
436
435
432
432
428
432
440
437
426
413
408
410
417
426
439
455
463
459
454
446
438
436
438
451
465
462
451
439
435
432
431
439
450
457
456
455
458
461
452
444
442
445
450
464
473
477
480
469
461
461
463
458
457
457
456
459
459
452
453
456
455
457
463
469
470
467
458
459
462
465
467
473
476
473
471
472
474
473
459
455
460
471
480
478
467
455
453
460
466
472
467
466
469
471
475
470
459
465
481
483
475
475
484
491
491
486
474
465
463
453
451
465
484
490
486
482
482
486
477
466
466
470
473
476
471
467
466
467
465
472
476
476
470
469
473
472
472
477
478
474
479
484
489
495
493
497
494
479
477
478
477
472
461
463
458
459
467
471
467
462
461
463
464
470
480
474
474
473
471
471
468
460
467
473
470
465
466
466
472
480
476
473
474
483
488
477
473
467
467
467
464
465
473
466
452
447
460
474
483
481
477
473
478
483
481
476
476
472
471
467
471
472
479
487
486
482
477
479
478
468
469
468
469
476
487
491
485
470
473
486
485
480
477
482
479
474
482
492
494
485
476
478
480
475
472
464
461
472
474
474
475
472
473
476
480
490
497
492
480
475
477
477
481
486
487
476
473
478
484
483
482
486
489
489
492
495
493
488
489
489
485
483
481
476
482
486
484
484
490
499
500
499
499
504
509
504
503
515
525
525
517
507
502
503
506
507
505
505
508
514
518
521
523
523
522
522
522
522
522
516
516
512
510
507
501
504
517
515
498
485
485
481
477
479
473
467
467
467
460
449
453
464
466
470
471
471
474
474
469
464
465
469
467
464
466
469
475
479
476
474
476
484
482
475
472
468
467
468
467
470
469
466
466
467
472
473
474
469
466
465
464
462
462
460
458
466
465
459
462
466
463
467
482
488
485
481
471
465
460
454
450
445
453
461
463
461
463
468
474
474
480
488
498
512
525
551
585
621
654
675
697
734
773
798
815
825
824
822
816
817
818
822
830
821
806
787
754
717
677
655
639
631
627
613
593
566
534
502
466
433
414
404
399
402
402
409
420
426
434
436
437
444
455
456
456
464
476
484
484
479
468
458
454
447
445
445
449
454
450
447
450
454
458
453
450
455
462
461
456
446
445
460
465
460
452
450
446
447
447
449
450
456
460
459
444
430
441
452
453
453
448
447
451
451
453
457
457
465
469
461
446
439
447
466
474
469
467
464
459
457
461
466
466
464
464
460
457
460
465
471
478
485
487
493
487
488
490
486
483
483
482
485
484
473
478
490
496
495
491
486
482
483
485
490
491
487
488
491
497
500
504
509
512
509
505
503
507
510
506
508
510
509
511
508
504
503
511
520
530
529
520
511
508
514
523
530
528
526
526
530
540
543
531
527
530
536
544
547
550
548
548
552
553
549
553
556
555
555
553
558
567
564
552
547
556
561
565
566
566
570
579
580
582
581
579
579
579
574
571
564
554
548
548
556
565
567
565
571
575
570
569
567
561
555
557
565
568
567
569
565
545
530
534
537
538
533
529
533
529
524
517
515
511
508
509
507
502
490
480
478
480
482
479
476
478
475
465
472
483
485
480
465
449
451
455
447
435
424
413
408
409
419
423
424
427
431
433
433
428
427
429
436
433
428
418
414
413
413
408
396
396
402
415
422
418
415
410
400
390
394
408
413
413
415
416
416
417
413
405
403
412
419
423
430
431
427
423
417
421
430
429
424
419
413
424
432
427
423
424
425
427
427
429
436
450
456
448
438
438
440
437
434
432
437
444
445
439
435
438
429
428
438
448
448
445
441
439
445
449
456
460
457
450
450
459
464
463
458
453
451
447
451
458
458
455
454
456
461
457
456
452
457
469
468
463
463
464
462
455
459
465
469
476
474
475
474
469
470
464
458
448
454
460
459
458
463
471
476
478
478
477
472
471
474
474
472
467
464
459
455
460
460
477
491
493
489
481
470
469
467
466
466
475
480
477
478
478
472
473
469
467
473
476
479
480
482
487
490
479
462
455
459
474
484
489
485
464
464
471
470
468
471
472
466
470
475
471
466
464
467
472
476
487
496
494
488
485
485
472
467
471
480
486
482
471
469
471
469
471
473
471
471
477
480
472
463
457
458
461
456
461
477
480
482
477
469
467
470
474
473
470
469
472
473
472
469
465
471
476
477
481
481
483
485
482
477
472
471
471
467
463
465
469
474
475
478
482
481
480
487
492
490
481
473
467
462
460
469
479
483
480
480
485
480
473
471
462
464
472
475
474
473
473
473
475
477
480
482
482
482
476
475
475
473
473
474
477
474
473
477
479
479
472
472
478
478
473
465
466
472
477
478
478
479
484
488
490
491
490
498
501
497
493
493
490
493
498
501
502
501
493
484
485
493
495
492
497
505
503
496
507
515
513
507
501
497
499
502
497
499
510
519
509
501
494
497
507
512
519
523
522
523
519
513
512
514
516
519
523
522
521
517
510
509
506
504
497
490
485
481
483
493
499
498
483
469
464
469
472
474
470
468
465
456
456
468
479
478
466
459
454
456
467
472
481
477
465
457
460
466
469
472
474
481
483
479
479
477
476
476
474
471
472
471
466
460
456
463
467
469
472
472
476
474
471
468
462
455
453
466
483
491
485
472
468
462
449
446
449
455
461
460
461
467
463
456
468
478
477
478
484
491
503
526
554
589
616
641
668
700
725
758
788
808
817
814
810
803
795
802
827
843
837
816
795
767
736
701
672
653
635
618
612
602
575
536
506
482
454
433
408
396
397
405
412
416
423
444
453
451
449
447
458
469
468
464
466
467
465
463
465
460
460
463
465
465
463
453
446
444
450
448
445
445
444
439
439
444
450
454
454
451
452
458
460
459
452
448
449
445
447
448
445
436
434
435
438
448
458
463
465
467
467
461
455
453
453
452
454
452
456
460
460
460
462
463
470
470
466
465
467
469
466
463
460
474
486
486
482
478
474
468
470
473
486
483
478
475
483
488
486
484
483
486
489
493
498
488
476
471
474
482
494
507
509
503
495
493
498
500
497
496
498
499
498
502
505
499
496
499
506
514
524
529
526
516
510
513
514
515
524
529
527
530
536
543
545
544
545
544
539
535
537
536
536
532
531
541
547
545
545
548
555
558
561
563
564
560
556
559
562
567
568
570
574
578
584
582
567
560
557
559
569
570
569
573
572
567
563
559
549
550
559
559
558
561
562
561
556
551
545
547
548
547
543
544
544
537
542
547
545
545
542
538
537
538
539
537
535
530
516
505
501
499
501
509
510
505
505
496
483
479
482
485
479
475
474
466
457
456
459
450
450
450
447
446
440
429
422
424
427
427
420
425
431
431
427
425
425
427
426
422
422
418
411
408
408
414
417
414
408
408
413
413
413
404
402
406
409
415
416
415
417
412
410
413
417
420
417
413
415
419
428
429
430
435
433
426
425
430
431
430
426
421
421
422
419
404
404
409
416
434
440
444
443
439
436
432
427
425
431
437
442
449
450
442
442
441
442
450
456
471
464
449
442
444
449
456
454
457
457
450
447
446
447
449
455
456
449
449
461
466
463
462
459
462
458
455
453
450
450
454
463
467
464
462
463
464
462
457
455
451
463
476
481
476
468
469
475
472
464
461
466
473
486
488
474
468
472
475
475
468
467
465
468
464
465
464
459
458
459
462
473
479
481
478
472
466
475
484
491
499
500
488
472
464
459
466
473
485
493
486
474
474
477
472
464
463
465
469
467
468
470
480
482
479
480
477
472
477
488
490
480
471
466
469
472
478
481
478
474
468
464
467
474
483
485
484
484
483
486
491
490
491
487
482
471
460
453
458
466
473
479
475
470
473
478
476
474
473
475
467
461
463
472
480
484
484
481
479
479
473
474
470
464
464
467
471
474
479
481
478
475
477
482
487
484
482
472
466
469
468
460
463
466
473
489
494
494
495
494
481
478
481
476
476
476
474
477
477
479
473
469
462
464
474
486
485
470
470
474
483
498
492
480
483
490
486
485
488
485
483
481
481
480
479
487
490
487
484
487
483
476
474
478
478
474
471
471
468
471
479
482
482
481
479
479
480
488
489
485
480
481
482
480
481
477
471
469
479
485
486
488
493
491
489
493
490
487
491
495
496
500
498
489
489
488
486
477
473
482
504
509
506
495
491
498
499
498
490
494
500
504
508
520
519
514
513
511
517
521
520
519
518
515
517
520
515
514
520
525
522
514
509
503
507
513
519
519
511
501
494
494
509
518
513
505
503
498
486
479
471
459
448
456
464
472
476
470
463
460
459
463
470
471
471
473
474
471
472
468
466
479
491
478
460
458
462
459
467
477
476
473
471
475
471
469
466
466
470
476
472
466
464
458
452
456
465
464
467
472
477
470
464
461
467
472
469
467
468
468
474
474
467
457
450
453
457
458
454
456
459
467
477
487
495
497
495
504
524
550
580
610
637
663
689
717
756
782
813
832
840
834
824
825
830
836
835
832
823
800
760
713
683
665
651
635
615
591
574
546
516
489
451
424
406
396
395
398
407
411
412
425
435
439
445
446
450
458
466
467
459
452
460
465
463
465
463
460
462
466
474
470
463
467
466
461
457
451
444
442
440
439
440
443
447
452
452
449
450
448
448
457
448
440
441
443
445
456
465
456
446
441
439
442
448
442
439
445
451
454
454
458
461
462
460
459
461
457
451
449
461
470
463
450
453
464
477
468
465
469
471
469
466
472
480
487
486
482
479
471
474
483
483
479
472
482
491
496
500
500
497
496
494
490
488
481
476
477
480
491
501
507
509
508
505
501
501
509
511
507
503
498
503
513
514
514
519
515
512
513
521
520
516
516
513
513
512
516
518
521
528
538
544
546
543
547
555
559
554
544
533
540
553
553
548
546
544
541
540
540
547
562
569
561
557
553
552
560
565
561
562
567
570
568
574
576
571
567
573
579
579
579
580
578
572
573
574
572
569
564
559
554
551
554
557
550
544
542
547
557
562
559
558
549
539
538
530
527
524
522
527
530
525
512
506
505
503
501
501
495
491
494
484
476
480
473
471
470
468
460
463
469
466
463
465
463
457
453
451
450
449
448
442
440
436
428
419
417
412
414
414
406
406
410
414
414
422
426
420
416
416
421
427
427
422
419
417
413
406
403
404
408
413
414
412
410
416
416
417
417
417
426
433
425
406
404
408
415
420
422
420
420
419
417
426
429
427
427
426
424
418
417
422
420
421
427
425
420
417
422
431
437
434
431
429
433
447
457
455
452
443
439
442
444
444
441
435
439
442
440
438
445
458
457
452
447
446
449
453
460
460
460
459
457
454
448
452
451
448
457
462
459
463
467
473
467
458
452
454
464
468
471
467
464
463
468
475
474
464
464
472
482
484
480
475
472
470
471
468
454
453
466
475
478
474
463
464
474
487
489
483
473
474
473
470
473
476
474
472
464
458
465
471
477
478
477
473
467
462
456
458
469
478
474
471
475
485
485
478
474
476
469
466
465
464
467
469
469
464
465
473
476
465
466
471
471
465
469
479
487
484
479
475
471
473
472
474
475
477
482
484
478
475
473
472
476
477
475
468
463
463
468
476
474
473
474
476
478
486
491
474
458
458
468
479
471
466
473
471
476
484
490
492
488
475
463
460
469
477
484
489
488
481
468
461
462
465
469
473
469
464
461
465
470
467
465
471
477
481
482
473
474
476
475
476
480
483
489
488
482
472
466
472
479
484
486
482
478
477
486
485
481
484
485
481
483
483
484
485
484
479
472
469
473
475
473
467
462
463
476
484
482
470
464
467
472
475
474
471
475
480
489
488
479
474
490
493
491
489
487
488
481
474
478
479
476
473
473
480
481
474
462
459
464
470
474
479
482
476
472
474
477
485
496
500
498
495
489
483
482
488
487
490
500
495
490
486
475
476
480
480
482
487
496
506
508
501
495
491
495
496
497
492
487
474
474
485
489
495
496
496
502
500
499
498
498
502
504
507
508
505
506
509
513
515
518
518
502
491
507
522
524
521
519
517
520
525
534
529
516
506
505
507
506
510
510
508
506
501
504
506
503
495
494
494
493
489
483
476
471
476
476
477
476
476
471
465
462
463
468
474
476
475
479
483
487
490
496
487
475
469
468
467
464
464
468
473
480
484
476
464
463
467
465
462
460
462
465
471
474
474
474
479
478
474
469
472
472
471
476
481
482
479
471
465
458
460
460
452
453
460
458
458
466
468
466
461
452
446
445
452
460
474
485
483
477
476
499
531
559
578
604
635
663
691
723
756
785
813
837
849
847
832
819
814
819
826
824
809
788
756
718
680
661
655
641
630
621
594
557
520
481
447
421
403
399
397
396
405
422
425
421
418
419
424
436
447
452
452
462
469
477
476
471
467
470
473
474
465
451
445
454
466
469
457
447
439
443
448
450
450
451
448
446
448
445
441
446
453
456
459
451
444
440
434
442
450
450
442
442
447
458
461
457
449
444
445
453
455
455
459
456
460
465
457
452
453
453
458
466
470
471
475
489
496
488
473
476
484
489
495
494
489
482
470
461
456
459
467
471
475
477
480
480
480
483
485
485
489
485
486
493
502
507
495
486
485
478
486
500
514
516
515
509
503
504
506
506
502
502
497
495
501
510
515
516
510
507
513
515
512
511
518
523
522
527
534
536
533
528
526
527
531
535
532
521
513
518
534
542
537
544
550
557
561
559
563
566
556
548
553
557
559
565
573
572
565
568
573
571
563
566
575
579
572
562
565
575
583
578
560
551
558
571
578
570
567
574
575
576
569
555
549
548
559
565
555
546
548
550
540
536
540
552
558
540
525
520
512
517
526
532
529
527
527
524
507
492
495
505
513
506
502
500
496
489
482
474
468
470
472
467
462
461
457
452
446
446
446
444
445
444
447
453
445
432
427
427
419
411
411
423
430
438
435
427
417
413
409
403
407
412
412
411
415
425
429
432
427
426
424
409
406
409
417
416
405
397
399
407
414
419
412
407
410
411
402
402
407
414
427
432
434
434
431
429
430
436
438
426
426
429
429
436
443
435
428
424
424
430
433
439
445
446
441
432
433
441
449
450
448
448
448
450
443
432
429
436
442
448
454
461
461
449
439
440
446
452
456
454
450
449
455
457
460
459
451
450
455
456
459
463
464
462
462
464
464
458
464
469
470
464
460
465
467
464
462
462
466
468
470
476
483
480
474
471
470
469
468
466
462
463
464
463
466
467
469
471
466
467
467
470
476
479
476
474
469
474
484
486
478
474
473
468
476
480
477
462
466
478
483
472
466
470
464
459
466
472
471
469
471
480
483
482
479
472
469
478
484
483
480
476
469
462
461
464
463
463
473
486
491
491
492
499
499
488
482
480
486
489
480
476
475
476
471
462
460
460
464
470
468
470
476
482
481
476
476
473
468
464
468
476
483
485
480
469
460
464
475
476
477
482
478
469
470
476
479
476
477
477
471
464
459
465
473
465
462
465
471
470
473
477
488
488
480
481
483
469
470
471
468
466
471
479
481
481
482
484
482
480
477
471
467
471
467
461
467
475
473
467
473
481
492
498
497
491
483
478
475
472
468
467
472
468
465
464
477
495
500
487
482
479
477
483
486
484
484
486
491
489
483
489
496
492
482
477
471
472
478
479
478
476
475
476
468
462
461
461
465
471
472
463
463
468
470
473
480
491
491
478
477
478
478
492
495
488
482
478
475
474
472
475
477
480
485
488
487
487
487
485
479
473
476
482
490
493
484
472
473
479
484
487
486
490
495
499
503
498
482
481
494
496
493
494
490
488
490
492
493
495
495
490
491
488
489
499
509
515
517
514
508
504
503
506
498
498
504
512
514
510
508
507
510
506
503
506
512
521
520
523
529
530
529
524
524
524
519
515
508
502
501
503
506
505
501
502
495
486
482
489
493
490
490
486
475
473
469
465
461
461
464
466
459
455
457
458
466
476
478
470
464
468
475
481
480
477
479
472
478
493
504
500
471
451
456
461
458
462
467
469
476
478
478
472
464
454
455
455
451
453
463
466
462
461
464
469
472
476
476
473
473
467
459
460
466
468
465
462
463
465
468
463
457
461
472
478
478
480
490
504
526
548
572
590
623
666
694
718
746
775
792
810
823
827
819
826
836
838
838
838
822
801
772
735
701
669
649
634
620
605
584
559
532
505
470
433
413
394
384
396
409
418
425
430
429
430
433
435
440
448
457
464
481
495
489
476
467
466
466
467
467
463
460
466
466
462
463
463
465
467
456
448
445
437
438
440
438
438
435
426
425
431
438
440
444
453
460
455
460
464
455
452
460
469
468
464
471
473
457
446
448
450
450
452
459
465
467
470
474
476
468
467
467
464
463
457
455
452
460
469
472
475
480
485
480
473
469
468
476
481
480
486
488
480
480
481
480
487
494
496
499
497
490
491
489
491
496
499
499
492
489
491
495
503
500
491
485
493
496
499
506
510
514
517
512
505
506
520
527
528
524
519
517
515
518
517
511
509
517
526
531
533
536
528
524
523
537
547
546
546
549
546
538
531
535
539
543
549
561
561
566
569
566
563
562
561
558
553
555
561
569
572
571
573
577
586
588
586
585
579
573
576
581
578
572
567
566
564
560
556
557
571
574
560
553
553
558
563
562
558
555
551
553
555
548
544
540
540
534
533
535
529
519
518
515
508
511
519
523
519
515
513
509
493
481
483
487
489
483
483
476
467
461
453
455
454
452
456
454
444
443
450
447
442
444
447
445
437
433
435
435
431
429
425
418
411
402
408
416
429
444
442
424
414
410
403
399
406
417
419
412
409
413
407
401
401
404
410
419
420
414
413
418
420
417
416
417
411
407
410
413
415
422
430
437
448
448
435
420
419
424
425
431
430
418
419
429
430
429
425
417
415
421
429
432
441
448
450
449
447
439
433
429
429
434
435
442
448
453
454
449
447
447
439
429
426
435
439
440
444
448
453
457
456
463
462
458
456
461
457
450
458
459
454
457
458
468
475
473
469
470
463
467
470
465
460
466
468
474
474
473
474
472
466
465
463
458
461
467
468
471
473
474
475
467
467
468
468
470
471
465
461
466
472
476
473
467
467
469
477
484
481
475
474
473
466
474
488
490
477
468
472
476
472
467
467
475
484
487
483
476
476
473
472
475
474
471
470
467
466
470
474
476
467
463
468
470
476
479
476
476
480
484
486
495
495
489
491
489
492
495
498
485
468
457
458
460
464
471
476
475
471
471
465
466
471
471
470
466
466
467
466
461
456
453
457
466
467
471
474
471
474
480
479
480
473
469
479
489
481
473
473
475
477
474
466
465
471
478
481
485
484
484
487
495
497
490
478
466
462
469
476
475
474
473
474
482
485
476
473
477
479
479
477
473
464
459
465
472
473
474
474
475
475
477
473
472
477
488
492
484
477
476
483
491
488
486
490
490
477
469
470
472
485
494
488
482
478
473
470
485
499
502
491
481
474
472
470
470
465
465
474
475
476
469
462
466
478
484
480
476
480
484
479
485
489
484
480
481
489
493
496
500
503
496
483
465
456
457
470
476
477
480
482
481
481
479
472
470
472
480
487
485
486
488
488
481
475
477
480
481
487
488
479
477
474
475
481
487
486
484
493
492
493
498
500
499
496
493
491
483
479
483
486
490
498
502
505
506
500
496
496
496
498
493
499
513
520
526
520
513
508
513
515
519
519
517
514
513
517
520
524
522
523
526
525
511
507
515
514
512
502
499
499
499
498
500
505
508
501
499
509
508
498
487
482
484
485
485
484
478
478
482
480
475
472
472
475
474
470
461
456
455
456
461
466
473
475
472
468
464
459
462
467
470
472
479
477
474
475
474
477
485
482
475
475
478
478
475
473
475
480
484
486
486
482
475
470
468
462
461
461
463
467
468
472
473
474
470
469
470
465
456
460
462
455
448
438
443
455
460
471
480
488
493
502
505
517
525
539
569
608
643
672
702
731
759
790
817
826
824
818
805
800
804
818
829
825
809
783
757
722
687
658
647
631
611
592
571
546
517
492
456
424
402
389
390
395
399
413
427
433
440
439
431
435
444
448
455
464
473
480
480
479
476
471
472
469
458
452
456
457
454
451
448
450
452
452
447
449
453
456
448
435
433
439
450
452
453
452
447
440
434
435
447
461
470
477
472
464
452
448
448
450
454
459
456
451
439
437
444
457
464
469
471
465
458
461
465
459
459
463
467
471
469
469
469
469
472
478
477
476
481
484
483
481
483
486
484
479
473
474
482
488
494
493
488
493
485
475
478
492
500
499
494
503
514
510
503
497
490
482
478
479
482
489
494
498
502
508
511
511
512
512
511
514
518
518
521
523
524
524
518
511
503
507
521
535
532
529
524
527
540
542
542
543
541
546
539
536
542
543
544
542
541
544
550
554
557
558
556
562
562
563
563
562
564
564
566
571
563
546
550
564
577
583
583
583
581
576
571
572
572
572
574
572
571
563
552
554
566
569
565
563
558
552
558
568
573
570
561
559
545
528
525
532
530
526
525
519
520
517
512
513
513
514
515
517
514
510
510
507
501
493
489
488
485
479
473
469
465
454
444
443
449
453
453
452
449
443
437
431
432
441
445
446
444
434
427
422
420
422
422
416
414
414
413
410
411
414
419
420
420
415
409
409
410
410
404
406
414
418
417
414
412
403
394
404
416
419
427
434
429
420
416
411
404
407
416
421
427
426
429
425
424
420
420
425
422
423
425
426
430
434
430
421
417
415
416
419
421
426
440
440
439
438
440
443
445
447
443
435
432
442
453
452
442
432
434
438
438
439
445
455
459
485
494
469
439
429
430
439
445
441
441
441
441
438
438
444
453
484
540
508
466
444
446
456
458
480
498
479
468
465
464
465
470
487
489
469
454
449
455
466
467
473
451
443
443
459
477
479
475
476
474
469
466
461
466
477
480
481
484
489
495
491
485
492
492
477
466
460
457
465
471
467
467
474
481
483
485
490
497
486
471
476
485
467
460
460
464
468
470
458
456
463
469
470
464
458
461
473
479
478
474
474
476
475
476
478
480
476
475
476
479
481
477
466
456
454
462
477
474
474
469
465
462
466
473
470
474
480
477
472
472
470
472
478
481
476
476
479
479
474
464
463
465
460
468
470
477
475
465
468
477
480
483
490
489
478
481
486
484
475
465
460
462
464
472
477
470
459
463
471
470
465
459
463
467
475
478
469
465
460
468
493
493
467
469
474
473
473
471
467
464
467
472
475
483
488
479
465
467
469
476
482
502
494
478
480
488
485
474
464
455
460
466
470
475
477
480
482
477
475
475
478
482
472
470
481
492
497
491
475
466
478
497
493
478
466
468
484
476
467
463
470
477
473
465
454
456
472
480
477
472
471
472
476
480
480
468
461
467
471
473
472
467
468
472
478
485
487
484
483
482
486
489
490
487
478
474
466
467
473
477
481
483
487
492
492
489
492
487
481
485
486
482
480
479
479
482
487
487
481
472
471
477
484
493
493
493
493
497
497
483
479
485
488
482
480
489
502
504
493
486
487
493
499
491
486
491
495
491
487
485
488
502
509
507
513
514
519
511
496
495
507
515
522
515
496
497
504
505
508
512
520
526
523
513
519
523
523
520
516
507
503
501
501
500
503
502
507
511
516
515
511
508
504
504
504
499
490
475
473
480
483
481
484
484
484
474
471
469
467
470
476
476
470
465
463
458
451
449
458
472
481
484
477
472
471
469
471
475
474
471
476
477
469
464
465
475
487
490
495
493
473
457
451
455
456
461
471
475
474
470
465
467
469
472
476
481
483
483
489
485
473
465
464
464
466
465
461
458
453
450
456
470
477
482
486
490
499
525
543
560
594
628
657
687
716
751
783
803
821
828
819
815
810
806
807
811
816
807
790
766
736
701
666
644
636
623
611
596
562
533
509
477
438
407
392
377
371
385
403
416
427
433
438
445
447
449
453
455
463
474
475
474
476
475
473
470
465
464
463
459
455
458
459
455
450
446
452
462
464
464
458
449
451
451
449
447
440
430
424
432
444
443
442
444
449
440
437
449
457
456
460
458
456
458
463
464
462
460
456
454
457
458
452
454
465
470
470
467
470
471
463
453
449
455
466
471
479
484
477
467
465
466
468
470
486
500
501
503
510
498
473
457
464
465
464
461
460
476
484
489
487
485
496
502
508
509
501
496
492
493
493
495
494
494
497
503
509
510
511
509
506
503
510
516
515
510
510
518
527
533
532
527
517
516
525
535
534
523
521
527
523
519
534
543
543
543
534
523
522
531
535
536
543
554
561
554
551
549
547
547
549
555
566
571
571
573
578
577
569
560
567
572
574
576
569
563
557
559
566
566
564
566
573
571
569
572
578
574
563
556
552
554
566
572
567
554
540
537
539
539
543
546
547
550
551
553
542
531
535
547
549
549
546
536
518
510
515
520
521
518
508
493
486
485
482
482
490
489
471
451
457
460
461
464
462
452
446
441
437
440
443
445
449
451
444
432
429
433
430
426
423
422
427
419
411
409
407
399
398
400
407
411
404
391
391
398
404
410
416
413
415
413
410
408
396
396
402
404
410
416
419
413
409
414
423
431
428
416
415
419
423
421
415
404
404
419
423
413
405
404
414
422
430
431
426
431
435
434
423
429
436
429
419
422
430
430
430
434
441
444
445
440
437
436
435
433
435
442
449
452
447
441
441
444
444
449
459
459
451
442
441
459
468
458
452
453
447
440
449
461
458
447
444
447
453
462
465
458
450
457
463
465
465
471
469
472
484
486
466
446
444
457
472
475
473
474
472
473
477
480
475
466
464
466
474
466
462
472
487
500
495
463
452
463
470
467
461
462
462
460
453
450
454
473
483
482
476
480
482
486
487
487
482
476
469
472
472
471
467
468
467
466
463
463
462
462
472
474
469
471
475
479
483
471
463
463
467
469
464
457
453
463
470
466
460
466
472
475
479
478
475
475
469
472
476
468
468
475
481
487
485
482
482
481
466
456
460
468
472
475
469
466
477
485
481
470
461
455
448
447
460
468
471
474
475
477
488
496
497
487
471
468
470
474
480
478
470
468
469
463
451
454
473
484
480
477
479
484
486
487
485
477
474
470
473
477
475
466
464
472
474
470
459
453
464
478
476
472
477
479
478
474
478
493
508
500
485
479
475
472
467
466
471
475
472
475
478
476
476
476
464
460
474
486
487
488
488
483
479
470
467
468
469
476
482
482
480
479
474
471
471
471
462
469
475
474
479
482
481
481
481
486
496
503
503
493
482
475
470
471
474
468
469
476
485
483
481
481
477
479
479
477
474
477
479
486
490
483
480
480
482
481
479
481
489
489
477
466
467
479
498
498
486
482
480
480
484
498
504
505
502
506
510
501
492
490
499
502
496
488
492
498
505
506
490
479
481
494
507
513
514
500
492
495
494
492
507
519
522
525
520
518
521
523
527
526
521
524
524
523
518
510
512
510
506
510
513
511
510
515
511
513
513
512
513
518
516
511
502
491
488
483
478
475
473
471
473
472
464
452
440
436
439
441
454
466
474
477
478
477
473
469
463
461
463
472
476
473
478
479
469
469
469
464
460
463
464
475
483
478
477
482
486
483
471
464
461
459
455
455
460
462
466
464
466
467
475
483
483
474
470
475
475
464
454
450
452
451
451
461
468
473
473
471
464
474
492
500
508
527
546
548
557
576
605
632
658
681
702
732
767
798
821
831
827
821
814
815
819
820
812
801
776
739
695
662
640
617
597
586
572
559
542
509
466
423
379
349
349
358
372
389
406
418
425
439
451
456
457
452
432
424
435
450
455
456
462
467
467
465
471
476
474
466
456
454
461
465
466
470
466
462
462
463
461
464
468
465
452
445
446
455
455
451
453
456
457
455
452
453
453
460
456
452
450
456
456
457
456
453
458
464
467
464
469
464
457
463
467
463
469
477
486
484
478
468
464
467
472
474
479
481
486
482
481
486
488
482
473
470
475
475
476
477
485
492
492
490
498
500
494
494
495
498
497
491
484
478
476
479
492
501
505
509
514
505
498
497
503
507
507
503
506
513
515
511
512
513
515
509
509
517
520
526
527
522
518
523
529
532
527
535
542
535
538
547
547
540
527
522
533
552
558
561
564
562
560
569
570
570
572
570
572
572
574
573
569
570
576
579
576
570
567
565
569
575
573
566
566
568
569
566
575
579
569
559
563
565
568
570
568
572
574
574
570
564
558
564
565
567
567
562
554
557
556
551
550
550
543
533
536
532
525
522
519
523
524
524
521
512
504
496
496
486
478
473
469
462
462
474
489
489
486
477
467
459
447
444
449
454
457
456
452
444
437
430
417
415
419
419
419
423
419
419
419
424
417
418
421
418
412
407
400
394
396
398
404
410
415
421
427
421
417
414
405
397
392
400
405
406
409
412
410
409
405
405
410
414
417
410
410
414
417
422
426
426
428
429
427
421
420
425
432
430
420
409
412
419
418
423
438
439
431
426
419
421
428
430
432
439
443
435
431
432
433
428
423
424
432
445
448
444
443
446
448
444
442
444
444
447
447
443
446
449
449
444
447
444
441
448
451
453
451
449
454
466
472
470
467
462
460
466
467
471
471
467
460
455
458
457
459
469
468
466
465
463
463
463
463
469
471
475
469
460
462
468
468
472
474
476
470
473
478
479
482
486
485
476
467
464
464
466
473
475
473
469
465
461
461
462
459
463
464
467
475
476
474
472
478
482
477
465
464
480
490
489
489
485
477
469
470
472
473
476
481
486
481
473
473
474
477
474
466
466
472
474
471
472
472
469
468
462
463
467
472
470
464
470
478
480
478
473
475
480
480
477
469
469
472
468
471
470
469
473
474
480
483
478
477
483
479
473
471
465
461
466
470
470
468
469
468
462
463
466
472
480
484
487
483
479
481
486
485
473
463
457
454
453
462
468
471
473
478
478
473
474
481
485
483
476
469
470
471
477
485
480
475
473
473
472
470
468
476
478
478
477
471
477
479
469
469
478
483
479
469
465
461
464
474
480
482
483
486
486
486
484
477
482
490
489
479
464
462
465
469
471
478
478
475
476
478
479
480
482
475
470
471
475
483
483
481
483
479
474
472
475
481
495
499
486
469
461
462
467
473
478
476
473
482
498
495
488
492
489
483
478
476
475
477
471
461
462
467
471
475
483
481
477
490
496
495
496
493
491
488
484
483
484
489
500
499
495
492
493
491
489
491
490
487
487
483
482
485
497
498
497
500
507
504
501
505
513
518
512
510
507
501
499
512
519
520
518
519
519
521
516
505
503
498
497
497
505
516
514
515
525
529
529
525
520
510
499
495
494
496
493
491
496
491
488
491
493
496
492
488
483
479
474
468
471
476
467
459
462
469
461
447
452
462
470
472
476
473
470
473
469
460
455
455
463
468
473
479
476
476
474
470
467
474
484
486
486
484
480
478
479
468
460
463
464
463
460
460
463
463
464
464
461
462
466
471
478
477
472
466
460
460
456
456
453
459
459
456
461
468
472
478
482
489
507
528
554
583
624
654
672
701
736
764
789
807
821
824
823
822
815
793
805
830
829
802
776
755
724
694
664
648
632
611
596
578
550
524
506
484
458
433
413
402
395
398
404
416
424
428
434
438
442
446
453
458
463
466
476
485
477
469
464
457
446
444
452
465
464
463
453
448
446
439
432
432
434
437
439
446
451
448
446
445
449
458
459
458
455
457
461
462
456
441
429
431
441
448
449
451
448
448
453
449
448
446
447
454
463
455
457
460
464
476
482
481
474
457
444
444
461
473
472
468
466
470
477
478
476
481
483
485
481
480
481
482
483
482
486
488
489
491
493
488
487
496
498
497
501
494
486
486
486
491
493
490
479
482
493
509
513
507
501
496
500
502
496
493
490
491
494
499
505
509
517
524
529
526
519
514
517
514
513
516
523
524
520
524
534
532
526
522
528
539
550
556
546
535
537
538
536
539
546
551
553
552
555
558
560
559
556
563
573
576
566
563
564
563
559
556
564
578
586
575
568
571
579
579
572
574
580
577
563
550
547
554
564
569
570
567
567
563
563
566
570
568
565
555
556
553
550
547
549
546
534
537
543
544
541
534
521
516
513
510
517
520
514
504
492
490
493
493
488
480
475
476
477
478
475
473
471
464
452
450
450
441
426
421
424
425
422
427
433
435
430
431
432
428
429
428
422
414
415
413
410
416
418
421
422
419
417
412
407
405
402
403
410
416
415
415
418
418
416
413
411
404
396
398
416
431
422
409
411
415
415
417
415
412
413
421
430
432
423
426
435
432
436
434
431
426
427
432
438
438
442
447
444
442
435
422
415
420
419
419
419
424
429
435
442
446
447
442
439
435
431
430
429
433
444
450
446
444
451
457
452
453
454
456
457
461
462
462
457
457
463
459
450
447
448
452
460
460
459
460
463
463
468
473
473
467
460
460
465
469
476
478
468
462
468
475
477
477
473
471
464
466
464
457
454
459
465
469
471
468
464
458
458
471
484
488
482
472
463
454
453
461
465
465
472
478
477
468
461
466
474
473
469
470
482
483
474
469
466
464
475
479
475
469
467
468
467
473
478
483
478
475
480
483
483
478
470
467
463
464
465
466
465
468
470
470
476
475
482
484
476
474
475
474
472
468
468
472
478
483
483
482
483
481
474
461
459
463
476
479
477
480
482
476
476
476
473
472
474
473
463
461
470
478
472
469
475
482
483
480
475
477
492
496
491
485
481
468
466
465
460
454
460
470
477
482
483
475
473
472
471
471
468
467
469
472
480
480
474
471
470
467
471
477
480
478
475
476
475
471
481
492
494
490
486
480
473
467
468
472
469
474
483
487
482
478
479
485
488
489
485
484
480
483
481
473
474
476
475
477
475
473
477
482
491
494
494
489
483
479
477
473
467
473
488
490
482
487
497
503
493
480
481
481
469
456
461
470
469
468
476
483
481
473
471
470
469
466
473
486
497
495
488
492
496
492
486
477
466
468
481
491
485
480
476
472
473
481
485
485
489
489
488
484
491
500
497
492
494
500
505
505
494
493
496
498
497
500
499
499
492
493
500
504
510
512
512
509
510
502
495
495
501
503
503
500
501
505
511
519
522
517
506
507
515
514
516
523
522
517
507
501
500
499
509
519
519
512
507
509
517
519
525
526
518
503
497
502
500
486
472
484
498
497
488
482
477
469
461
457
457
452
449
451
458
468
473
475
469
461
473
489
493
480
472
476
476
472
472
478
484
486
480
473
470
475
481
485
485
484
478
469
467
468
470
471
473
468
471
475
479
479
482
485
491
486
480
468
449
445
454
471
476
475
466
460
451
451
461
457
451
454
463
473
478
483
479
476
486
491
498
505
528
563
604
636
667
692
727
762
793
814
831
835
831
822
813
815
823
829
833
828
802
766
732
692
668
649
635
623
613
603
582
546
521
492
454
421
403
398
396
399
407
420
436
452
449
444
437
439
447
455
463
467
472
482
491
489
478
469
462
453
459
472
473
469
454
444
448
450
445
443
444
441
436
436
443
443
441
441
445
442
438
435
437
441
447
451
453
455
458
454
450
452
452
454
457
458
464
468
468
471
470
475
468
451
450
451
450
446
447
451
454
462
467
473
467
460
464
473
477
480
476
475
480
484
483
483
487
493
483
471
467
459
454
461
473
484
490
491
484
477
477
486
492
492
490
486
485
486
484
490
498
502
502
496
488
484
488
491
493
497
502
505
500
499
501
504
512
519
513
514
521
526
532
523
514
509
511
518
519
511
512
516
527
530
534
542
546
546
555
559
557
551
545
546
546
554
565
563
564
563
554
547
547
545
552
559
561
564
567
576
576
564
569
573
572
568
562
561
562
567
568
568
564
564
566
565
566
570
567
572
593
598
576
561
565
564
559
553
553
550
545
542
541
545
544
548
552
550
557
559
550
541
531
525
520
515
510
508
509
509
502
504
500
496
496
494
490
489
493
484
475
468
470
470
469
467
466
465
459
455
449
447
446
445
437
433
429
423
420
421
419
419
419
420
422
425
432
437
430
414
408
414
424
414
401
396
398
401
403
402
407
416
424
422
421
411
406
412
426
426
427
424
420
418
413
410
411
415
411
409
412
419
422
425
423
424
425
422
419
422
430
430
433
429
425
420
424
434
434
430
431
431
431
434
445
443
434
431
434
435
442
448
447
446
449
447
448
447
435
432
439
447
458
462
459
451
449
447
443
441
435
434
436
447
457
456
457
449
451
453
453
453
460
462
468
474
479
482
478
471
472
475
467
465
467
468
466
467
465
457
460
464
459
455
460
466
461
458
462
470
470
471
478
484
487
488
486
485
483
469
466
471
477
473
470
482
492
488
476
468
470
472
469
476
490
493
489
481
470
464
466
474
476
478
477
483
484
478
474
472
474
475
473
471
465
460
453
443
442
449
464
475
480
483
484
484
484
487
500
505
497
490
487
480
468
472
473
465
470
478
474
470
472
480
487
487
486
484
486
477
477
481
471
467
473
472
472
476
477
475
471
474
478
476
468
466
472
475
473
475
478
479
482
480
478
486
492
484
472
467
469
468
474
474
480
482
482
478
476
479
480
478
481
486
481
468
472
479
475
472
473
474
482
486
478
479
484
485
483
481
484
483
474
461
462
472
478
480
487
490
489
480
472
471
474
473
467
470
482
483
482
479
476
476
477
481
484
490
487
477
472
474
477
475
477
482
485
487
492
494
489
484
484
488
492
494
495
491
490
490
484
475
470
474
487
482
479
474
479
482
475
471
471
477
482
489
493
493
492
488
475
466
471
476
476
476
479
482
480
480
484
489
475
479
489
493
496
491
483
475
477
482
486
485
483
487
487
483
493
501
501
493
485
484
477
483
497
493
482
478
480
483
485
486
479
473
473
478
475
478
491
501
503
499
495
493
488
494
498
499
499
502
510
505
501
501
509
516
514
504
501
504
510
513
515
519
522
518
514
506
499
507
510
512
514
515
519
517
510
504
506
513
518
518
517
508
505
509
509
515
519
518
513
512
509
503
506
515
527
521
507
507
509
502
496
489
491
493
483
475
470
466
470
469
468
472
475
468
464
466
459
453
465
478
482
478
480
477
474
476
476
474
472
469
472
474
467
470
481
489
488
480
472
463
456
459
472
485
495
487
478
476
480
481
481
479
476
470
467
466
468
471
472
474
477
484
486
479
471
467
467
471
472
473
472
470
469
469
469
467
470
472
476
479
481
491
507
527
555
579
599
625
661
694
724
756
782
805
827
826
821
818
822
827
827
836
838
816
792
770
731
692
669
656
643
627
606
586
564
545
526
495
451
420
401
392
389
395
409
413
416
427
441
448
447
450
451
449
450
461
469
469
470
470
465
455
450
447
448
445
445
452
463
472
469
461
459
461
465
466
462
460
464
468
469
460
459
459
451
450
454
454
450
447
441
444
450
453
448
448
453
460
457
459
467
472
468
454
436
444
444
444
454
456
454
458
456
453
461
470
477
470
468
472
467
469
475
475
476
483
482
480
474
473
477
481
477
476
475
478
474
472
474
479
479
476
477
481
480
475
469
473
482
504
510
502
499
503
506
497
495
505
513
514
509
509
515
520
515
514
518
517
508
506
512
520
528
531
531
519
516
518
516
512
516
521
517
517
523
526
534
539
531
528
531
538
531
528
535
545
556
553
545
536
550
560
562
557
561
570
573
571
563
565
566
559
562
569
569
570
570
574
578
576
576
573
567
566
567
560
548
553
568
574
575
575
583
587
583
575
569
559
552
550
554
553
559
564
571
574
564
557
553
553
550
544
541
540
541
543
540
534
530
523
514
510
506
505
507
508
508
505
492
484
482
483
488
487
477
471
469
464
467
465
460
460
465
465
462
453
445
444
436
433
430
423
423
431
432
430
425
425
426
432
426
413
410
415
411
416
416
415
415
411
410
410
408
405
403
401
397
400
410
420
419
415
405
400
410
417
415
417
414
412
404
400
402
405
411
421
427
425
422
419
420
426
429
430
430
428
425
420
426
435
434
421
411
416
427
435
446
442
440
439
439
436
436
435
431
438
448
455
454
448
444
449
449
443
439
440
446
452
454
450
448
447
448
453
450
451
457
461
464
461
458
455
454
449
444
444
451
456
454
455
458
461
469
478
477
474
471
468
457
453
454
459
465
462
459
467
472
469
466
469
469
472
478
479
476
475
479
474
468
462
461
465
473
476
482
480
480
481
483
482
480
476
473
470
467
466
464
464
470
482
491
490
483
471
463
465
472
476
476
476
473
467
464
469
469
468
474
477
472
470
470
475
482
483
478
481
483
482
486
488
477
468
466
459
462
474
479
482
480
476
473
471
469
471
475
479
478
475
471
469
465
469
482
483
476
474
469
467
464
469
478
487
493
486
483
485
475
467
466
464
460
460
467
472
469
468
475
480
476
476
481
483
482
489
498
495
487
488
488
474
464
457
462
470
473
482
489
486
480
483
487
484
477
472
467
468
476
471
470
468
471
478
494
493
480
472
477
474
475
481
485
490
487
482
478
480
484
489
485
471
459
461
469
470
469
469
474
474
476
481
482
482
487
490
487
477
473
470
467
466
474
474
473
474
476
478
482
491
490
480
474
473
477
483
479
473
477
487
493
491
489
483
479
478
481
485
482
480
480
479
482
482
477
473
475
480
481
475
478
481
485
488
484
470
467
466
470
479
489
496
498
489
483
475
465
464
472
480
486
487
484
490
491
485
476
471
470
474
473
478
484
485
486
487
481
477
481
487
491
485
483
483
483
490
494
493
500
508
510
507
502
497
492
489
487
485
487
488
488
491
486
483
487
492
497
493
491
497
509
508
505
513
522
525
523
531
530
516
512
515
519
517
511
509
514
513
511
507
510
511
511
514
517
518
515
506
503
512
518
517
513
517
520
522
518
514
517
513
501
498
499
495
492
487
480
467
466
467
464
463
464
470
469
468
466
467
473
475
472
464
467
471
474
470
468
474
482
481
475
467
462
462
469
475
472
472
475
480
485
482
473
467
469
477
472
471
474
473
472
470
474
478
482
480
475
481
483
477
467
462
458
461
466
473
470
459
457
462
460
457
457
464
467
468
466
463
459
466
482
497
506
509
512
525
548
579
610
640
661
692
721
750
779
801
819
824
822
813
812
818
829
839
836
817
798
767
728
691
664
648
636
618
603
592
576
550
520
480
442
418
404
392
383
389
400
411
418
423
434
441
451
457
457
450
456
466
481
485
478
475
478
475
467
469
467
461
456
454
451
450
451
448
453
461
460
455
456
456
450
445
440
433
427
432
443
448
448
451
456
450
444
443
449
461
466
464
455
459
460
453
455
468
474
462
444
436
436
447
458
468
468
455
446
451
461
467
468
465
460
463
469
469
468
470
470
475
481
482
483
485
486
483
482
489
495
490
491
501
501
485
474
466
465
472
473
476
478
486
494
495
489
486
491
504
513
513
507
503
499
501
500
497
496
502
506
511
510
508
505
502
501
503
511
512
515
515
509
507
508
511
525
534
533
530
529
523
517
514
518
533
542
542
544
545
547
544
537
541
545
545
547
549
552
565
574
578
574
568
565
564
572
578
580
581
584
589
585
582
579
576
573
569
570
573
569
575
580
576
572
573
583
589
586
583
591
592
590
581
564
543
540
545
551
558
555
549
549
550
550
540
531
529
528
529
532
535
540
545
536
519
513
509
505
502
505
511
513
506
494
486
483
482
480
475
471
474
468
462
461
465
463
462
462
451
437
433
440
449
448
448
447
437
424
417
425
437
435
433
427
420
412
409
411
412
404
404
412
407
403
404
407
407
404
404
403
405
416
422
424
422
424
425
416
405
400
411
419
413
413
418
421
415
413
422
422
415
410
415
417
415
418
421
416
409
410
418
428
431
430
436
442
437
433
434
437
437
439
434
424
426
427
432
432
431
428
430
434
433
429
431
436
441
447
447
444
442
440
438
440
440
442
449
454
453
451
455
455
447
442
445
452
452
445
449
453
457
465
475
478
476
474
467
462
457
453
458
462
464
457
451
457
465
467
470
470
463
457
468
480
479
472
471
464
460
465
466
461
456
454
460
473
478
481
476
469
470
476
478
472
481
494
493
491
489
484
478
470
465
460
461
470
478
477
477
474
470
472
475
478
486
491
485
475
471
464
456
459
465
473
484
488
490
490
480
478
477
481
483
477
474
474
468
472
474
470
467
463
464
458
461
471
481
479
484
486
487
479
477
482
481
474
469
464
468
467
467
470
465
458
461
471
477
477
469
462
463
472
481
480
482
481
476
471
467
467
477
478
472
465
475
482
485
485
481
483
484
473
469
474
478
477
476
474
479
476
464
462
465
471
470
474
473
470
476
479
475
474
477
472
471
470
474
480
477
477
490
492
485
488
492
486
469
465
474
477
477
478
484
483
477
474
478
483
475
471
471
472
482
475
472
480
485
482
487
493
492
487
483
485
488
485
477
466
467
471
474
468
468
470
474
482
485
480
476
477
476
474
478
484
488
495
493
490
483
476
481
488
491
485
480
480
479
479
479
482
482
479
476
474
475
490
499
499
501
495
482
472
472
476
483
485
481
484
487
483
481
470
467
473
481
491
492
488
485
484
480
480
484
485
483
491
485
470
469
478
479
482
485
487
487
492
492
501
509
515
517
506
493
493
499
504
509
504
503
501
494
485
494
500
497
498
497
496
495
495
500
500
503
505
501
502
506
503
504
504
504
504
510
515
519
523
520
517
519
522
520
521
522
524
522
518
518
517
514
507
502
503
504
512
513
501
490
492
497
500
500
503
499
487
471
467
480
481
479
473
465
462
461
457
461
464
469
470
470
475
479
474
465
465
478
494
499
480
471
463
464
463
463
459
451
450
458
465
469
472
471
461
455
464
473
480
488
489
477
461
464
472
478
482
478
472
471
472
467
465
472
483
480
470
465
473
476
474
476
474
471
476
473
470
475
474
469
470
484
494
494
489
496
516
538
563
587
604
627
650
683
721
747
772
798
821
838
845
835
830
826
826
822
817
811
782
745
709
679
656
635
614
595
571
541
523
499
470
432
391
359
350
356
362
378
399
419
427
424
421
435
446
447
447
443
444
455
453
455
463
465
464
468
480
487
484
480
477
471
459
453
451
452
457
462
465
455
449
448
451
458
464
464
458
457
461
466
460
451
450
465
476
469
457
456
456
450
451
455
455
456
461
459
457
464
466
458
457
462
471
473
478
476
473
476
478
470
467
466
471
481
488
485
480
472
467
472
478
477
472
466
470
474
473
479
486
492
490
494
496
496
484
470
476
495
501
503
507
512
511
510
504
498
494
492
489
487
486
489
495
500
498
501
502
511
519
520
518
518
523
532
532
525
521
520
520
521
520
519
523
524
528
531
530
536
539
539
534
541
554
565
566
558
556
550
536
530
536
547
557
564
564
561
565
572
574
572
566
568
570
576
584
584
579
585
593
592
579
572
572
568
575
580
573
568
570
579
579
574
579
584
580
576
573
571
568
568
564
564
566
565
566
566
569
571
568
566
565
561
553
546
541
535
534
542
545
542
534
521
516
521
524
522
512
507
503
497
500
500
495
495
494
490
487
477
466
461
461
457
454
449
447
447
445
435
427
428
428
420
421
430
435
436
434
427
414
406
409
411
414
412
414
413
414
415
412
403
401
405
413
416
410
406
407
410
408
401
394
399
408
419
419
417
410
408
403
407
408
408
410
411
413
413
416
418
415
408
410
408
420
425
421
422
424
415
407
416
425
424
420
424
427
433
439
447
447
441
439
436
425
413
410
419
432
440
440
443
439
437
437
437
439
443
448
452
451
448
444
437
429
430
437
443
453
457
460
460
457
448
446
449
454
452
454
456
453
455
458
461
462
458
457
457
456
450
447
457
470
481
487
482
469
469
472
465
453
451
449
455
461
464
466
471
472
469
476
479
471
465
469
471
474
475
474
468
463
471
471
470
471
474
476
474
468
467
467
468
471
477
481
488
488
481
470
463
468
473
473
475
475
473
472
469
474
480
483
478
477
477
483
489
492
487
483
473
459
457
462
470
477
482
479
477
477
478
479
482
486
487
489
488
481
479
476
472
464
448
449
466
477
476
469
470
478
473
467
466
469
472
475
469
462
470
475
476
475
475
481
478
473
478
479
476
475
475
465
463
468
469
471
470
472
478
485
484
476
470
468
475
477
474
474
474
472
471
472
473
474
471
471
474
475
473
467
467
464
467
472
470
469
470
474
474
477
481
480
474
472
472
471
468
473
477
481
484
484
481
476
478
483
480
472
468
469
471
482
490
487
480
478
470
470
472
475
480
485
483
490
489
482
478
474
472
475
470
472
473
475
481
487
483
481
489
490
491
494
485
483
484
478
472
472
472
476
483
486
483
481
477
478
479
471
465
469
481
489
489
488
482
475
465
461
461
465
470
470
473
481
482
483
483
485
481
480
486
490
490
485
476
469
472
477
477
479
483
483
489
491
490
487
482
483
487
494
496
487
479
478
478
477
483
483
484
484
478
470
482
491
488
489
492
495
490
487
488
497
509
506
496
489
485
484
492
500
487
472
481
491
499
508
512
510
498
492
495
498
505
509
507
508
512
510
506
506
504
498
502
510
522
527
523
519
515
511
512
515
513
509
511
513
520
524
530
533
529
512
500
499
502
511
512
504
491
483
487
490
486
478
482
481
481
474
462
467
473
474
463
460
467
476
477
476
477
474
474
477
479
475
474
476
478
475
473
472
468
474
482
479
467
464
460
455
453
459
474
474
474
473
480
487
482
469
461
467
474
476
477
478
474
470
464
464
467
475
478
472
473
473
484
488
485
478
470
466
461
465
453
440
436
446
458
461
464
476
485
486
491
496
506
524
552
579
605
629
657
683
712
741
768
789
811
820
819
815
813
819
825
829
827
813
791
763
733
705
679
663
657
647
632
613
582
554
534
506
468
436
413
397
392
397
408
420
427
429
434
436
443
444
448
448
448
450
455
464
472
479
479
477
479
476
469
463
460
460
451
448
448
453
456
457
447
440
436
445
446
448
448
437
437
438
447
459
465
464
466
469
467
461
456
454
456
452
447
445
445
447
452
450
455
464
469
462
454
452
461
472
471
466
459
452
458
461
459
454
455
459
455
452
452
451
454
459
467
474
480
482
483
486
480
480
479
477
482
490
491
487
488
491
495
488
480
483
481
478
487
494
497
490
485
490
498
500
499
499
501
507
504
500
503
508
511
510
513
513
510
512
519
518
515
509
510
513
517
519
523
527
529
532
530
523
522
524
520
522
531
535
538
534
528
524
527
538
547
553
557
563
570
557
539
554
562
560
557
552
550
555
556
554
559
569
575
581
578
568
562
566
577
581
572
571
578
582
583
583
586
586
590
588
576
557
554
562
563
556
559
571
573
567
565
567
568
561
558
558
556
558
561
554
544
536
539
544
538
538
540
538
533
529
527
517
510
509
506
496
487
487
483
481
480
479
477
480
477
473
466
466
457
448
446
453
450
450
448
444
444
440
437
443
433
421
416
412
414
417
419
421
428
434
430
422
421
418
409
399
395
396
396
401
410
415
414
421
432
438
438
437
429
417
408
403
399
398
408
415
419
420
419
416
406
403
409
420
422
425
424
423
426
428
427
424
424
419
418
425
430
437
440
445
446
447
442
436
440
444
441
437
438
436
430
426
432
435
438
440
448
454
451
448
449
446
445
448
454
457
459
460
452
449
447
443
433
435
448
455
458
456
446
442
447
457
462
456
448
451
458
462
466
464
460
458
457
460
459
458
457
461
464
462
469
473
475
476
474
475
471
467
472
475
477
476
474
473
466
460
457
467
479
479
473
469
466
462
457
466
478
481
482
480
476
474
472
472
473
469
468
471
478
484
488
493
487
477
468
468
467
469
473
469
455
447
455
481
490
481
475
475
478
475
472
471
473
479
485
483
479
474
472
472
476
481
480
478
475
474
472
472
476
477
477
479
483
483
486
482
471
466
472
473
472
476
475
475
477
479
477
483
492
498
502
495
489
487
491
495
488
474
459
460
469
467
466
471
473
473
472
477
480
487
486
480
479
484
488
492
492
489
480
476
473
479
481
479
475
473
474
479
478
476
479
476
477
472
478
484
481
476
467
462
466
470
473
478
481
481
483
491
496
494
488
485
487
485
478
473
473
478
479
476
477
477
473
476
479
475
474
478
485
489
481
477
471
469
477
478
482
484
482
475
479
486
484
486
491
492
489
487
487
479
477
479
479
479
481
484
487
494
487
479
481
484
487
479
471
478
485
486
488
490
489
484
478
472
472
474
473
466
466
472
474
486
492
489
480
474
484
496
498
487
488
497
493
486
486
488
486
483
478
473
477
482
475
476
481
484
487
483
485
486
484
479
476
475
475
477
476
483
488
494
489
484
483
485
491
496
496
492
477
468
466
472
485
489
487
482
480
480
478
482
485
485
480
477
480
475
471
472
479
492
492
485
486
495
501
502
504
506
501
498
494
489
484
495
501
501
503
502
496
492
496
498
493
495
500
499
500
503
503
499
503
513
512
517
520
512
513
517
515
503
496
508
521
521
520
512
510
518
521
518
508
505
504
501
508
519
523
512
506
502
506
508
494
493
501
504
508
516
516
509
506
502
494
485
483
485
482
488
492
487
481
480
479
472
470
470
471
472
472
470
470
471
468
468
475
477
471
472
474
471
478
478
474
468
464
460
465
466
472
475
485
489
490
486
475
470
471
468
478
485
481
482
483
482
475
471
463
459
465
473
472
466
461
460
453
456
461
463
465
470
471
460
451
460
467
470
464
453
451
456
456
462
471
488
496
492
496
508
532
574
606
638
665
691
725
754
778
803
819
819
810
798
795
806
820
828
836
828
810
785
754
713
677
657
653
651
643
626
592
559
535
506
467
437
419
407
406
417
430
433
433
434
433
438
442
452
456
466
473
476
477
474
463
454
449
451
460
457
449
449
454
455
450
446
448
449
448
447
449
446
444
446
450
448
439
418
419
440
452
461
460
448
441
450
451
442
439
443
438
442
446
450
454
452
440
440
453
458
452
442
451
464
467
463
463
467
472
469
468
468
471
473
472
462
464
461
458
453
449
457
475
482
491
503
502
488
477
477
480
485
490
490
486
478
472
472
476
477
485
489
487
481
478
483
491
498
501
496
493
493
494
494
496
499
497
495
495
495
491
505
523
523
518
511
510
511
510
512
511
508
511
517
526
526
520
520
523
526
526
528
531
531
532
533
539
537
535
530
529
537
543
544
550
552
551
551
553
559
565
575
566
554
554
561
565
567
563
558
560
558
555
562
566
567
571
574
576
582
587
589
586
581
582
582
583
581
579
583
581
580
577
573
562
550
541
544
553
565
571
572
571
572
562
552
548
543
545
543
539
537
532
519
517
519
518
521
516
514
515
507
511
515
505
485
478
479
473
469
461
467
481
480
478
476
478
480
472
460
451
448
454
455
457
455
444
430
422
424
424
429
436
437
426
412
415
428
428
428
422
417
413
410
408
404
400
403
404
404
405
410
403
406
415
416
415
411
408
408
414
420
420
414
411
417
425
423
422
421
417
412
417
422
423
428
431
423
415
408
394
394
404
418
430
435
423
421
431
426
414
409
418
424
430
443
453
462
465
457
442
435
436
446
453
448
441
440
443
444
442
437
438
447
450
453
456
452
448
450
456
460
464
466
464
448
448
467
469
466
462
454
462
470
463
470
464
450
446
454
454
461
471
484
489
475
466
468
464
464
467
468
472
474
470
464
467
466
460
463
469
469
469
474
472
467
469
475
478
479
470
465
465
463
477
480
488
489
485
479
470
462
463
472
466
458
461
466
469
461
456
463
473
475
475
484
488
489
490
487
487
489
482
476
478
472
468
469
481
486
488
479
466
460
