430
419
427
423
420
436
443
432
424
418
408
411
432
445
446
452
483
500
498
440
382
364
398
424
444
453
437
427
426
447
475
488
489
458
423
416
441
465
471
465
436
425
451
462
452
432
436
455
460
464
462
456
456
472
474
467
459
448
442
459
477
482
483
481
473
463
442
450
467
477
483
471
457
447
439
429
444
454
460
491
484
456
460
481
467
456
476
485
482
492
501
496
477
451
441
451
455
466
483
491
494
474
462
475
486
485
480
475
471
463
458
458
472
492
511
509
503
509
498
479
493
495
479
465
469
468
470
480
470
467
457
441
453
480
495
495
492
478
484
498
512
513
501
481
461
464
487
507
505
494
479
466
485
498
501
496
436
416
441
466
490
486
479
466
455
457
475
486
484
486
506
505
491
486
482
475
477
483
493
503
522
540
538
514
501
492
492
495
494
521
528
499
481
470
478
488
491
525
552
526
511
534
559
553
526
504
507
500
497
506
509
530
543
544
537
528
532
518
510
519
515
507
503
490
498
514
519
526
528
513
492
489
489
480
468
457
446
434
431
450
470
464
464
463
469
467
457
461
465
465
472
475
460
464
464
466
490
480
467
455
472
468
458
469
467
462
459
451
459
474
466
467
471
492
475
442
445
453
450
457
452
429
435
450
443
452
465
474
459
439
446
450
466
487
494
483
476
469
466
468
473
468
460
451
437
449
475
483
461
448
449
457
481
486
456
442
444
435
400
401
429
441
443
439
448
474
496
506
511
525
550
574
600
623
646
672
698
734
780
823
862
901
937
969
989
989
988
988
987
987
987
986
986
986
986
986
986
987
988
990
938
874
821
757
659
543
414
324
278
243
209
217
269
307
331
318
328
358
340
310
300
310
339
381
381
372
367
362
373
394
372
367
363
357
356
362
371
392
410
403
394
382
384
382
358
342
343
361
375
365
354
347
341
365
398
414
415
407
405
406
410
416
423
419
407
422
434
396
357
376
411
419
414
429
439
429
424
418
408
412
424
419
422
429
444
454
451
440
431
430
423
435
430
413
403
415
437
468
489
497
501
482
467
454
423
412
405
401
409
426
425
432
460
493
498
500
480
456
444
451
452
441
447
458
474
507
502
469
459
451
462
463
467
475
498
515
525
523
510
490
475
479
492
506
533
544
533
520
517
516
516
522
522
513
511
514
509
497
496
516
536
556
549
531
525
512
506
492
474
481
492
512
542
547
542
537
537
533
525
523
528
522
508
513
518
514
535
527
507
505
506
489
487
502
509
499
491
510
515
517
516
494
479
502
507
498
479
462
449
436
453
474
458
450
447
444
462
477
460
459
462
468
467
424
418
420
407
415
415
407
401
416
427
442
441
424
413
413
392
377
398
400
392
398
404
390
392
418
446
448
447
448
436
433
421
395
390
397
392
405
421
431
433
412
391
383
383
365
375
407
428
429
425
416
414
421
424
419
430
423
429
443
449
443
435
416
402
416
437
445
436
429
439
449
443
443
454
471
488
446
416
417
426
438
420
421
436
457
478
453
413
409
444
474
478
470
456
440
434
443
427
440
467
485
472
460
453
444
447
435
439
467
471
477
493
491
472
464
449
442
440
446
445
456
458
460
470
453
452
457
472
469
455
459
493
536
547
544
523
509
489
475
454
449
464
467
470
470
456
455
465
467
462
440
425
425
450
478
483
469
468
474
489
505
518
490
446
443
447
450
451
439
430
444
461
480
483
484
491
461
430
452
456
472
479
471
471
472
453
438
464
472
453
443
451
461
463
479
509
524
510
505
522
513
503
488
479
469
490
514
513
509
512
522
519
500
487
484
476
484
496
481
470
469
473
487
490
501
510
527
526
507
491
492
493
488
492
495
492
494
505
518
501
484
478
458
430
442
460
482
491
508
500
486
463
453
458
447
429
455
464
464
451
442
460
453
443
466
473
469
442
434
427
422
406
398
415
426
444
471
465
464
449
437
437
427
432
451
454
441
389
375
401
445
469
466
453
426
449
471
460
450
446
457
469
462
429
424
459
437
437
448
447
447
454
443
416
425
489
478
448
452
462
479
456
436
430
441
477
477
464
438
419
434
453
465
463
470
494
468
438
417
403
396
402
419
446
473
498
499
512
513
517
549
585
602
617
638
673
701
729
751
787
839
871
919
961
990
989
989
989
988
988
987
987
988
988
988
988
989
977
881
796
721
637
559
492
492
402
312
243
217
249
236
242
250
273
332
288
252
244
258
289
303
303
311
351
410
388
376
385
365
348
338
324
344
396
418
374
364
367
357
330
331
343
340
399
411
385
367
343
338
327
344
374
378
429
422
380
387
365
357
361
365
384
391
454
437
408
378
347
343
360
368
371
374
452
409
367
368
368
389
392
410
401
406
469
437
423
420
416
437
439
446
463
452
473
431
398
409
420
425
430
426
421
449
443
406
445
463
455
443
453
460
463
457
449
458
472
478
450
411
429
460
469
498
538
563
511
450
429
430
437
462
508
530
501
485
500
523
525
501
482
481
493
518
522
525
531
515
508
511
502
512
534
568
570
556
536
512
499
537
550
550
562
563
553
556
558
557
574
566
560
557
573
576
551
532
537
559
578
562
546
540
549
556
535
500
508
515
520
510
503
510
539
538
547
546
541
543
529
517
530
531
515
493
484
505
510
514
504
464
454
463
492
500
485
475
475
470
454
437
418
415
410
408
426
428
420
425
426
434
430
417
427
432
444
452
448
425
411
400
395
399
396
402
404
403
417
416
426
420
397
405
451
453
433
389
387
395
384
408
434
440
427
421
435
425
396
408
426
388
351
362
376
385
395
400
417
426
412
413
412
436
438
444
427
411
413
414
419
431
431
427
398
392
412
423
421
420
413
409
437
467
457
456
442
437
434
442
469
453
438
425
420
430
434
471
470
467
477
464
496
472
417
442
472
467
436
404
421
467
512
496
477
465
454
460
448
442
437
435
482
468
445
456
485
504
486
487
508
531
566
524
500
492
484
458
450
458
462
493
516
497
492
464
450
454
447
457
473
522
522
460
459
461
458
460
478
489
503
528
522
503
490
473
476
482
481
462
458
519
503
460
444
449
489
548
569
538
522
547
494
461
452
441
478
510
509
500
525
575
515
509
523
529
514
498
496
515
555
593
544
500
479
486
491
486
483
512
568
565
515
497
501
512
504
494
490
486
528
521
503
504
492
481
468
469
481
502
573
579
545
520
489
459
432
413
414
420
464
451
444
463
464
454
435
442
448
449
487
464
469
481
458
451
441
444
450
481
535
468
462
454
428
404
412
430
434
478
525
495
483
437
404
386
404
431
451
499
515
474
457
455
462
434
429
435
435
476
464
429
418
404
407
405
416
410
410
490
489
472
464
463
478
468
462
456
469
545
494
444
423
425
443
431
433
447
444
478
487
433
402
393
417
436
445
440
488
564
528
509
481
500
544
560
563
564
616
655
649
664
687
745
794
830
875
918
971
990
989
989
989
989
989
988
988
988
987
988
989
990
941
887
812
741
673
625
623
543
444
340
249
228
231
245
254
260
335
321
296
319
322
326
345
359
371
386
455
420
392
424
415
391
393
394
404
439
469
412
385
370
378
381
374
366
361
412
452
410
407
412
397
409
428
409
381
432
451
432
424
412
423
393
384
402
380
427
434
414
403
406
409
422
424
414
414
480
475
465
451
407
399
402
416
416
433
496
462
435
432
461
476
465
440
423
420
475
459
453
446
440
439
440
437
445
491
533
497
480
464
464
453
442
457
475
535
537
487
476
463
460
441
454
457
475
555
545
508
493
489
504
494
482
467
489
566
544
497
527
554
559
526
525
509
475
530
507
492
488
503
525
521
522
515
540
599
560
543
553
552
543
532
494
469
541
638
587
555
549
543
549
539
531
527
565
584
529
519
523
515
498
503
534
568
613
610
548
511
500
493
487
504
525
519
575
586
525
502
508
508
496
497
511
505
573
532
491
488
488
476
478
474
470
488
560
524
489
467
451
472
479
458
464
465
466
433
441
430
425
448
445
429
420
458
524
460
431
416
412
420
430
429
393
469
515
461
429
402
395
403
407
391
388
400
453
419
412
409
421
425
419
383
355
415
398
360
343
368
404
419
411
412
394
469
435
394
388
379
389
382
379
375
385
459
402
382
384
382
393
380
386
410
455
500
429
402
378
354
362
382
394
379
403
450
391
382
382
386
380
380
378
377
449
497
459
420
383
402
409
411
412
409
472
467
419
391
376
389
396
397
405
407
493
490
436
394
363
351
352
384
407
414
493
469
460
456
431
421
417
407
394
415
490
461
432
405
394
406
424
428
437
442
468
445
442
428
426
449
462
460
457
481
504
473
459
488
497
444
404
399
412
459
462
454
455
437
449
455
462
470
465
467
464
469
487
494
494
484
451
429
426
458
461
453
446
429
428
419
420
440
443
441
432
458
496
490
466
468
471
481
503
527
505
485
479
466
462
471
488
494
489
492
472
466
469
465
471
483
495
489
482
502
499
484
482
474
474
476
476
471
481
494
487
473
462
471
457
442
441
438
452
446
460
472
482
469
436
431
442
461
468
453
469
468
465
468
476
439
422
430
474
466
472
486
486
458
453
465
467
464
468
475
482
488
467
450
461
465
434
435
486
483
479
478
459
445
462
456
459
503
533
516
503
483
455
446
458
459
456
448
457
447
437
439
434
447
466
461
472
502
519
509
503
484
476
466
444
432
447
456
447
449
446
463
482
501
484
485
493
476
449
454
474
488
531
585
603
611
607
609
626
651
675
731
782
820
878
917
941
977
990
989
989
988
987
987
986
986
986
986
986
986
987
988
989
990
888
805
783
722
628
512
410
345
306
282
284
275
339
381
386
329
318
336
333
342
354
375
438
424
415
408
387
402
405
386
383
412
435
394
375
377
394
398
391
382
374
413
455
432
418
425
428
409
391
374
370
431
449
414
389
360
374
405
425
437
438
465
479
453
442
452
444
392
401
408
402
421
419
414
416
423
443
432
422
429
423
470
455
440
438
435
444
445
435
438
438
482
467
458
461
474
490
491
461
437
452
510
465
445
451
462
465
456
458
471
524
553
493
467
442
421
433
449
447
449
507
536
493
461
478
505
511
493
489
485
515
492
457
467
466
471
481
460
448
459
508
517
512
521
519
527
516
510
513
508
572
536
505
508
535
531
521
537
537
551
606
572
533
504
495
511
509
508
498
534
607
553
529
513
521
540
537
530
532
578
612
590
576
543
536
526
532
548
553
593
579
522
506
489
506
512
513
488
505
569
564
517
496
492
472
439
429
437
439
492
476
458
458
461
488
494
487
487
468
504
452
415
415
426
451
443
413
398
415
477
449
433
431
427
440
425
408
399
408
457
399
383
395
418
421
414
408
413
455
467
418
401
396
427
414
398
405
415
474
485
458
444
419
415
419
418
417
415
457
434
412
412
375
368
409
433
438
431
472
424
394
397
401
420
449
448
455
478
539
502
467
461
439
421
403
421
429
445
493
448
415
417
425
410
416
426
431
466
507
468
431
410
414
438
460
476
496
550
574
504
478
452
434
425
428
430
446
503
510
469
445
445
466
453
4513
422
425
426
449
460
448
442
430
421
406
391
381
380
386
399
404
417
439
446
428
405
408
418
435
449
472
454
412
392
400
393
394
429
487
507
521
525
536
540
556
563
588
616
638
670
709
762
790
822
865
891
918
963
990
989
989
989
988
988
988
988
988
988
990
946
885
810
740
688
624
519
426
349
277
240
229
223
229
241
228
241
262
279
293
301
307
324
333
344
362
397
387
394
386
370
340
313
297
302
319
347
370
371
383
399
414
416
412
399
395
385
365
373
410
396
392
384
363
359
360
387
415
415
405
407
407
408
413
423
430
428
427
412
393
394
401
410
422
433
443
441
416
417
419
417
415
405
400
408
422
428
428
430
442
457
467
469
486
472
434
435
445
446
441
434
425
430
460
482
498
504
476
463
474
477
475
474
475
479
475
471
469
490
498
500
494
489
498
504
511
507
498
496
495
486
477
466
464
469
485
508
516
515
496
491
492
493
497
497
504
527
542
549
543
534
516
504
507
513
514
530
591
622
569
507
494
490
495
518
540
553
552
543
506
492
487
483
483
522
536
529
534
531
527
526
516
510
509
513
530
532
526
521
522
523
506
508
527
540
545
532
504
485
469
470
467
465
470
470
457
449
454
455
466
479
487
498
500
489
466
459
455
445
430
435
447
456
466
479
503
526
513
488
463
445
440
433
401
390
407
440
468
480
484
476
447
413
390
390
408
434
462
467
462
463
436
393
363
364
380
401
409
397
391
389
416
433
434
425
425
424
412
398
408
421
434
445
447
456
496
542
475
371
342
365
395
417
442
471
471
440
416
408
418
427
421
413
419
432
435
420
416
436
455
461
459
443
430
433
429
437
443
449
450
443
429
422
429
454
489
503
485
456
451
434
399
394
409
402
407
454
466
468
488
496
477
471
464
460
449
450
449
462
455
448
465
472
470
453
422
440
465
462
479
498
499
492
488
485
484
473
481
485
495
511
529
501
465
455
477
509
522
514
475
457
486
511
470
464
468
470
473
479
492
499
508
510
509
502
486
495
500
507
517
521
512
502
501
508
510
515
514
511
520
533
531
525
503
475
485
497
502
502
508
508
520
535
537
520
500
492
486
498
510
505
502
495
488
506
503
499
507
508
513
503
504
514
517
515
508
473
442
421
402
399
411
430
460
482
504
501
481
475
477
483
487
452
421
412
432
447
454
447
440
435
435
441
447
457
460
465
467
458
444
453
470
483
493
479
453
437
434
436
446
475
489
472
477
473
463
449
442
439
436
440
448
449
453
447
447
464
463
445
445
454
473
492
503
497
491
486
454
412
422
435
441
444
441
449
467
490
527
561
589
610
554
524
532
560
592
524
533
562
561
573
615
644
694
750
780
811
858
923
975
989
989
989
990
990
990
990
990
959
927
872
818
779
741
704
653
624
588
522
461
399
329
288
272
267
279
289
308
330
340
347
355
366
378
391
390
380
373
373
407
439
444
456
463
444
427
420
421
428
423
416
418
418
412
414
413
419
418
412
408
408
414
429
448
445
433
443
460
460
464
487
467
446
436
434
424
418
414
419
418
418
421
414
413
421
450
459
452
452
465
475
484
493
500
506
499
489
458
449
440
437
437
436
457
479
488
495
501
508
509
505
497
499
508
520
525
516
500
487
488
498
498
484
477
486
500
512
512
511
503
498
494
497
504
513
516
515
518
523
542
559
568
571
550
542
540
525
499
489
504
525
527
534
532
533
533
539
542
549
554
552
551
550
552
559
571
578
577
578
586
589
559
530
535
559
570
579
572
558
581
590
568
573
586
582
573
562
551
552
563
572
578
586
588
582
588
601
614
615
611
594
585
578
568
572
560
526
500
495
500
502
510
515
512
516
524
517
502
492
475
477
488
536
554
546
536
520
526
535
526
515
492
478
471
471
465
463
480
496
519
495
476
468
453
452
462
464
468
470
476
476
459
441
450
469
477
476
460
442
439
452
464
491
513
523
498
457
418
393
393
400
412
437
438
427
443
449
450
450
444
440
418
432
456
456
461
467
455
442
432
436
439
430
418
416
411
404
399
393
398
418
434
459
485
498
503
499
492
480
466
483
511
502
482
474
473
473
477
471
468
470
475
473
479
480
484
484
482
474
466
461
461
465
466
468
468
471
474
475
477
479
482
487
492
494
490
488
488
493
498
508
517
527
530
521
517
513
508
498
478
471
476
476
478
475
470
474
487
492
501
509
503
496
488
483
489
495
506
527
538
532
525
535
554
562
555
541
510
498
499
505
510
517
527
536
541
544
548
524
544
573
573
548
533
524
533
539
528
517
498
486
502
522
525
529
534
533
532
528
515
510
506
500
493
492
494
502
519
534
538
529
519
478
466
467
463
471
476
484
489
499
498
492
493
488
481
476
493
460
443
453
465
483
488
488
485
485
470
457
462
461
460
466
472
477
481
483
490
486
485
482
485
499
514
526
515
487
457
417
408
414
426
435
440
466
483
493
460
436
437
446
443
433
423
439
462
458
470
483
496
501
495
482
466
456
457
462
470
472
467
458
454
453
462
469
474
479
485
494
501
508
519
538
567
594
616
619
631
600
600
641
690
728
755
789
833
868
896
924
937
960
990
990
989
989
988
988
989
989
986
894
843
786
729
678
643
591
545
511
437
333
272
241
228
238
257
282
322
349
357
364
379
392
402
460
474
433
422
423
370
367
397
414
423
440
460
466
463
444
405
387
389
412
425
424
414
425
422
403
419
454
449
461
462
383
395
422
426
433
425
425
435
436
429
441
463
477
446
417
438
479
504
545
609
560
450
489
566
603
609
549
418
403
457
487
403
373
400
419
448
461
478
475
486
472
417
502
471
491
580
587
412
419
470
542
575
513
405
372
424
472
518
566
507
425
441
510
543
555
568
546
500
462
467
470
495
502
467
515
534
471
435
426
413
420
444
468
483
506
541
490
483
509
525
514
483
452
466
482
498
513
543
546
527
527
535
534
535
527
525
524
538
522
497
506
523
521
518
517
520
527
531
538
539
545
565
573
579
548
494
507
525
524
559
576
574
554
514
498
513
524
526
505
517
536
536
560
573
607
615
579
535
516
552
568
497
432
405
396
397
403
415
433
440
435
436
452
471
484
491
473
457
441
444
488
511
523
429
401
406
416
432
450
445
435
447
454
466
494
432
410
396
420
454
475
494
467
446
427
469
520
481
447
460
458
435
416
401
404
430
415
398
403
417
423
431
427
423
440
474
490
481
466
450
443
410
376
370
386
389
389
414
444
465
450
418
437
456
454
440
438
422
385
385
413
420
420
435
445
450
471
486
486
475
464
460
450
442
444
447
455
457
458
462
474
481
458
411
444
494
539
483
441
448
473
520
521
492
521
523
464
434
448
449
449
458
472
478
490
523
524
512
510
512
522
497
464
472
464
464
470
474
501
511
508
502
485
480
495
506
510
506
505
480
468
491
526
564
600
585
514
452
399
399
429
474
488
509
531
561
589
586
594
570
577
549
536
500
484
487
472
481
487
480
476
473
500
536
548
550
543
524
503
510
525
559
573
594
602
548
510
473
464
460
464
471
493
521
527
501
473
437
450
462
448
428
463
482
470
494
503
460
429
441
473
482
483
500
495
454
450
463
458
447
439
446
457
467
463
445
444
450
461
469
482
489
481
470
463
465
466
461
463
470
474
473
469
457
455
472
464
467
476
469
463
464
473
476
477
470
457
462
461
460
465
468
476
472
470
490
524
556
591
569
487
379
381
410
418
418
419
420
425
451
486
500
489
500
507
516
535
539
568
582
605
633
666
715
757
794
839
893
930
959
970
980
990
989
989
989
988
988
987
988
988
988
989
990
978
918
874
847
798
743
627
464
325
248
224
177
151
194
284
321
322
318
333
340
348
360
368
376
396
399
395
396
410
417
405
401
406
392
377
379
375
376
376
381
381
390
378
376
387
410
442
460
443
399
395
407
422
423
418
404
406
400
411
419
415
370
338
359
382
407
423
428
420
421
440
419
390
387
407
419
432
432
423
420
417
421
436
433
428
422
416
431
468
489
501
506
499
488
478
435
410
420
447
474
479
482
478
447
417
431
433
459
479
490
492
463
447
436
428
434
441
449
460
463
460
462
471
475
484
485
496
507
525
543
554
555
548
508
492
473
455
461
461
474
482
479
481
475
480
477
471
469
481
504
523
537
546
543
529
516
507
502
503
493
485
493
510
519
519
520
522
523
525
529
529
531
525
504
514
528
533
543
537
533
530
526
535
547
555
553
543
529
497
483
464
452
451
461
479
488
491
517
529
515
507
505
495
488
483
494
497
496
494
494
494
486
487
486
480
474
474
470
461
464
464
465
465
461
460
425
427
430
437
457
464
458
460
462
475
476
474
473
474
467
451
433
429
428
429
425
418
421
422
426
436
436
438
444
443
436
427
424
423
429
441
440
431
433
437
429
421
422
440
441
434
443
461
459
452
448
450
447
444
448
446
446
447
439
434
435
436
443
450
440
423
414
433
467
473
456
440
445
460
477
482
475
464
479
474
470
473
484
489
489
494
494
485
469
466
465
448
450
462
472
471
463
454
443
443
447
448
449
445
437
443
468
480
504
512
492
483
488
484
482
481
483
488
485
484
490
488
486
478
487
488
484
477
476
487
501
505
503
507
505
497
491
493
505
516
509
511
495
479
476
471
476
473
465
473
479
492
504
515
514
513
512
526
540
544
536
527
520
510
507
510
518
520
522
517
511
510
508
511
515
520
529
533
531
535
533
523
521
528
524
515
523
533
536
530
530
519
514
505
503
499
497
500
502
480
472
468
459
460
460
454
444
447
457
467
468
470
482
482
475
462
454
459
464
463
472
484
485
481
468
459
452
448
448
455
450
435
436
439
445
458
464
466
483
495
496
498
492
486
477
471
460
448
450
454
450
440
442
450
457
458
465
473
474
471
463
462
455
437
430
447
476
495
494
477
464
458
452
444
433
435
439
447
454
465
481
498
517
525
531
533
545
558
581
610
630
647
680
725
777
814
850
896
939
968
990
989
989
989
988
988
987
987
987
987
987
988
989
990
987
912
831
761
707
647
584
488
377
296
261
258
275
301
330
329
330
331
339
344
351
369
392
413
421
427
421
410
392
382
376
378
380
388
396
398
402
402
396
398
404
412
399
377
381
403
411
414
412
401
396
393
390
400
403
402
397
398
408
416
416
426
434
427
429
428
425
424
432
434
434
435
435
429
433
434
434
434
438
450
459
463
459
455
463
467
468
475
481
472
467
469
463
452
454
464
462
447
447
449
451
458
457
467
485
502
506
489
471
467
462
460
465
476
487
490
487
489
496
497
491
464
456
454
465
485
499
506
509
510
508
500
491
490
490
489
491
500
503
506
506
502
502
510
520
532
536
533
531
534
545
547
544
539
528
515
511
515
513
521
511
501
535
542
538
538
528
526
530
523
514
524
539
537
525
524
535
545
539
531
535
548
541
535
545
545
528
525
533
530
525
513
501
499
498
505
513
517
509
496
493
497
500
509
505
497
494
486
477
478
481
473
463
463
473
483
489
492
495
503
495
484
468
451
436
430
450
459
467
470
467
462
459
458
442
421
416
414
420
428
428
435
436
433
435
434
438
440
450
448
448
441
424
421
425
443
454
455
452
447
438
432
436
428
411
443
469
459
449
444
442
438
437
445
464
473
478
467
431
412
419
444
449
445
452
452
454
456
460
457
460
450
446
457
469
470
465
449
439
435
436
436
440
443
460
469
487
487
475
476
482
477
476
476
468
466
463
458
461
466
462
457
459
467
470
470
466
461
455
463
482
482
483
479
482
498
503
507
506
497
485
478
472
466
473
479
483
483
470
465
460
459
463
470
477
472
489
516
524
518
524
533
542
539
537
525
495
468
463
472
494
517
534
542
547
533
489
468
470
471
471
474
476
480
489
503
512
520
524
522
520
517
522
529
529
526
528
519
510
506
513
531
538
539
541
524
505
504
508
498
475
472
483
490
496
502
504
502
513
532
527
512
513
517
509
504
501
508
511
508
487
476
474
468
466
462
463
460
458
462
464
469
480
496
496
490
487
496
485
463
463
458
448
454
459
455
456
458
458
473
482
484
471
463
457
451
459
466
467
466
448
444
447
439
440
443
459
463
463
456
454
464
474
473
468
475
480
474
470
468
467
459
449
448
448
458
467
468
467
459
452
451
458
460
456
452
453
461
460
460
466
478
491
509
529
543
550
561
568
586
611
647
685
724
765
789
820
869
906
922
961
990
989
989
989
988
987
987
987
987
988
988
989
990
950
875
816
757
697
647
586
496
391
307
258
241
251
278
303
321
333
339
344
348
355
362
385
402
413
408
409
405
392
388
393
394
401
400
399
398
398
397
386
380
382
393
401
395
388
391
399
400
405
410
422
434
436
427
413
403
404
410
410
416
415
409
419
432
432
428
433
432
435
431
424
418
419
426
425
416
411
419
431
445
457
458
456
460
464
455
449
443
441
443
450
456
461
461
459
458
454
453
457
459
460
467
473
479
481
487
490
489
488
484
482
477
475
475
491
496
492
492
495
495
492
489
486
482
480
476
480
490
508
521
524
519
503
500
502
511
511
502
514
527
524
525
523
516
518
521
525
522
508
505
514
516
527
535
539
536
534
532
538
533
526
523
526
532
540
537
531
544
563
565
564
555
546
537
536
538
532
532
534
550
553
547
541
539
535
542
539
524
512
504
503
504
507
516
524
530
529
519
512
507
505
502
513
523
515
506
509
513
511
502
495
478
473
478
475
467
461
458
459
463
462
459
457
455
457
461
467
466
470
478
486
482
469
464
445
433
428
421
427
432
428
418
417
422
428
434
431
429
427
415
416
424
440
456
464
465
464
461
453
436
427
423
430
432
421
421
430
444
444
442
433
438
445
445
442
441
441
436
431
428
434
441
448
455
450
454
477
494
496
492
476
462
437
421
421
420
416
426
436
441
448
457
471
479
483
493
494
490
473
474
482
481
472
469
475
466
452
461
472
482
492
489
476
468
483
487
491
487
481
469
444
442
445
449
458
470
469
462
458
461
470
482
494
481
462
443
435
440
452
473
476
489
495
486
476
473
464
467
488
512
512
492
474
453
431
431
438
444
464
498
517
507
493
483
483
496
521
545
544
536
534
523
503
500
511
518
524
536
542
543
550
558
558
560
567
563
543
526
517
510
513
522
531
540
535
526
523
536
545
557
564
556
544
514
482
473
484
497
509
538
551
531
515
520
527
528
534
536
527
515
513
511
501
488
475
464
462
463
467
471
469
470
480
490
497
489
481
474
475
473
472
468
468
482
487
482
479
466
464
466
470
481
497
500
493
485
478
480
473
462
472
479
472
474
479
490
490
482
483
492
491
493
499
505
512
511
502
503
501
492
478
471
468
475
486
487
495
503
505
510
519
519
507
498
472
437
424
423
446
461
454
447
457
479
500
503
509
516
528
539
555
561
566
585
605
631
659
691
727
766
795
826
857
892
925
964
990
989
989
989
988
988
987
987
987
987
988
989
989
990
967
892
828
776
742
679
593
491
390
315
281
278
294
310
325
336
356
371
378
375
371
371
394
421
420
409
402
411
424
424
422
420
418
417
418
424
427
436
429
435
455
454
451
452
435
406
396
403
408
413
414
404
403
404
411
410
415
424
428
430
422
422
421
426
435
436
435
431
426
425
448
481
499
499
495
484
463
444
441
453
455
452
456
457
452
457
467
470
467
475
484
490
495
496
498
499
502
504
506
496
494
497
498
493
487
488
481
475
474
484
491
493
492
495
494
494
494
492
494
502
507
510
505
505
508
515
517
525
529
526
517
516
513
514
496
470
475
491
501
507
506
502
504
514
518
521
532
540
538
542
541
535
529
530
532
540
542
550
562
569
577
565
552
548
552
549
536
515
507
509
511
514
519
525
531
535
538
543
548
554
553
546
550
558
551
543
542
539
540
540
540
539
532
523
515
518
513
505
507
510
507
501
496
491
494
500
512
514
513
505
497
488
482
482
484
487
493
490
480
481
481
485
480
475
470
467
464
459
459
458
463
470
475
473
469
462
458
469
477
480
482
475
460
442
428
420
426
440
448
452
458
448
445
455
460
469
473
464
457
450
440
437
430
434
436
444
452
455
443
442
443
436
441
450
450
443
452
446
438
436
444
454
454
445
443
443
445
444
446
451
449
441
445
450
462
461
451
444
446
451
470
504
515
505
484
467
460
468
487
490
487
486
483
480
474
465
464
467
474
479
487
484
473
465
462
464
471
481
489
494
494
494
496
494
492
493
491
491
494
494
489
484
490
493
483
484
492
494
498
501
500
496
496
501
502
499
488
487
495
499
490
484
478
489
504
517
526
519
499
496
485
485
491
485
492
500
500
501
504
507
508
514
534
542
537
515
511
524
525
522
518
506
514
514
512
515
525
521
512
521
525
524
529
534
537
533
523
522
526
525
521
524
528
526
525
522
522
519
516
508
506
504
503
509
505
509
517
517
508
497
497
487
472
466
468
473
470
465
465
461
462
464
462
449
463
486
491
494
505
508
506
487
472
465
462
452
443
458
464
461
466
471
470
473
464
453
462
465
465
463
463
457
448
451
456
471
474
472
486
488
484
474
451
451
482
482
468
446
437
452
464
456
461
469
479
484
503
509
502
501
488
464
465
469
463
452
443
446
442
439
443
462
476
486
497
506
522
546
562
571
586
603
625
654
675
705
735
772
809
847
890
931
973
990
990
989
989
989
988
988
988
988
989
990
967
904
849
791
744
696
653
600
538
473
389
328
304
300
302
304
321
341
344
346
351
358
356
363
380
388
393
412
435
443
445
439
430
401
376
365
374
393
410
413
414
399
388
392
397
399
404
410
413
415
418
418
411
398
397
404
414
413
411
416
425
430
423
423
411
441
452
454
453
457
457
448
442
441
444
441
453
462
439
436
444
438
446
466
471
481
480
471
461
464
456
453
458
465
467
467
459
449
453
461
477
477
459
471
489
487
481
481
487
485
478
481
493
497
495
510
511
508
501
499
498
507
519
522
512
511
504
500
488
470
468
469
481
491
505
515
504
496
507
520
532
533
528
519
513
514
516
516
520
516
521
525
524
527
531
535
537
537
546
548
553
556
558
564
560
545
537
531
519
519
522
518
522
547
562
560
548
544
541
549
535
528
528
532
543
547
534
527
518
512
516
515
520
527
524
523
513
513
520
527
521
521
521
521
507
490
497
511
507
499
497
492
489
487
489
484
489
492
486
472
460
459
461
460
464
465
460
461
471
493
499
508
509
478
447
440
433
436
446
451
448
447
454
455
438
429
429
435
439
440
443
451
450
451
453
448
444
438
433
436
441
427
403
381
376
383
394
416
429
428
430
430
447
457
474
467
442
434
432
423
433
444
444
449
451
448
438
436
444
457
461
461
460
462
460
465
464
463
461
458
453
441
435
433
441
444
442
447
449
444
447
477
490
490
494
503
501
487
469
466
475
470
468
457
447
453
444
452
468
469
471
469
467
472
485
492
500
500
489
475
480
485
491
497
505
505
502
497
481
487
490
487
485
485
500
498
494
490
482
468
480
493
505
505
508
514
513
504
505
507
496
481
486
509
517
513
510
514
520
523
522
510
501
492
485
497
523
534
523
509
503
504
500
497
495
527
551
555
537
527
535
550
562
559
539
523
512
504
509
515
513
506
507
497
498
505
503
493
502
500
475
467
481
487
488
481
473
467
470
476
488
489
493
481
462
444
441
449
446
459
460
460
462
461
457
456
459
464
465
477
486
480
482
477
466
454
435
430
446
453
459
460
461
464
473
469
467
472
484
490
475
481
474
453
443
434
418
418
429
444
463
463
469
476
480
487
483
467
469
472
475
479
476
453
442
444
433
441
452
461
473
485
494
493
499
506
510
493
496
512
513
528
555
576
590
609
625
609
592
605
650
713
757
782
820
855
854
860
907
938
970
990
990
989
989
989
989
989
990
918
849
801
744
691
662
628
577
524
456
377
327
291
269
277
291
296
310
332
347
357
365
363
357
385
400
399
395
398
413
437
444
445
441
441
452
455
454
449
437
421
438
447
451
448
440
415
403
398
393
396
405
409
407
406
409
418
428
431
432
433
420
418
432
431
435
436
428
416
412
413
444
466
451
451
443
441
447
447
454
446
434
430
457
486
493
497
512
542
521
463
431
441
465
477
482
470
456
461
481
490
508
491
479
465
460
471
476
475
471
473
501
518
509
499
500
506
508
479
482
495
499
501
505
505
504
502
499
503
507
510
518
519
525
524
537
539
529
532
531
522
511
512
519
516
512
509
497
498
509
523
535
540
541
537
532
526
526
520
521
525
532
541
551
554
546
540
560
563
560
564
570
564
555
548
546
541
531
532
523
514
516
524
531
535
542
537
526
525
527
522
516
518
523
530
530
533
539
527
492
471
483
501
516
514
497
495
499
501
502
516
517
493
480
479
482
506
497
457
426
433
447
453
441
435
435
441
445
460
491
499
487
481
476
477
479
482
494
495
498
492
477
446
412
404
406
405
398
385
405
426
434
446
452
448
435
431
421
419
424
427
432
436
447
435
424
421
419
421
432
441
440
441
438
426
421
422
425
436
447
444
454
466
472
489
496
496
475
462
462
452
419
396
393
387
397
422
439
451
441
436
448
463
484
502
509
516
519
506
488
481
478
481
480
485
474
453
439
427
418
431
449
456
457
459
453
454
462
463
458
463
470
473
466
462
457
455
462
465
469
482
484
480
483
484
486
485
483
483
480
477
481
481
477
476
470
476
483
485
489
498
497
487
470
465
474
488
510
522
527
535
537
536
537
538
536
525
524
533
530
537
546
548
542
541
531
529
529
535
569
603
607
589
556
529
506
505
536
546
519
489
465
460
477
480
482
496
497
503
493
471
469
473
464
461
457
447
438
434
441
450
453
452
455
465
454
438
442
454
452
439
429
429
433
438
446
461
465
470
471
476
480
489
491
491
481
464
446
454
455
456
456
449
454
454
455
445
441
436
423
420
422
423
424
419
418
424
426
424
432
442
447
458
462
463
467
457
461
463
461
459
458
456
450
445
452
459
464
476
498
516
509
499
458
404
387
408
427
438
459
474
477
483
486
495
507
523
542
553
569
586
607
628
662
693
728
760
803
828
835
848
880
906
933
977
990
990
989
989
989
990
937
865
798
740
707
699
683
674
645
572
491
390
307
279
271
269
270
274
271
262
273
297
320
347
361
359
371
387
401
399
399
408
408
392
375
374
391
426
457
462
452
443
438
432
428
427
432
432
433
422
401
398
402
409
417
424
428
427
427
419
420
435
438
425
414
416
417
422
434
443
450
465
476
476
479
477
463
440
423
418
415
417
432
437
433
436
439
441
446
449
444
445
448
456
469
472
467
458
459
459
463
467
474
476
483
489
482
481
481
477
465
468
476
483
481
472
464
456
462
476
489
493
506
516
501
470
480
488
480
478
485
492
495
495
494
492
485
479
478
476
478
486
499
520
529
534
543
543
545
539
521
513
505
496
487
498
506
504
506
516
522
526
531
516
522
528
515
510
514
514
510
509
525
537
537
538
533
532
545
551
530
514
513
512
513
529
548
547
541
536
512
491
490
509
511
503
498
493
489
490
496
503
505
508
507
499
488
481
493
499
494
494
483
486
483
481
477
467
462
459
459
458
464
474
476
471
474
466
457
461
446
443
448
448
440
430
448
467
473
467
454
447
440
435
444
452
451
446
437
429
424
428
436
430
433
439
450
469
478
471
481
490
464
451
450
443
430
416
429
428
427
446
471
482
483
468
470
452
429
413
409
415
406
397
385
375
419
454
462
452
439
436
439
431
423
428
442
430
431
439
442
451
435
392
425
476
481
473
471
473
475
478
472
461
457
463
471
466
465
475
489
478
451
454
456
449
461
476
466
460
475
497
494
485
491
498
505
516
524
522
498
475
462
462
464
467
476
487
501
511
494
484
491
501
506
514
511
498
465
462
472
472
483
501
507
505
513
517
517
512
498
476
468
471
479
498
519
519
510
512
511
517
501
496
519
517
516
514
497
470
486
516
506
490
494
505
521
527
530
525
522
533
537
528
522
516
502
489
474
471
490
512
499
512
519
497
522
524
508
500
516
529
512
489
481
485
494
499
498
495
489
475
459
449
444
444
448
451
444
436
436
443
453
461
460
461
482
489
500
509
513
521
524
510
481
468
450
436
434
446
451
443
445
439
438
441
449
449
444
449
454
457
462
456
437
411
428
451
458
463
467
479
474
460
458
462
459
460
461
435
436
458
465
466
462
460
455
451
438
439
420
437
453
455
447
444
487
521
535
526
541
571
587
591
576
577
606
649
685
714
743
785
819
844
877
918
960
990
989
989
989
989
988
988
989
989
989
990
938
865
796
748
709
667
623
571
503
422
330
277
257
261
282
309
324
334
354
362
369
388
376
343
347
401
425
431
429
427
427
410
392
392
410
429
409
397
391
382
382
386
393
400
402
405
418
410
401
403
407
412
407
418
406
379
374
379
390
405
424
430
433
440
453
453
428
402
395
420
411
400
393
400
422
426
413
444
474
469
461
474
458
432
402
384
399
421
432
457
464
455
456
471
474
479
490
505
490
440
422
427
430
438
442
456
465
475
488
500
466
461
468
466
475
475
479
473
462
463
471
495
509
505
491
480
473
463
465
490
495
491
486
490
488
499
531
528
529
534
529
534
547
526
505
479
470
460
455
450
442
470
488
498
509
514
522
535
554
558
523
510
504
495
488
475
482
513
546
563
557
555
532
520
534
540
526
497
494
502
508
518
522
525
539
548
542
520
508
501
510
517
528
532
513
483
485
509
511
495
504
498
499
469
439
459
478
493
508
501
510
529
534
487
456
458
455
450
457
456
452
453
441
434
447
461
460
474
475
455
450
449
455
458
435
449
482
489
494
480
462
456
456
456
450
441
439
448
452
443
424
419
438
444
435
395
387
378
383
400
412
416
422
426
434
435
436
435
437
448
445
428
433
442
454
447
430
437
443
447
449
452
457
472
472
450
457
446
430
420
436
448
453
462
477
490
479
485
509
522
507
478
461
456
432
421
434
461
476
467
467
467
469
472
477
472
450
437
441
457
454
455
464
468
469
468
473
476
479
487
492
491
496
499
502
485
468
458
451
448
460
465
452
447
441
444
470
464
438
395
442
489
489
482
482
500
513
507
506
508
514
519
500
488
498
496
483
491
508
523
537
552
559
546
539
513
476
438
432
428
420
447
483
487
489
505
501
496
487
486
488
496
520
521
516
514
517
524
531
525
517
521
522
524
525
536
534
500
483
480
477
500
522
523
522
516
476
503
538
492
469
507
533
515
489
486
482
479
491
495
485
482
492
494
491
493
514
518
502
456
429
443
440
453
467
467
462
466
458
453
459
463
470
484
487
470
456
444
430
438
465
484
470
457
448
448
449
452
457
455
451
455
458
469
475
469
467
460
453
447
466
474
481
458
456
458
459
455
456
460
463
465
455
455
461
467
464
463
459
454
461
460
462
469
464
447
447
447
442
447
453
469
492
517
538
546
563
577
586
603
626
625
654
711
728
785
851
886
912
938
961
968
976
985
989
989
989
989
989
989
990
985
936
878
797
745
703
666
626
572
525
447
363
329
314
298
292
317
338
329
328
347
370
367
373
395
424
434
439
443
444
425
420
435
428
413
400
433
454
456
432
386
377
388
400
403
410
408
407
395
391
422
408
397
413
420
380
386
400
383
414
434
418
420
422
445
451
455
453
446
448
449
448
450
446
438
429
424
428
438
443
435
427
453
476
458
466
479
485
454
450
465
479
476
468
448
447
442
439
429
422
413
405
443
476
476
465
461
459
464
475
471
466
464
469
495
506
505
506
520
495
468
467
471
480
467
492
515
519
503
491
481
467
451
461
475
462
489
492
488
490
491
492
494
521
547
554
546
529
511
522
554
558
569
576
562
535
504
485
469
499
526
527
525
524
504
486
501
512
518
522
527
527
521
526
541
541
514
499
519
538
540
555
570
531
478
463
475
495
502
512
529
546
545
537
522
513
498
487
494
504
506
512
517
491
471
489
494
480
480
482
494
508
502
476
474
497
511
493
480
478
470
495
524
533
533
534
475
412
349
330
394
421
445
452
438
446
456
457
455
451
451
450
446
450
450
450
446
439
440
444
460
464
461
452
448
451
445
442
436
433
443
450
443
455
449
451
463
459
455
450
433
419
415
405
407
436
424
427
490
489
470
467
456
451
440
462
486
469
476
472
469
474
473
472
477
492
501
522
539
553
521
470
426
416
423
432
437
435
448
462
468
461
455
454
453
450
448
449
458
470
465
476
513
526
525
504
452
422
439
459
482
500
510
500
489
489
478
479
493
496
495
495
494
500
510
509
509
511
500
494
479
495
517
516
504
497
486
486
481
476
504
536
533
530
521
511
503
485
506
514
481
484
480
479
479
482
496
480
500
507
513
528
534
545
555
569
586
585
554
517
504
497
481
464
474
510
541
559
555
541
537
545
553
526
516
535
542
546
538
528
541
543
548
547
554
553
531
524
531
521
511
484
472
473
485
475
476
483
483
479
474
472
475
465
444
464
480
479
471
473
470
470
469
462
474
478
479
486
491
477
473
473
468
466
477
479
479
477
480
489
497
496
484
470
474
471
467
462
456
463
474
497
502
481
474
461
459
473
485
497
494
485
498
523
499
455
472
475
465
465
472
476
479
490
520
555
535
466
474
510
516
471
428
444
485
490
473
469
484
498
503
493
493
540
582
591
602
606
618
631
668
731
774
801
828
861
881
898
924
960
990
989
989
989
989
989
989
989
989
989
944
889
834
785
766
728
675
634
585
499
393
334
294
275
292
310
323
336
348
366
381
387
404
403
405
422
439
444
450
438
432
432
422
425
436
444
443
441
434
419
406
428
429
409
420
431
434
446
442
435
444
448
452
464
460
461
466
461
461
471
484
492
487
489
501
492
471
484
480
475
466
469
472
475
468
465
459
418
423
431
430
429
433
440
450
467
469
474
488
492
486
481
485
488
491
504
502
495
498
505
525
516
515
507
495
496
506
518
541
520
503
501
511
480
475
484
495
520
551
583
586
570
544
520
485
473
471
474
476
484
494
496
498
502
501
509
515
521
526
523
526
529
523
516
520
518
507
501
503
515
531
545
561
562
562
567
558
525
542
550
565
575
571
558
531
512
555
588
609
599
547
520
550
560
551
542
545
546
541
545
559
559
545
538
535
539
547
553
554
527
520
526
509
525
544
587
551
524
519
526
532
524
525
540
532
519
511
507
509
508
504
504
511
515
521
515
494
493
472
504
546
552
542
517
497
499
477
450
442
439
437
442
449
454
457
450
475
480
474
470
478
488
491
507
522
498
481
470
429
425
443
459
464
454
442
461
468
483
529
504
470
482
453
424
425
450
453
459
474
477
471
462
458
466
476
471
483
514
516
505
472
465
481
498
508
509
478
439
412
415
410
405
416
427
477
494
464
486
506
491
499
518
533
539
553
544
487
414
409
431
434
430
435
455
457
464
483
503
501
486
474
467
500
487
463
439
445
495
512
502
503
517
534
543
538
523
502
479
483
498
503
505
511
521
532
559
560
560
587
583
556
563
564
545
506
444
425
442
461
471
475
480
486
480
500
510
524
546
560
565
577
584
555
526
510
495
473
463
461
477
498
509
525
542
546
535
523
530
529
537
558
571
540
488
495
515
511
509
517
523
519
537
546
546
543
550
556
556
552
552
566
555
530
489
472
507
544
537
491
475
473
498
531
546
553
536
514
502
470
452
450
455
453
461
464
469
476
484
483
479
480
489
478
474
474
476
471
464
478
493
496
484
461
465
461
460
456
465
518
524
475
465
508
513
468
446
444
446
465
482
479
484
491
497
494
488
492
496
468
397
366
394
443
466
486
508
537
534
529
519
505
493
494
498
503
503
496
499
521
547
516
473
464
478
508
534
532
527
515
517
517
514
528
541
565
612
613
662
702
720
762
799
835
862
852
851
893
952
988
990
989
989
989
989
989
989
962
871
816
790
712
631
607
589
549
499
448
359
307
285
261
268
316
358
357
352
361
377
389
403
419
452
478
476
470
484
456
402
377
368
397
416
428
417
409
429
431
426
460
465
423
430
447
444
439
437
432
420
421
448
457
451
467
473
471
482
490
505
516
512
502
509
544
548
534
527
524
488
429
375
357
370
388
412
429
436
447
448
456
475
485
490
473
472
504
502
481
467
457
460
461
479
496
505
512
509
497
486
473
465
470
475
484
494
484
475
473
474
487
493
467
447
445
468
490
507
517
515
514
524
519
496
487
499
507
508
507
502
491
482
520
544
556
561
564
563
553
574
588
595
568
506
488
489
479
482
496
485
504
535
544
544
552
545
529
521
516
502
482
486
492
504
521
533
530
539
548
524
508
516
527
527
522
517
508
510
525
534
520
523
526
539
557
561
561
553
531
508
505
486
475
482
483
485
494
499
505
511
520
524
516
503
515
541
549
489
446
447
458
468
469
477
481
462
449
454
470
505
519
518
511
506
501
498
489
475
464
453
431
427
440
448
448
432
400
407
439
451
442
419
393
387
401
406
404
414
422
415
404
390
389
426
470
485
473
461
461
449
461
478
495
510
507
464
428
424
431
420
369
314
311
360
405
419
461
489
490
469
434
426
422
412
444
472
504
534
531
506
519
468
389
387
391
403
423
425
404
397
413
461
478
455
456
486
499
488
470
465
467
448
440
434
451
459
465
470
461
451
451
455
458
465
467
470
496
472
433
412
390
391
401
428
453
446
414
410
467
533
552
540
521
499
516
517
470
452
448
450
460
461
449
433
437
479
463
477
533
569
577
574
575
547
516
503
511
513
481
466
457
460
482
495
524
533
520
515
516
530
500
485
471
472
480
494
517
522
525
519
499
493
497
513
530
553
568
605
592
511
477
457
444
451
489
502
487
483
487
485
477
466
465
496
493
436
430
435
450
469
475
480
474
450
438
431
428
445
476
469
467
485
478
439
420
411
412
429
452
462
447
445
442
435
428
429
434
434
421
394
389
405
425
438
453
450
430
394
364
360
404
406
390
376
445
504
533
522
497
482
484
496
508
490
464
447
443
441
436
435
446
455
464
453
425
425
425
437
432
427
430
421
413
417
429
441
448
456
465
475
494
523
531
520
512
532
564
591
621
656
689
719
773
822
854
894
921
940
942
936
961
990
989
989
990
990
964
917
846
797
755
705
655
621
581
519
464
394
308
269
256
263
290
288
282
274
262
253
256
280
309
338
375
406
440
464
481
481
441
377
334
337
356
348
350
365
385
394
397
395
396
403
401
395
387
385
384
382
387
393
399
407
411
407
401
399
392
390
389
392
396
399
399
397
399
404
409
415
417
418
419
410
399
393
404
420
428
427
423
421
424
423
427
425
413
414
414
411
421
429
434
448
453
446
440
437
445
454
456
432
410
398
397
406
417
421
427
433
435
432
430
435
457
467
445
451
449
446
461
471
461
467
468
462
462
469
479
481
477
460
449
449
465
483
469
467
451
454
476
471
460
465
467
467
472
477
477
477
479
479
480
482
485
491
494
496
500
504
509
513
512
514
516
509
501
482
479
477
466
467
474
479
475
473
477
477
475
471
448
444
483
483
462
448
453
467
482
489
474
470
451
446
465
461
465
473
474
474
466
458
450
443
439
441
444
443
439
436
441
440
441
441
440
448
454
441
431
432
435
446
452
441
437
431
427
430
434
443
444
412
409
423
420
408
400
403
405
404
412
420
418
420
420
432
420
386
366
368
381
391
397
406
402
384
382
394
408
410
399
378
371
381
393
387
380
379
389
404
411
418
421
429
428
414
396
392
412
432
446
436
413
400
397
398
401
394
408
409
381
383
395
405
408
411
416
421
421
423
424
427
439
437
419
418
426
440
454
430
424
419
434
440
453
457
444
444
445
417
396
420
432
432
418
407
414
425
435
445
437
431
432
433
438
440
439
447
459
461
445
445
460
475
474
460
460
479
492
498
499
496
489
469
465
471
452
443
432
438
461
467
446
432
440
458
477
476
469
471
477
479
479
482
471
455
450
452
472
493
493
483
479
491
500
499
482
456
464
479
455
431
444
461
466
474
474
466
463
463
465
466
463
463
462
460
458
458
454
448
449
450
450
453
452
442
427
414
399
400
408
414
432
456
441
416
415
420
428
433
438
447
474
456
413
420
422
421
432
438
442
442
437
434
439
443
439
430
427
428
426
434
445
455
466
481
480
460
435
415
424
418
401
396
396
401
410
418
427
426
425
442
443
443
449
443
453
467
462
460
439
411
388
361
344
367
402
415
407
405
408
414
421
430
444
460
472
474
499
525
530
529
552
587
627
675
702
731
770
813
850
887
924
942
966
989
990
989
989
989
989
990
965
900
844
794
750
697
649
609
569
512
441
359
293
245
227
228
245
268
289
304
292
281
295
307
329
349
363
375
385
388
370
361
366
374
381
392
404
409
410
407
412
412
408
400
401
409
411
400
393
395
400
399
398
401
403
395
389
381
380
395
409
415
409
405
401
405
405
404
408
417
418
418
416
412
406
407
423
434
447
444
446
474
491
513
532
488
440
391
353
365
399
421
429
431
433
438
462
490
446
390
397
416
429
447
466
478
492
494
465
442
439
429
426
437
446
454
461
464
458
454
462
476
481
471
467
477
476
475
466
471
480
482
481
478
477
483
488
489
489
493
494
501
505
489
479
478
518
531
525
507
510
514
512
508
513
520
513
505
498
495
504
518
527
534
532
522
487
450
450
484
509
517
515
528
515
515
518
495
462
454
474
498
531
543
512
497
495
487
476
472
472
482
477
474
470
451
464
499
532
543
533
509
495
497
509
496
459
455
455
447
438
444
454
458
458
461
462
463
464
470
474
474
475
475
466
460
444
419
428
449
445
437
447
456
455
445
426
430
437
436
428
419
434
433
423
435
451
439
434
432
433
428
428
413
410
420
416
412
435
435
425
412
393
389
387
387
389
394
412
429
450
467
466
449
434
425
416
418
422
424
406
377
358
380
411
430
429
412
427
422
398
415
415
415
442
441
450
446
432
456
448
450
447
435
396
422
478
439
433
444
426
415
439
469
464
449
427
414
420
421
420
470
497
466
454
452
428
411
422
447
461
461
455
445
445
449
454
459
468
464
462
462
463
467
472
475
468
468
471
462
459
472
480
489
484
472
464
470
465
454
455
455
464
486
493
498
499
481
481
493
499
496
514
511
481
472
480
490
503
539
514
473
468
480
489
496
497
495
491
473
463
472
495
501
505
520
533
534
527
518
518
513
495
490
484
482
485
493
497
500
489
481
484
498
476
433
416
416
434
440
431
432
438
445
451
445
446
435
422
420
425
422
430
440
433
406
421
445
450
451
445
445
453
456
457
455
451
451
453
450
440
428
435
447
451
444
438
439
445
436
420
433
464
480
462
446
443
443
443
443
440
440
433
419
444
464
465
460
459
451
445
444
461
476
472
476
478
456
439
452
408
362
396
433
435
402
382
399
425
446
464
486
500
515
541
559
564
582
605
626
671
730
756
784
822
870
917
953
961
990
990
989
989
989
989
989
989
989
950
880
852
809
765
731
671
615
546
484
413
316
261
224
209
220
241
266
287
303
314
323
335
348
364
381
399
408
413
420
442
454
456
436
397
370
370
371
368
375
389
402
401
390
381
385
393
400
404
405
417
427
432
434
426
404
383
419
466
428
388
399
401
400
413
425
420
430
436
423
428
427
437
455
464
448
429
431
448
444
435
439
442
438
440
446
451
447
439
447
461
450
450
455
460
458
452
455
466
459
451
453
468
476
477
462
468
485
481
473
472
480
494
489
474
493
509
503
492
489
492
484
461
430
446
483
480
461
463
474
482
486
492
510
518
501
488
492
503
508
506
512
518
532
526
512
494
503
520
568
549
509
489
482
490
501
520
528
527
526
532
537
546
552
550
557
546
532
531
522
518
519
515
527
536
518
487
486
497
510
517
511
498
502
508
524
534
529
517
514
516
518
518
517
509
498
496
481
482
523
522
504
491
475
468
487
492
495
496
496
493
491
486
484
485
486
496
504
490
470
438
428
452
468
472
469
469
475
486
483
469
453
444
442
487
513
473
458
454
449
448
444
442
445
450
455
456
436
424
426
413
412
435
436
430
425
431
425
415
416
433
433
405
404
416
442
441
432
426
423
423
423
434
454
454
445
443
441
435
418
425
435
435
428
419
415
426
440
446
442
444
440
446
443
435
438
437
429
418
425
436
442
448
461
470
465
451
428
411
405
430
457
472
470
468
453
429
416
408
412
428
452
448
436
439
447
450
456
466
459
445
466
482
482
477
467
470
486
479
445
428
423
435
450
464
467
475
498
503
489
490
495
493
491
487
486
480
474
493
491
493
502
519
525
539
540
524
481
463
473
494
482
485
496
505
507
510
522
531
508
486
488
507
477
437
447
476
474
452
489
511
513
520
521
500
482
503
527
513
504
505
510
513
513
507
484
475
456
455
470
472
469
456
461
465
480
477
459
449
457
457
452
451
441
438
441
437
461
468
456
454
460
468
472
470
466
466
468
474
472
462
451
451
447
445
447
450
450
450
451
453
456
451
445
445
452
461
463
467
465
462
464
441
423
417
433
442
448
460
464
461
457
455
451
440
456
467
465
469
470
467
461
453
452
446
449
451
447
443
443
445
451
459
466
478
466
454
456
470
489
505
509
516
518
532
562
588
616
636
655
676
717
760
799
838
876
891
922
956
975
990
990
990
990
989
989
990
950
889
824
776
717
651
636
642
598
529
442
337
255
246
267
245
233
251
268
284
298
301
304
316
338
354
370
378
388
402
410
420
424
427
428
429
428
428
433
440
449
452
447
447
435
437
456
440
401
381
381
391
421
433
415
421
424
419
419
426
438
446
448
448
447
452
453
446
434
422
421
450
454
456
463
470
463
449
455
468
472
460
456
459
465
476
489
496
481
445
441
465
476
468
460
466
470
475
475
474
478
484
499
497
488
496
507
502
463
457
474
488
483
493
510
494
466
462
479
491
507
521
524
529
511
493
482
463
467
489
508
521
524
489
471
484
497
500
501
494
485
507
525
526
526
523
517
519
521
522
528
537
540
538
540
545
544
550
552
551
554
554
549
542
541
540
541
540
534
533
536
542
549
550
553
556
560
567
557
539
542
551
547
546
546
531
536
533
514
517
521
524
539
555
540
504
477
486
505
498
502
518
531
534
541
540
542
537
541
541
501
481
490
493
492
490
482
489
498
483
473
472
474
489
499
501
502
492
467
451
453
461
475
485
483
473
458
441
435
422
420
423
432
438
440
439
441
441
437
435
432
433
431
428
429
430
432
426
429
435
443
436
431
421
409
415
427
422
408
402
402
415
414
422
438
442
441
443
456
463
456
476
470
448
436
428
434
438
439
440
441
451
442
420
415
425
437
445
451
456
453
447
440
435
443
446
446
462
478
491
505
489
462
453
441
431
427
424
431
438
446
447
451
454
449
435
454
463
462
464
464
459
457
453
473
491
495
494
499
502
503
502
498
489
467
452
449
462
480
493
512
521
512
520
525
461
466
491
517
511
491
490
492
491
489
496
498
493
488
501
525
527
519
518
521
523
521
525
529
526
516
501
498
507
518
502
482
479
495
503
501
500
501
503
505
502
497
513
526
531
527
513
471
423
403
410
443
465
473
461
452
454
459
461
472
481
477
474
444
426
422
424
425
438
452
450
438
432
464
470
467
469
478
478
470
466
463
453
463
447
440
446
441
435
441
448
455
452
446
447
455
457
459
460
459
454
456
454
456
463
466
472
471
458
454
459
466
470
476
485
487
483
482
489
487
481
480
456
425
417
407
405
422
442
454
476
476
463
466
477
490
501
511
523
533
552
571
588
579
583
617
648
678
707
731
786
830
859
883
902
916
931
950
968
986
990
990
971
917
862
796
738
691
643
597
586
575
539
498
445
365
306
280
270
275
290
305
319
325
329
338
349
359
369
371
376
392
431
436
412
416
426
436
445
441
428
466
477
473
461
443
427
415
429
430
425
409
398
413
427
432
440
452
456
458
431
403
409
435
451
449
441
437
438
447
454
457
456
452
449
450
447
448
452
456
461
462
463
467
469
464
460
463
465
473
474
473
473
475
478
477
482
480
487
499
488
485
489
476
473
477
484
490
492
489
492
502
507
504
489
492
506
505
516
514
498
503
504
494
489
486
480
479
487
491
491
490
496
498
491
475
458
469
510
522
518
520
525
509
505
508
500
490
486
514
545
552
551
555
563
557
527
499
499
520
542
547
546
545
545
543
543
541
535
538
544
547
551
566
562
546
542
556
538
520
531
518
498
509
522
523
521
523
530
533
533
528
525
518
503
508
533
539
544
549
543
540
534
530
516
505
490
494
507
512
517
520
519
521
525
521
498
515
560
530
472
447
458
477
475
471
458
446
440
462
482
490
492
489
476
449
446
444
437
437
441
448
457
460
460
461
467
466
430
428
459
471
470
447
411
394
401
440
454
423
413
416
420
420
410
412
415
414
417
421
427
434
441
449
449
451
457
457
454
452
453
449
444
429
403
387
392
426
430
425
432
441
447
446
435
437
453
455
445
438
438
431
418
446
454
450
446
458
463
460
455
453
450
441
439
447
462
482
496
493
482
462
464
469
478
491
465
449
438
437
437
430
439
452
461
467
463
463
472
480
459
450
462
474
480
480
483
484
474
479
491
496
497
499
495
488
487
484
491
496
496
494
494
492
492
493
497
508
519
518
518
530
524
507
498
494
505
508
505
510
514
514
513
503
504
513
516
512
513
522
521
504
506
524
537
539
522
498
491
477
462
429
462
506
503
493
495
498
502
500
491
473
459
464
477
481
467
451
456
482
481
471
465
460
460
452
452
453
454
451
450
451
457
463
465
460
457
464
488
489
455
447
453
457
460
461
461
462
458
459
468
474
470
477
480
468
456
450
452
447
439
447
460
471
475
483
477
459
449
436
446
444
435
440
449
461
469
469
468
460
455
459
463
439
405
412
432
449
449
443
448
460
464
465
476
488
501
496
486
502
530
552
567
583
603
623
646
674
679
707
737
773
808
838
846
884
942
986
990
989
989
989
989
989
990
960
921
875
818
774
731
667
605
588
548
495
426
352
301
257
224
234
268
293
309
325
346
363
379
383
393
407
412
406
389
388
402
405
417
416
411
410
412
409
404
413
420
418
419
423
425
429
430
430
428
427
428
428
429
432
438
443
454
430
405
384
395
425
431
428
425
428
431
435
435
438
449
455
451
439
451
462
463
463
462
460
450
446
451
452
457
463
470
474
479
480
481
488
487
463
445
437
443
460
470
475
491
484
481
496
485
472
486
481
450
448
451
456
456
452
453
472
485
478
474
479
482
484
489
502
506
495
483
477
487
493
502
496
473
462
465
480
512
499
500
522
522
519
514
499
495
504
510
506
507
513
518
520
518
525
526
523
517
513
515
516
530
546
547
530
529
528
522
515
521
522
528
532
536
525
511
524
540
539
535
539
550
565
549
502
479
479
487
503
498
483
471
490
508
492
483
498
507
509
506
502
509
511
498
486
485
488
486
498
514
510
482
487
501
501
501
503
494
468
463
471
472
474
482
486
497
500
481
467
488
504
490
467
408
388
407
441
460
465
465
465
461
457
451
436
452
467
466
472
485
505
508
475
431
395
395
403
412
428
435
437
436
438
437
442
448
452
460
464
464
449
426
419
421
429
450
459
449
450
462
452
442
451
460
462
463
460
453
453
455
452
450
453
445
452
481
484
475
471
474
486
507
488
466
463
470
477
474
453
434
425
449
467
480
479
472
475
478
471
467
470
485
477
441
438
449
449
449
459
471
471
473
472
478
485
491
488
489
492
487
475
464
452
459
485
494
514
478
475
476
475
494
498
529
539
509
477
458
461
482
485
473
475
476
481
487
488
489
493
490
488
491
505
502
509
503
484
494
506
512
513
512
510
511
515
519
523
522
529
532
527
526
504
494
500
506
517
528
545
531
517
518
501
476
480
489
482
485
502
496
495
509
515
502
476
487
485
480
496
486
491
502
491
482
481
472
464
464
467
480
485
479
476
465
460
470
473
475
474
456
450
452
456
465
472
463
437
432
445
459
462
469
477
477
468
451
444
445
451
458
471
472
472
480
489
489
457
436
429
436
447
457
475
494
490
474
458
452
443
431
442
452
446
452
451
456
465
459
444
435
435
440
468
478
454
451
451
446
449
451
447
456
471
489
499
497
512
531
551
567
573
590
599
594
631
693
712
724
758
815
848
858
877
912
958
990
990
989
989
989
988
988
988
989
989
970
922
873
814
762
716
656
578
491
406
334
282
260
260
260
261
288
339
367
393
399
400
408
415
437
432
406
390
391
399
408
413
414
415
418
418
410
406
410
432
433
418
416
420
400
380
374
381
394
405
419
429
428
407
370
386
404
413
412
413
431
431
428
430
432
435
436
432
424
412
408
418
429
436
428
424
436
454
470
471
480
498
491
444
425
426
408
416
429
441
455
464
460
454
453
459
463
458
460
450
444
446
447
437
442
481
498
503
507
504
507
507
506
515
507
461
409
413
438
456
467
472
456
452
490
504
497
488
489
499
506
507
513
510
509
508
515
514
505
501
505
507
495
483
480
485
505
530
518
503
499
496
493
493
506
517
523
528
524
518
506
501
502
506
510
510
500
497
517
544
534
534
530
501
483
488
503
521
524
520
516
513
522
522
514
514
516
516
525
539
544
571
575
556
508
469
452
436
440
462
479
485
486
480
474
481
476
459
443
468
490
491
484
478
474
476
481
486
465
467
488
487
484
470
467
468
469
466
464
464
466
466
462
450
454
463
476
477
470
484
505
477
440
422
403
395
408
414
408
415
431
443
452
454
461
465
456
450
448
454
460
456
466
464
443
439
448
463
457
452
447
445
440
448
450
449
446
440
432
433
437
445
458
455
441
452
463
462
461
468
460
463
469
468
460
451
456
461
457
454
453
452
461
464
466
466
470
472
472
470
466
468
481
489
473
467
464
469
474
475
474
471
491
482
473
471
464
455
452
456
471
480
465
460
472
492
484
446
457
470
481
476
463
464
478
488
498
491
496
496
505
527
524
502
464
443
453
492
482
460
467
475
477
478
483
485
487
489
495
492
491
500
500
503
502
498
489
479
477
481
485
484
490
496
498
499
497
498
506
509
517
511
516
522
526
524
518
515
529
526
521
512
493
492
511
524
532
537
549
531
494
476
478
491
517
521
504
496
496
498
501
497
498
506
511
522
513
493
492
470
455
466
474
467
458
455
458
477
481
456
442
463
469
454
474
482
479
469
466
468
469
464
455
452
454
455
455
456
459
465
467
467
469
467
468
467
464
461
456
452
456
464
467
463
461
467
468
451
456
465
469
469
464
456
448
447
439
438
463
498
503
486
477
439
400
391
416
439
452
465
461
444
427
427
433
437
443
446
454
477
509
532
496
456
465
484
484
490
516
542
562
583
605
632
666
707
746
778
816
849
881
909
941
977
990
989
989
989
988
988
988
988
989
989
989
952
884
829
779
721
671
616
545
453
352
285
255
249
254
277
308
332
350
346
343
350
349
354
397
422
417
404
388
397
412
416
412
411
417
431
429
417
404
392
385
385
396
408
406
401
428
407
381
378
386
379
381
387
401
417
423
423
428
425
415
422
424
404
405
421
434
450
455
444
441
440
427
406
401
410
431
450
437
427
427
431
435
440
444
444
442
447
456
464
457
459
457
471
494
477
449
436
438
443
447
439
431
429
437
440
447
459
471
480
487
486
485
491
499
492
492
488
492
500
491
471
465
470
486
477
481
492
488
474
492
508
496
485
482
484
491
483
493
514
509
523
555
531
490
484
483
491
491
514
530
521
515
513
518
528
523
520
524
535
542
549
539
524
503
488
487
485
485
502
533
550
531
502
489
494
488
492
505
524
539
539
531
521
511
504
495
502
514
496
483
495
505
508
501
500
505
489
490
495
497
503
494
480
473
476
480
480
479
479
478
480
481
484
482
477
473
469
474
477
476
489
491
500
496
470
458
458
462
473
486
484
476
470
452
428
415
414
422
429
438
451
458
456
455
452
450
440
450
472
468
440
434
442
445
462
476
437
425
430
418
410
420
437
445
438
428
428
427
434
444
443
442
460
469
452
438
447
455
453
457
475
475
462
457
448
424
435
434
434
451
461
466
462
449
436
434
432
447
457
461
464
472
478
484
479
458
447
431
421
428
440
459
466
465
460
454
456
464
468
469
482
480
471
466
478
480
475
481
470
467
464
463
468
469
476
479
480
463
453
448
452
457
465
471
473
470
480
500
516
521
519
513
519
522
509
482
460
459
459
458
463
469
468
467
480
503
511
494
488
502
497
488
467
460
491
490
475
463
472
470
462
463
462
458
464
487
493
496
513
524
511
475
456
481
494
497
502
490
471
473
478
480
478
491
517
535
551
527
511
520
535
531
512
500
502
503
493
511
532
517
509
524
530
521
517
528
531
524
520
520
520
518
509
503
512
509
504
505
505
499
499
495
494
490
479
469
464
467
468
475
477
475
475
477
476
469
463
442
434
445
456
447
444
447
441
439
454
475
486
464
449
440
434
440
464
472
453
457
469
471
466
453
437
463
459
450
444
447
428
429
456
471
478
479
470
457
447
447
451
466
481
493
476
469
460
444
430
449
477
491
482
454
442
429
432
445
448
442
440
448
448
455
456
454
457
462
483
500
507
516
535
561
583
597
597
630
674
689
727
761
783
814
857
899
934
968
990
989
989
989
988
988
988
988
988
989
989
990
956
897
835
783
747
681
575
466
360
280
250
242
252
271
319
344
319
318
325
333
340
356
374
395
404
409
415
419
423
408
387
377
394
408
411
411
423
439
423
402
399
397
397
388
396
394
388
397
407
413
417
419
417
409
399
382
391
421
426
420
427
440
437
435
434
431
433
433
436
438
425
415
417
420
430
436
434
433
433
433
434
446
452
459
465
469
470
472
477
440
443
453
436
433
432
439
461
474
454
454
466
471
471
470
468
466
468
479
496
504
508
519
503
455
446
446
441
452
469
478
484
484
484
481
460
459
475
485
495
493
505
504
493
497
512
518
519
524
528
524
513
502
490
484
492
507
523
519
522
525
517
520
516
504
520
550
552
536
528
528
526
530
531
512
496
531
559
545
529
519
492
489
494
526
540
524
515
523
547
516
484
489
487
485
480
482
498
512
516
515
520
520
515
507
496
501
501
492
483
487
492
496
499
497
495
497
499
498
492
496
519
511
482
478
468
466
477
483
474
457
467
487
485
481
475
471
472
479
474
478
472
469
475
471
451
468
481
477
479
466
459
479
435
414
432
430
421
423
433
426
429
445
467
476
459
449
436
417
404
403
412
430
438
437
434
455
464
451
447
450
449
440
444
456
461
469
466
448
437
432
418
414
433
459
459
452
450
454
460
462
457
458
458
445
452
472
454
457
465
458
460
465
451
461
463
445
437
460
462
450
449
442
432
447
482
499
503
496
477
448
440
467
480
496
499
468
443
446
438
433
439
445
473
487
487
485
478
485
483
476
475
487
491
478
479
480
475
466
463
473
477
474
488
486
474
470
471
482
488
484
492
489
470
465
485
493
466
481
484
472
462
465
461
446
453
474
492
503
496
473
475
478
471
463
454
454
486
500
496
500
502
505
506
494
481
481
483
489
504
484
485
486
471
461
464
452
472
512
523
515
513
517
520
511
497
495
504
513
511
501
490
509
542
539
529
534
543
529
516
520
531
517
515
519
512
529
526
508
502
510
512
507
509
509
515
521
513
516
513
503
506
497
476
468
469
476
483
493
498
502
517
504
448
429
444
454
441
457
461
455
454
461
450
456
468
467
453
439
446
470
492
484
468
465
462
449
466
482
470
465
469
471
471
464
460
466
471
473
479
478
474
464
479
472
449
446
432
420
435
456
471
462
456
465
470
466
461
454
449
460
472
459
463
463
461
480
470
453
449
443
446
453
447
434
440
451
455
459
466
477
509
530
541
546
556
566
596
642
690
697
685
714
734
751
804
859
901
930
966
990
989
989
988
988
988
988
987
988
988
989
989
988
914
828
774
730
668
599
505
403
302
248
243
253
253
266
286
298
321
340
357
362
370
379
393
400
401
405
410
418
425
401
398
389
383
393
398
402
412
392
394
413
420
421
412
399
398
402
389
372
372
381
412
424
416
415
415
414
411
410
407
408
421
428
430
448
473
472
472
447
431
398
375
382
399
414
429
441
441
441
444
442
443
447
452
457
452
451
457
464
465
451
460
477
468
457
441
444
460
471
465
474
499
491
483
483
468
458
459
462
467
477
478
471
473
484
499
496
492
488
483
491
497
497
498
504
501
492
492
499
498
495
496
505
504
499
503
509
508
494
511
513
502
499
508
508
506
523
525
527
512
519
520
499
490
501
531
543
546
537
520
527
529
523
529
549
560
532
513
542
552
539
488
458
473
497
517
523
516
505
506
512
516
532
528
513
515
521
525
528
544
549
514
498
492
486
493
504
513
521
529
536
528
520
527
504
446
420
428
445
452
472
485
489
488
488
489
484
489
498
504
490
464
466
475
479
467
447
444
449
463
472
472
462
469
485
490
493
493
496
483
438
431
434
426
457
475
468
456
456
452
448
444
447
450
451
450
449
447
439
471
476
488
474
448
416
411
432
449
446
435
431
425
428
428
424
426
433
441
457
470
470
471
485
484
469
447
419
406
420
430
427
439
446
449
463
467
458
450
439
449
464
464
464
464
471
471
474
464
465
485
486
498
502
455
434
441
448
453
463
469
471
477
486
490
494
501
493
478
473
479
474
476
468
465
463
460
467
466
453
460
477
494
494
479
467
482
501
497
493
487
488
485
479
480
467
466
480
470
463
464
468
476
482
490
504
506
498
493
495
504
502
481
462
470
485
481
475
468
466
454
460
474
468
486
503
481
469
480
495
486
470
469
478
485
484
487
491
490
488
493
496
504
514
515
517
489
459
439
447
468
488
497
496
503
495
465
459
467
485
496
494
493
498
505
509
515
518
515
509
505
512
523
529
533
535
542
539
527
527
535
539
516
499
494
498
507
512
517
519
524
527
527
527
527
524
519
520
527
510
514
531
521
498
470
470
470
478
482
482
483
487
492
487
477
493
500
471
444
455
456
435
427
432
454
471
449
430
440
450
451
468
468
466
466
457
450
452
472
484
486
486
461
461
480
468
465
472
481
463
443
486
491
478
468
458
448
448
451
457
465
472
468
461
457
446
442
443
445
447
453
485
522
532
514
481
461
466
462
448
447
451
451
448
440
440
450
452
451
459
471
482
493
492
518
538
556
547
556
596
640
670
697
733
771
815
860
898
933
965
988
990
989
989
988
988
987
987
987
987
988
988
989
990
944
880
814
752
692
631
552
422
294
216
183
176
217
264
298
314
321
325
322
339
353
357
368
388
392
390
391
398
402
394
397
396
415
440
424
405
392
384
393
410
419
423
420
406
400
400
398
397
390
387
390
407
405
401
403
414
416
396
372
376
403
426
432
422
416
408
405
411
418
428
430
427
417
420
436
443
437
430
425
431
443
462
461
450
439
418
412
429
443
428
428
438
446
455
472
464
453
452
454
462
455
454
475
482
486
487
486
490
503
504
509
497
464
459
476
474
473
486
499
503
498
493
483
479
473
481
493
493
499
502
495
489
486
487
492
506
508
494
478
476
501
533
540
510
496
516
512
492
491
493
491
504
512
515
522
521
516
512
508
511
528
528
523
519
523
530
537
548
558
550
532
511
497
480
479
493
515
508
500
508
513
517
523
527
519
497
495
511
508
501
496
505
513
520
511
540
541
511
515
509
506
495
481
476
473
469
483
491
485
484
491
496
491
488
487
484
491
486
470
467
465
465
477
475
473
449
457
490
493
516
494
430
420
427
449
464
453
450
454
452
447
431
429
431
439
453
438
441
455
462
460
455
448
441
429
423
420
432
446
451
440
441
453
462
441
439
418
400
410
411
419
427
432
448
460
436
423
433
433
434
439
441
443
449
461
468
470
474
472
451
435
433
434
437
438
441
443
432
431
435
438
435
432
462
472
475
487
496
502
505
497
467
446
455
448
430
435
443
455
464
471
472
473
477
476
479
486
475
453
453
456
455
457
433
421
449
446
470
484
481
482
485
479
482
490
482
472
463
462
465
467
477
478
482
483
484
474
479
489
470
458
463
471
473
461
446
463
480
493
509
502
477
474
467
458
450
448
456
469
472
471
472
477
490
495
479
472
473
483
490
491
496
517
515
466
462
466
446
460
489
499
508
460
429
441
454
458
454
466
479
487
488
482
471
474
491
499
497
488
475
476
483
485
514
515
505
506
479
459
461
475
477
467
477
487
496
505
511
516
519
530
536
526
528
542
541
513
482
503
501
508
516
518
523
526
522
511
509
516
510
495
484
494
513
523
521
515
510
512
515
514
513
510
507
510
498
469
445
428
422
430
430
446
475
478
472
468
462
459
464
465
466
466
465
463
462
456
452
455
460
472
483
461
444
452
445
441
452
464
468
489
473
455
464
462
444
431
441
450
456
462
461
460
459
463
467
469
471
474
488
485
457
451
453
440
429
444
478
471
460
482
464
448
437
420
404
425
445
422
413
429
444
449
455
466
469
475
479
477
482
500
528
549
565
585
600
614
648
666
692
731
772
824
869
897
933
990
989
989
988
988
987
987
987
987
987
987
988
988
989
990
945
855
778
712
650
571
459
344
271
235
210
227
264
295
309
319
338
353
354
353
355
351
350
365
374
377
385
391
379
371
374
395
413
423
425
407
405
406
368
341
345
363
378
384
379
385
398
415
420
405
371
354
385
401
400
396
394
401
405
409
411
411
410
413
417
412
407
412
421
422
422
420
417
413
439
479
460
432
439
436
419
432
437
446
457
447
437
439
443
440
434
454
471
466
456
454
466
476
464
455
461
468
465
466
472
471
472
482
493
507
491
468
460
460
479
484
463
444
453
460
461
468
470
471
480
483
503
516
514
508
500
488
482
485
503
516
498
490
483
488
505
515
530
523
523
537
522
503
491
493
503
522
537
532
518
524
525
520
494
498
522
525
526
530
526
526
529
519
510
524
529
528
517
503
494
489
492
508
530
535
521
511
521
520
517
515
515
521
520
518
512
503
497
496
497
491
480
477
485
502
504
497
491
486
485
487
479
465
466
483
485
453
460
475
479
478
466
471
490
490
495
499
487
460
453
433
414
420
436
452
466
465
459
478
500
486
466
454
448
451
453
451
454
450
445
445
444
445
448
451
453
456
456
452
448
439
443
439
423
417
420
421
427
437
446
437
419
420
432
455
443
411
401
417
447
462
460
445
464
476
436
419
405
408
427
436
437
433
429
430
437
444
445
447
450
451
453
457
456
457
458
460
457
451
451
450
451
455
445
422
430
462
472
460
452
462
474
477
480
480
475
491
468
451
455
453
456
462
466
478
479
469
466
463
461
457
459
470
466
448
459
493
505
493
487
483
475
467
478
487
485
485
478
472
470
471
472
473
475
474
478
480
477
481
492
498
489
471
459
452
462
475
474
458
453
459
463
466
470
474
467
453
461
467
465
470
472
476
498
517
521
518
507
465
429
431
461
497
487
462
460
470
469
469
484
485
490
494
484
472
474
488
494
488
485
493
502
488
475
475
470
478
481
475
486
500
492
488
496
500
501
497
498
505
517
528
515
508
521
530
532
508
512
548
539
506
498
502
511
522
527
530
539
546
558
550
512
491
487
492
492
490
491
494
492
489
487
484
474
462
476
485
481
483
504
505
491
454
430
435
448
452
468
456
443
453
457
456
459
457
447
450
467
468
461
460
463
465
464
477
467
450
449
472
468
448
442
444
464
480
493
488
477
461
458
460
455
451
459
468
471
448
438
453
456
458
452
442
449
458
455
452
459
463
466
464
464
462
463
461
459
463
461
457
446
446
448
442
437
453
472
495
494
493
499
511
528
545
567
574
583
613
637
668
704
747
805
851
889
923
953
979
990
989
989
989
988
988
988
988
988
988
988
989
963
912
847
769
710
640
566
497
398
307
252
229
227
235
238
271
297
328
335
328
323
320
335
369
395
402
399
402
405
397
393
388
389
396
403
406
404
403
405
407
403
412
423
400
372
383
395
401
398
396
397
398
392
404
418
420
407
401
404
408
411
412
413
418
423
421
423
428
439
450
455
455
453
456
464
464
429
412
401
399
400
418
463
466
440
437
446
453
456
458
455
454
455
456
462
468
468
464
477
489
460
451
467
465
449
454
446
460
479
475
469
471
471
473
475
478
484
483
486
488
477
477
477
486
492
495
499
496
497
492
466
469
493
499
503
518
534
512
499
508
515
523
521
517
509
507
509
514
522
518
519
517
506
506
540
553
539
539
528
500
485
494
513
538
526
514
513
519
529
540
551
571
561
547
548
545
533
515
500
497
502
511
518
523
524
526
527
528
536
532
517
508
506
506
499
508
527
513
496
486
486
490
490
493
495
494
493
496
498
490
482
477
478
476
471
457
467
479
481
472
454
464
485
480
473
476
482
498
512
489
460
446
433
431
434
417
400
418
438
446
446
448
455
451
448
453
454
457
448
433
432
420
428
452
447
433
419
405
406
421
418
431
449
433
413
419
442
457
433
414
419
448
456
463
483
476
459
447
440
421
415
419
419
421
420
422
426
427
419
427
430
431
441
450
458
457
446
453
465
460
450
448
457
451
449
473
477
465
459
443
439
447
455
466
477
483
481
477
471
462
458
457
462
460
446
460
477
479
476
475
464
454
453
460
469
475
482
484
484
483
478
461
457
462
466
481
479
474
475
478
475
471
468
473
481
480
473
473
474
475
477
485
489
489
484
494
494
486
491
510
524
478
453
486
507
488
463
462
466
460
463
474
486
486
478
464
461
472
482
482
473
476
485
494
500
504
530
487
445
456
471
474
479
479
488
473
472
493
493
492
514
516
498
511
513
505
518
522
503
499
505
507
515
525
533
549
543
528
522
518
502
496
500
508
510
509
508
518
521
522
519
512
511
501
492
507
513
511
505
501
494
489
491
493
493
488
478
474
476
481
462
439
453
459
459
450
437
442
445
457
467
467
483
472
458
456
448
450
460
463
463
468
477
484
484
476
466
459
457
456
452
449
448
448
450
447
448
452
458
450
454
480
483
479
470
461
455
444
449
460
464
467
468
470
471
465
472
469
461
456
457
465
469
473
462
455
475
491
488
457
433
434
446
452
454
455
460
485
502
517
532
529
529
545
573
602
624
635
652
695
748
793
822
840
877
911
930
952
984
990
990
990
989
988
988
988
989
990
939
878
815
760
727
704
629
549
486
406
322
271
245
247
263
283
290
307
325
336
341
351
360
372
393
426
435
429
413
403
380
366
367
382
400
410
430
439
433
432
431
431
420
411
405
407
409
409
409
412
414
419
422
421
422
423
422
414
408
425
432
441
456
462
467
450
435
433
424
417
428
441
457
458
444
449
453
450
449
452
450
450
447
442
441
448
461
461
476
482
480
486
495
502
498
490
488
481
464
446
414
464
495
459
443
465
482
479
475
498
504
490
488
498
500
499
496
502
514
532
534
516
511
517
520
502
487
501
499
499
510
503
495
490
494
512
523
524
521
515
513
513
503
503
511
517
523
526
550
568
559
521
513
525
529
518
518
531
548
568
570
554
547
539
526
523
536
557
559
547
538
536
548
554
553
563
558
550
550
545
538
537
543
537
528
545
534
529
530
533
539
545
543
538
545
543
530
510
504
500
499
518
540
555
522
472
466
497
501
491
482
477
481
481
490
489
495
487
491
472
460
460
478
493
462
427
426
434
428
438
451
465
473
458
427
406
408
425
438
448
452
475
473
451
448
444
432
428
425
407
403
423
424
382
375
404
441
437
404
416
450
450
438
434
430
429
431
434
433
434
444
436
417
427
440
434
434
433
434
438
439
437
434
436
441
446
452
455
453
457
459
455
433
417
421
431
443
451
460
459
449
443
441
447
452
455
452
449
474
493
467
456
465
461
441
445
463
476
483
477
472
464
454
416
397
422
439
465
488
471
454
453
454
454
461
469
470
464
451
480
499
495
480
461
477
487
482
483
474
462
449
438
465
493
488
467
463
467
472
495
503
494
499
498
491
486
483
468
468
471
472
473
481
476
473
474
488
499
505
502
504
499
494
490
489
487
478
475
490
495
493
491
497
506
521
510
494
494
498
507
518
523
498
496
502
503
513
524
531
538
544
534
493
458
447
463
493
511
515
511
509
506
513
522
522
527
547
545
533
513
518
551
552
477
439
458
478
495
501
493
489
485
488
490
491
495
493
473
457
445
453
459
465
465
466
457
436
445
486
483
467
468
465
449
463
461
460
463
465
468
467
462
449
447
452
461
468
467
460
452
448
459
469
473
477
478
480
485
475
476
465
451
437
444
458
462
485
476
446
447
471
497
487
439
435
461
467
464
458
461
464
465
456
458
458
451
447
445
450
464
472
466
464
466
468
476
480
483
501
514
508
512
534
557
567
573
581
591
614
639
663
688
724
761
802
845
881
912
938
953
971
989
988
989
989
989
989
990
962
901
836
787
756
720
673
638
598
548
491
418
333
285
280
289
295
304
312
326
349
357
357
349
343
363
384
402
390
370
379
427
459
427
411
423
431
422
415
419
426
434
434
426
425
422
421
419
411
430
443
447
446
437
435
441
443
442
446
436
434
434
435
453
462
448
433
425
434
427
413
414
422
420
437
449
451
443
442
454
459
451
450
456
464
468
469
466
465
460
456
455
462
469
467
462
461
464
469
475
494
493
479
481
479
477
481
475
478
487
495
494
491
486
488
501
494
483
489
495
497
483
501
510
515
523
506
479
469
468
491
492
498
510
512
505
500
519
521
516
527
526
526
530
533
536
545
552
572
561
532
529
522
525
538
520
513
524
527
530
533
537
539
536
534
542
545
534
538
545
544
541
542
546
544
538
540
552
563
575
580
585
612
583
515
474
466
485
505
511
503
507
524
540
542
538
534
520
509
496
497
501
510
513
508
508
507
504
532
547
513
490
487
483
487
483
475
481
495
494
502
477
449
457
448
440
440
446
431
433
464
474
469
463
475
494
458
435
443
441
435
428
422
421
425
418
418
433
429
425
437
454
458
451
452
456
450
446
440
434
432
410
395
390
377
397
438
452
446
440
444
461
454
416
409
419
428
417
401
407
427
439
448
458
451
437
447
442
429
427
430
441
463
471
444
438
441
428
427
432
433
452
454
440
434
436
440
443
447
451
449
447
452
466
501
488
462
458
466
470
469
461
448
439
438
443
448
434
434
449
459
459
468
474
467
463
479
491
461
446
445
446
440
476
517
520
512
498
485
481
466
472
487
484
486
488
482
471
467
472
479
480
477
475
475
470
470
473
479
484
483
492
502
511
512
502
465
468
478
488
480
481
483
483
482
493
485
485
488
493
493
496
499
495
497
499
500
501
501
499
501
497
499
493
487
487
472
462
490
517
523
523
522
522
523
523
524
525
535
537
525
513
506
499
479
466
495
521
531
526
525
531
530
524
520
520
507
507
506
508
519
509
478
465
455
456
477
497
498
482
466
488
493
465
447
461
456
456
466
469
480
492
466
458
460
464
475
478
460
445
441
457
451
451
456
458
459
473
464
450
456
458
451
443
445
446
434
428
441
467
499
505
488
476
476
481
477
467
458
446
447
459
473
470
463
466
466
465
464
465
466
468
470
472
469
478
486
492
485
461
453
466
477
454
418
393
413
431
435
465
478
487
496
503
504
512
525
540
557
576
593
610
629
643
681
723
775
823
854
870
884
906
930
971
990
990
990
989
989
989
989
989
989
983
923
868
810
753
690
637
593
540
469
376
298
260
247
252
270
291
320
350
368
359
353
367
384
396
391
399
414
436
442
399
386
398
407
411
407
421
422
402
407
414
417
416
406
386
386
396
406
408
398
393
395
399
408
408
394
407
427
436
434
437
445
444
434
427
424
425
425
421
425
436
447
454
438
419
422
433
439
440
440
444
451
456
449
456
460
455
451
449
442
443
435
433
448
463
471
479
479
473
474
476
465
454
458
463
472
474
466
459
449
467
483
483
466
462
467
473
477
492
504
496
492
481
491
517
512
483
482
493
487
476
468
479
498
511
515
506
497
509
530
515
485
478
491
510
519
500
495
503
505
500
503
509
511
531
546
548
526
527
540
547
526
526
519
510
512
522
537
544
537
517
492
505
519
537
550
549
538
535
533
523
515
520
530
526
523
522
522
523
523
519
525
532
533
528
515
504
496
489
492
498
502
503
502
496
484
482
487
489
494
496
491
490
483
485
487
498
489
474
462
447
443
447
448
448
451
463
449
441
446
451
450
455
463
468
469
464
454
440
432
441
471
491
462
433
418
395
408
426
440
457
466
439
421
424
429
422
417
413
420
433
441
442
445
445
446
475
491
448
419
431
450
453
447
444
436
433
438
435
428
426
459
473
461
458
464
457
437
430
436
441
436
433
437
447
461
462
452
452
452
442
425
459
475
459
448
449
450
465
465
470
495
493
488
479
457
448
440
432
430
444
465
473
483
488
472
466
457
428
436
457
470
472
474
477
481
486
479
473
467
466
469
470
479
485
476
466
466
480
477
482
490
491
484
481
471
467
481
486
489
493
493
489
488
498
491
490
480
467
471
475
481
486
483
476
486
499
496
491
473
463
471
480
503
521
492
437
429
453
466
471
473
493
507
483
465
462
476
486
491
495
501
507
492
482
485
484
486
470
482
489
473
511
524
522
505
483
467
468
474
472
474
498
510
517
501
488
492
498
502
496
491
499
506
499
499
505
506
523
527
529
544
540
531
531
535
515
496
501
514
522
524
512
505
512
526
522
517
519
508
506
510
505
493
489
485
496
518
516
505
491
482
467
466
452
436
437
440
448
447
435
425
445
464
472
483
495
485
487
470
476
455
410
413
439
468
478
480
475
474
471
469
469
472
474
470
462
461
466
470
474
463
453
453
458
444
451
457
453
438
436
455
461
462
463
462
463
472
471
470
470
472
472
471
470
463
449
445
444
443
448
456
455
445
437
437
450
462
468
490
509
485
467
479
511
538
556
560
579
595
607
633
670
701
728
760
808
848
878
908
939
980
989
989
989
988
988
988
988
988
987
988
989
990
969
914
819
754
684
617
586
526
418
368
309
271
279
297
326
330
323
334
351
356
362
364
375
408
425
398
363
342
346
360
370
368
392
413
424
412
400
399
400
402
401
390
382
369
361
364
365
357
379
396
399
396
400
406
405
405
413
409
410
407
404
405
415
413
411
417
422
427
426
424
423
431
423
406
425
440
439
436
439
447
435
430
433
437
440
445
449
448
443
442
433
427
434
451
455
455
460
459
459
460
464
460
455
463
455
449
460
476
485
485
480
486
486
463
445
430
434
454
436
443
463
468
474
483
501
513
521
494
453
451
466
466
461
464
474
479
476
480
490
499
506
504
499
499
512
531
541
533
534
516
491
477
479
484
499
520
530
534
531
537
527
500
524
542
541
540
537
519
521
527
525
524
521
528
538
533
525
519
518
514
514
517
517
513
502
511
530
530
520
521
511
517
524
527
520
524
529
535
540
517
482
487
495
497
468
450
448
452
464
471
471
467
463
462
461
467
463
439
434
444
451
445
454
467
471
468
462
458
460
452
432
430
449
465
462
439
434
452
456
447
442
442
445
447
445
439
439
454
463
457
451
450
471
465
426
427
436
440
446
433
432
442
441
442
440
440
435
430
435
442
453
458
460
464
462
432
424
443
448
472
473
465
477
458
443
414
416
431
453
447
424
413
413
421
434
459
485
467
455
454
454
462
466
465
465
460
455
461
463
458
445
455
466
471
477
483
485
467
463
465
469
476
477
473
472
470
475
480
482
482
482
482
479
478
488
482
469
478
482
471
471
475
469
480
490
483
479
473
471
475
485
498
509
521
506
469
471
473
470
479
468
457
465
471
472
465
477
501
513
512
504
497
472
431
440
461
474
491
497
480
484
479
481
482
480
476
476
478
473
459
443
457
475
472
471
480
484
483
474
462
469
486
492
490
480
488
491
485
477
479
493
493
484
487
489
480
477
479
496
503
471
453
471
491
506
518
500
464
466
480
481
492
488
500
485
473
478
479
472
467
473
487
493
497
501
494
488
487
484
480
487
492
496
501
500
505
495
484
485
476
465
466
458
455
478
485
490
507
516
515
509
516
521
497
496
516
540
529
516
522
524
530
533
530
530
530
528
528
524
514
519
539
540
529
517
507
502
502
500
505
496
503
504
494
493
489
488
488
474
483
476
468
468
473
474
472
457
460
465
454
457
471
477
476
471
462
455
457
461
462
454
457
484
509
504
491
482
470
452
444
451
453
457
452
452
460
469
477
486
484
480
473
465
454
440
448
437
427
441
449
457
475
473
469
463
461
463
469
473
484
483
468
465
470
477
490
498
483
460
445
437
433
433
431
436
441
424
413
434
445
457
461
484
506
515
523
528
522
538
551
567
598
632
672
718
752
779
817
863
914
956
990
989
989
989
988
988
988
988
987
987
987
987
988
988
989
988
911
839
770
702
633
534
421
335
314
300
295
310
333
353
369
372
358
355
347
355
367
378
401
397
389
383
378
368
369
374
381
386
389
391
389
390
385
386
386
388
382
374
375
387
387
380
392
396
405
406
403
393
383
402
399
405
417
428
417
401
399
401
392
402
405
401
399
400
409
424
437
441
438
446
470
468
462
474
477
461
413
367
331
365
400
408
420
440
448
438
439
444
444
444
443
445
446
450
457
459
456
458
459
463
462
450
447
451
456
465
475
488
483
466
467
480
477
466
469
483
476
470
489
497
492
492
492
493
493
494
493
493
495
497
494
487
496
500
492
505
516
517
529
548
535
501
501
521
506
496
503
501
506
510
512
512
502
496
496
511
524
535
543
536
522
519
515
528
531
531
522
515
516
524
539
547
536
512
498
499
505
507
509
510
509
498
496
504
511
512
496
497
509
520
512
502
512
510
509
508
507
506
500
495
494
496
509
493
466
456
459
479
482
478
471
483
492
494
487
474
460
466
484
466
475
474
450
434
430
435
429
432
442
445
450
460
464
460
454
451
448
434
440
446
451
460
456
434
400
412
442
443
432
438
459
466
459
440
432
426
424
421
425
425
425
426
427
436
452
465
459
440
422
421
428
440
450
447
442
439
438
428
436
444
450
454
463
450
443
456
457
462
468
465
454
447
448
466
469
470
478
479
474
471
465
473
475
471
474
470
454
465
476
474
468
468
465
466
470
476
483
487
489
495
497
472
455
466
487
508
495
495
484
460
428
432
444
458
464
458
457
454
463
470
466
460
465
464
478
493
491
497
491
474
446
464
481
475
446
444
464
465
468
464
464
467
479
492
495
486
482
487
483
481
483
470
468
474
483
501
510
499
495
493
475
481
486
486
490
477
474
486
494
483
481
477
476
485
488
485
483
485
477
470
468
475
481
476
470
480
481
479
479
484
489
495
498
499
490
475
473
465
454
474
478
475
487
506
506
479
491
478
472
482
462
448
449
467
483
486
482
477
486
482
474
479
484
485
486
481
483
485
487
483
486
476
461
463
488
501
501
485
491
488
468
466
460
461
490
501
495
482
473
473
479
486
486
479
479
483
481
468
459
469
498
524
520
498
491
488
480
477
473
473
482
500
499
473
474
474
470
474
480
490
503
508
510
514
519
520
521
524
525
527
529
525
524
529
527
525
518
529
539
542
540
539
535
523
526
540
539
524
511
516
531
544
555
516
501
502
502
504
503
503
505
505
504
498
485
478
487
487
469
463
444
442
449
437
435
467
495
492
482
488
468
434
420
418
451
475
471
483
485
466
449
446
465
474
462
459
461
469
482
463
452
456
459
458
455
451
461
483
483
466
459
467
462
457
452
449
462
462
451
456
463
465
466
463
465
473
474
475
472
469
472
483
482
477
480
469
442
447
478
468
445
439
441
442
442
447
454
462
470
486
503
519
540
558
582
615
639
657
685
724
752
778
822
869
916
965
976
990
989
989
988
988
987
987
987
987
987
987
988
989
990
963
892
820
745
671
608
497
383
310
269
260
261
269
289
313
330
338
347
351
353
366
380
385
391
392
391
385
384
373
380
388
386
393
396
405
414
442
456
402
351
338
347
369
382
379
368
352
377
384
381
387
404
419
427
425
422
417
417
413
420
425
413
397
383
385
399
418
462
476
425
405
413
430
439
428
418
417
406
407
423
429
430
421
418
425
431
430
430
431
442
455
462
470
471
476
474
461
444
451
458
467
469
450
459
458
456
461
455
452
462
468
471
473
476
481
473
451
464
473
487
489
490
493
490
483
482
487
489
475
480
500
505
509
513
512
511
503
501
498
491
489
493
502
499
505
512
518
527
536
545
557
571
569
552
542
524
509
502
466
462
493
506
505
519
544
540
522
516
512
510
521
515
515
515
504
528
552
557
558
557
558
550
517
498
495
503
520
505
506
515
497
499
495
497
501
503
517
529
527
502
480
483
500
512
503
495
490
487
483
482
473
473
483
484
481
477
476
474
476
478
468
448
475
472
456
458
461
465
465
462
462
466
468
471
460
451
450
454
447
421
405
399
350
359
423
443
449
457
460
452
457
466
475
481
472
450
444
435
421
419
426
448
456
440
437
448
449
431
413
398
407
433
447
438
414
407
417
427
433
434
443
453
451
440
448
454
452
441
436
460
466
461
460
474
473
452
439
454
475
461
440
446
451
451
450
457
464
469
469
467
454
449
443
448
452
483
485
478
479
483
478
466
455
443
442
446
450
471
486
483
471
458
444
438
457
469
466
473
491
493
493
489
485
482
491
492
481
481
476
473
481
499
525
510
460
454
471
477
476
479
476
473
452
444
451
481
499
499
498
506
523
505
501
506
492
467
458
449
444
456
475
484
482
482
482
485
480
481
482
481
477
474
472
481
476
486
504
504
497
500
491
473
461
465
465
465
471
482
484
486
490
500
497
488
494
468
448
450
459
462
467
473
479
477
461
452
457
465
483
507
508
502
494
491
488
489
476
461
474
487
489
479
482
484
484
489
489
485
479
485
491
478
469
479
491
502
499
483
466
459
459
468
482
489
483
478
482
490
480
479
491
495
479
483
491
485
471
491
496
470
489
480
440
417
433
450
461
470
478
479
482
491
490
470
460
475
488
506
482
471
484
492
483
472
471
475
491
520
506
504
506
477
465
465
470
479
484
486
485
485
487
494
502
504
503
500
498
512
511
495
475
465
475
489
504
506
499
504
511
505
504
509
518
521
521
514
492
511
538
543
534
527
515
508
505
515
525
534
531
535
542
541
540
539
539
527
516
509
511
519
524
526
527
528
534
528
503
496
498
486
485
485
478
473
475
463
463
460
453
466
467
456
462
468
468
471
462
471
478
476
457
459
471
474
468
466
467
472
484
494
493
477
478
503
484
454
450
457
454
449
455
449
457
469
467
458
453
456
463
491
498
468
442
448
455
457
454
459
473
466
463
468
468
469
466
464
459
456
458
465
477
481
480
476
472
449
416
423
425
430
434
455
465
457
453
455
467
476
498
537
550
555
573
588
610
627
660
695
734
788
846
871
903
952
990
989
989
989
988
988
987
987
987
986
986
987
988
988
989
990
939
867
788
714
647
540
417
320
259
217
202
219
254
289
318
333
340
344
335
343
379
388
384
372
385
391
369
363
365
374
377
388
401
408
416
400
379
381
396
405
395
363
352
387
386
371
380
391
392
405
416
402
386
384
383
390
405
414
407
408
408
410
425
421
404
396
385
408
424
428
413
424
436
434
436
446
452
450
445
436
432
437
431
424
435
448
451
453
464
459
464
468
471
470
454
451
459
468
472
466
456
456
468
471
469
459
460
470
476
480
482
472
461
468
475
480
485
477
462
460
466
467
468
485
490
483
484
492
500
521
520
504
507
520
537
528
517
493
485
488
485
494
499
501
505
510
512
509
506
500
500
504
497
491
501
510
520
525
524
526
536
547
540
541
545
536
516
515
525
539
544
543
541
562
575
572
550
536
529
538
540
534
522
507
500
521
539
539
533
530
514
500
498
515
508
506
509
510
506
494
481
484
501
503
492
494
492
494
493
472
471
484
473
472
473
469
475
467
451
444
442
443
452
446
445
450
451
450
438
433
430
432
434
433
431
429
428
426
427
431
428
446
466
450
440
445
452
454
459
454
447
447
445
445
446
442
442
442
435
437
453
446
434
439
439
444
447
453
458
470
467
447
435
436
432
422
420
422
436
451
452
437
431
433
419
422
428
432
432
440
462
476
476
465
434
419
445
455
432
405
387
419
427
438
442
449
453
457
458
463
487
478
450
434
431
445
447
447
449
448
448
453
454
476
492
493
485
470
468
465
462
457
455
464
467
468
474
486
496
492
491
493
476
462
474
483
486
493
493
476
473
478
481
480
480
480
483
482
475
478
488
510
519
481
458
469
476
459
461
464
471
488
500
498
475
455
456
472
497
499
474
456
460
472
463
464
482
478
482
490
489
479
467
461
468
472
488
510
489
458
462
473
484
486
487
485
481
477
478
479
481
479
476
481
486
462
437
463
485
505
510
478
480
510
502
506
496
483
488
502
485
464
451
443
452
458
459
471
479
489
490
486
480
479
484
486
484
480
476
472
482
489
487
494
468
437
462
479
484
484
482
480
489
486
479
474
474
474
468
464
464
468
477
485
486
486
488
484
478
479
476
471
499
522
498
484
481
481
487
490
491
485
474
467
465
474
485
492
502
513
507
489
489
508
492
463
451
447
452
461
463
461
464
473
479
471
472
472
472
477
481
483
484
486
487
487
494
496
494
490
480
485
492
498
512
518
508
503
476
468
473
474
477
482
482
479
494
491
489
492
498
503
504
492
490
497
502
503
506
501
501
513
512
514
522
535
554
549
543
544
539
522
515
501
504
517
530
551
571
554
513
522
525
528
529
525
524
521
518
513
515
514
511
514
514
514
512
506
496
494
495
497
497
500
504
510
494
472
446
432
431
432
442
454
461
461
471
479
473
465
454
457
463
470
499
490
459
453
451
449
463
476
479
480
490
463
411
418
438
452
461
464
469
479
484
482
473
468
473
473
480
484
461
439
461
470
471
482
499
519
493
452
443
452
450
454
460
452
454
465
466
464
463
464
469
465
454
448
435
431
446
437
435
441
461
475
472
478
504
532
538
558
593
617
643
677
723
764
797
839
881
932
966
990
989
989
988
988
988
987
987
987
987
987
987
988
989
990
922
850
826
749
668
587
492
412
349
264
242
244
255
281
317
334
329
333
336
337
350
368
377
385
388
395
405
403
384
384
388
378
391
412
403
386
387
388
383
383
383
383
386
386
387
389
392
396
399
397
399
423
396
375
384
391
393
394
409
409
400
406
417
429
434
431
426
428
428
418
415
422
442
460
462
434
413
418
442
447
432
435
430
432
430
423
416
419
435
443
446
455
467
472
478
478
477
477
480
460
440
451
452
456
453
459
469
477
483
469
470
495
519
494
466
453
464
474
476
479
486
492
487
478
490
494
489
488
495
499
500
501
495
494
502
487
491
503
507
505
502
513
521
526
538
560
561
521
472
453
485
517
524
522
518
521
518
511
512
518
524
528
531
534
537
539
541
541
541
536
531
530
529
526
525
550
560
551
552
548
550
556
553
550
534
521
513
512
514
523
536
539
528
521
525
514
509
503
514
524
499
486
497
504
500
487
479
469
470
484
492
494
484
480
472
466
476
487
490
484
472
470
479
479
454
441
443
442
438
448
455
468
467
458
436
440
443
434
423
419
417
410
414
419
425
433
435
437
439
439
437
431
432
420
424
429
435
433
434
434
433
439
435
440
444
441
427
420
418
412
412
426
436
436
427
442
453
444
436
431
429
435
436
427
424
439
458
459
458
455
451
450
451
448
449
448
447
450
457
448
436
438
444
452
459
458
457
452
436
418
458
474
466
477
467
479
484
447
444
447
456
462
455
457
463
467
460
464
469
472
473
483
477
469
471
466
456
468
476
484
487
486
483
480
482
485
472
469
470
473
474
477
482
472
469
467
466
470
475
482
495
491
478
451
455
482
495
497
495
504
517
515
501
495
478
462
462
470
482
489
485
476
472
473
480
487
489
489
489
476
477
485
482
480
480
472
464
474
494
506
488
466
460
465
464
490
483
466
463
453
448
454
463
469
476
496
493
492
498
479
471
477
502
506
509
496
476
460
450
456
467
474
475
474
479
486
491
497
507
502
485
474
461
453
455
459
475
480
475
478
476
457
460
479
487
493
494
490
484
475
485
487
483
478
476
476
477
479
484
486
484
484
483
483
485
488
487
485
487
486
485
487
489
489
486
486
499
499
496
499
496
482
461
455
459
463
470
475
480
487
494
485
492
505
501
490
494
511
504
511
521
510
508
508
514
515
524
540
541
516
514
526
527
535
533
522
521
515
523
540
537
529
527
529
526
539
557
526
511
512
514
503
486
494
488
465
478
501
507
503
483
467
460
468
479
486
484
475
467
470
467
461
462
468
473
480
479
467
469
471
474
474
473
475
477
466
460
457
486
481
456
457
468
471
465
464
473
479
473
472
473
479
484
483
481
474
475
479
479
465
464
463
474
489
501
495
455
440
443
455
451
443
449
459
472
475
468
467
463
462
471
467
474
473
452
441
449
466
465
457
448
436
430
432
435
448
476
480
469
501
520
523
550
552
564
594
622
655
686
718
745
790
844
876
903
932
942
955
986
990
989
989
988
988
988
988
988
989
990
956
903
823
755
699
654
603
537
454
371
315
281
265
264
274
303
327
338
341
326
327
348
353
374
396
385
388
398
410
414
412
409
403
393
400
401
405
405
395
396
416
419
406
407
409
411
412
414
414
408
422
429
406
405
399
406
431
448
431
399
391
405
414
421
424
422
419
421
417
419
430
433
437
450
465
462
448
457
468
445
436
444
447
443
449
453
463
466
457
451
450
455
456
451
453
461
471
472
469
469
480
466
448
461
474
487
506
506
499
491
481
481
487
481
486
501
506
510
506
493
494
487
484
468
449
485
501
505
510
502
496
514
520
512
507
510
510
508
513
519
525
527
528
545
543
527
504
492
501
512
528
543
559
548
533
526
518
525
537
548
553
546
523
527
533
542
556
565
566
572
574
563
574
575
544
526
560
582
564
582
557
526
528
538
548
552
547
545
539
534
532
527
530
531
533
538
541
543
548
543
541
544
532
519
508
496
494
494
480
473
474
479
481
483
486
493
494
490
474
464
467
468
465
458
452
450
451
448
456
460
463
450
428
415
407
405
408
415
422
432
425
425
433
433
401
386
418
418
409
421
447
444
418
404
404
424
422
418
417
420
418
412
400
398
403
410
401
403
425
435
451
445
432
439
440
430
422
426
435
442
434
414
416
425
454
460
423
410
426
422
411
419
445
442
426
414
403
407
414
420
420
423
430
433
435
443
455
456
450
446
443
438
427
432
438
441
451
461
463
459
467
446
415
417
416
424
435
439
445
451
456
451
448
449
451
454
461
467
465
472
468
467
474
468
464
459
453
442
446
459
472
480
481
471
459
460
462
469
477
476
471
470
471
466
467
462
449
460
476
491
491
488
509
499
448
448
509
523
474
452
448
445
447
475
476
459
452
462
472
472
461
472
500
491
461
468
477
490
498
470
457
460
466
473
461
463
480
471
460
465
460
451
448
458
479
475
457
459
468
480
482
484
493
494
486
479
479
477
479
478
475
478
468
460
461
468
468
466
470
477
474
468
466
483
499
499
496
492
494
514
510
490
484
482
485
493
491
484
489
500
507
510
513
515
524
539
530
516
513
527
519
489
471
467
475
487
495
495
498
505
520
498
468
472
493
516
515
500
499
501
502
519
523
498
477
473
466
470
480
475
482
489
487
481
474
466
451
438
443
461
469
464
459
450
440
461
466
463
464
471
461
442
445
449
454
458
453
455
466
465
455
445
444
458
464
455
458
457
449
456
446
442
470
479
465
469
476
502
505
495
469
438
419
426
439
442
447
466
470
464
471
467
469
468
446
444
436
440
447
446
440
444
445
442
439
434
451
452
440
436
433
432
443
443
450
459
468
472
479
481
483
491
502
519
537
553
572
595
614
651
680
717
776
819
831
854
879
892
909
939
975
990
989
989
989
988
989
989
990
933
889
844
789
753
710
654
606
555
494
415
351
305
280
272
282
301
312
320
333
350
349
351
357
357
349
336
349
402
433
420
388
384
387
397
406
428
423
411
414
405
396
401
404
377
380
407
412
414
391
390
398
393
377
387
397
398
401
406
412
418
417
416
415
414
415
417
419
419
423
431
434
436
451
446
436
434
427
417
423
432
428
434
444
463
478
467
455
448
447
460
463
437
456
480
496
482
476
476
467
443
446
459
468
470
477
483
496
502
477
459
459
451
447
467
481
480
470
466
465
462
483
505
512
505
501
502
498
486
472
461
463
476
496
508
513
514
513
511
520
512
505
524
546
533
498
479
478
479
492
505
513
521
529
547
542
509
508
514
519
528
531
522
513
539
548
541
535
539
538
542
551
564
569
570
572
582
579
573
573
578
577
575
556
528
532
544
556
561
556
543
539
523
511
496
484
480
487
512
531
528
517
512
505
498
494
491
488
486
486
488
489
484
480
479
472
469
468
461
463
467
465
460
459
454
438
434
435
432
425
440
457
431
414
422
419
418
437
438
433
426
422
419
427
441
426
403
388
381
388
398
409
417
427
440
410
390
400
410
411
409
413
416
407
407
414
424
414
397
414
438
438
430
430
430
429
441
452
434
412
395
391
398
390
388
393
396
401
411
417
419
425
424
419
399
399
415
418
434
448
447
434
425
432
443
449
447
453
442
432
436
442
445
442
436
446
449
444
445
437
434
439
447
451
451
447
446
448
448
447
448
447
441
437
428
438
442
435
441
474
485
486
472
458
458
467
465
463
463
466
466
470
474
478
472
460
453
457
470
479
476
466
462
449
468
510
499
455
423
430
441
453
470
475
472
470
473
477
466
453
451
457
461
464
472
488
494
485
487
494
485
466
454
469
463
458
466
457
447
457
466
483
488
477
463
456
464
465
466
468
472
472
482
480
472
486
473
479
475
449
449
460
469
474
476
476
472
457
457
478
489
498
496
494
499
504
499
497
503
496
473
475
486
484
476
475
469
454
455
467
478
492
503
499
499
512
518
514
510
501
493
497
503
505
508
512
516
518
523
505
491
498
508
519
522
520
517
515
515
517
513
509
507
504
498
492
488
483
489
491
477
488
490
473
457
440
442
452
462
454
458
473
494
485
432
410
434
458
456
452
452
447
436
442
460
467
471
481
493
475
444
435
452
466
462
453
453
452
449
462
468
475
467
459
448
451
459
466
472
475
473
470
474
473
483
457
412
407
446
463
464
461
461
462
462
463
465
461
458
443
434
435
448
445
452
480
478
458
445
448
458
457
443
435
433
431
426
425
430
442
459
464
473
492
514
540
543
526
517
531
568
622
662
704
751
779
803
829
866
916
962
990
990
989
989
988
988
988
988
988
988
988
989
990
936
866
798
733
680
630
556
466
385
333
293
284
301
305
311
303
295
337
371
384
382
386
396
401
415
417
401
373
352
350
380
429
418
383
357
359
367
380
386
391
391
398
396
400
401
402
393
397
399
394
382
381
383
381
387
387
383
382
388
401
411
415
416
412
400
370
391
415
403
400
407
413
423
429
425
441
463
455
428
430
433
431
423
421
424
438
447
441
461
468
445
444
448
442
444
446
430
431
442
452
453
455
460
463
457
454
461
480
479
461
446
456
478
486
476
454
431
453
471
476
476
478
472
472
474
477
475
476
489
484
455
466
494
502
511
520
512
504
509
507
500
505
499
490
497
509
525
519
488
485
497
506
515
515
516
516
523
545
542
519
509
512
507
522
530
548
539
502
507
516
526
531
522
527
546
544
538
533
529
528
528
529
526
521
524
527
525
515
495
505
508
503
508
511
507
501
511
520
512
509
511
524
529
506
488
482
473
457
448
457
474
476
473
473
473
473
478
475
465
465
461
471
468
459
449
463
465
454
482
510
471
435
431
429
429
436
441
427
419
422
427
432
435
447
463
452
440
465
464
445
426
410
408
409
408
405
415
424
427
424
425
429
414
409
404
397
421
444
450
440
431
417
425
440
435
431
420
414
420
422
429
423
429
438
437
436
426
435
444
449
450
448
444
463
463
460
475
460
437
419
448
465
466
461
452
451
453
457
464
466
461
456
459
477
469
439
430
433
443
468
488
493
495
489
473
456
445
454
462
463
471
476
485
492
471
469
461
441
456
472
474
469
476
482
484
475
454
444
450
466
491
484
445
459
499
490
480
477
473
463
456
458
465
481
514
498
459
454
462
452
451
454
472
484
480
480
483
485
491
484
491
490
484
479
471
469
470
475
478
481
480
479
477
479
484
480
478
483
496
495
480
472
468
466
477
490
492
481
475
485
482
479
485
499
512
505
494
477
455
474
494
487
484
480
480
490
503
506
495
488
487
484
475
471
465
469
498
531
510
478
467
474
464
460
