470
456
461
468
479
486
490
489
469
471
489
494
481
475
478
482
479
473
475
484
495
502
504
505
501
486
478
481
486
495
502
502
501
503
507
503
498
504
518
529
528
527
526
527
527
508
505
512
519
526
520
490
483
498
511
512
519
519
515
524
530
533
537
533
519
507
500
499
492
498
494
473
477
486
475
458
464
462
460
470
469
462
455
461
455
447
453
449
449
506
518
481
455
450
429
423
428
431
440
442
444
445
444
450
443
432
456
482
492
477
455
480
457
448
439
433
451
458
454
454
455
457
459
458
457
453
452
453
453
457
454
452
451
453
462
469
465
462
473
473
467
471
462
454
449
452
459
468
460
456
456
457
472
468
457
458
461
452
447
439
430
433
440
455
476
484
493
500
511
527
528
527
548
578
609
637
673
728
765
771
801
854
891
924
966
988
989
989
988
988
988
988
987
987
987
988
989
989
990
961
909
841
756
682
595
486
375
297
251
242
268
289
307
314
316
311
323
331
351
386
395
406
414
401
389
404
400
394
395
388
376
392
394
380
377
380
385
388
394
401
405
398
376
361
360
378
393
385
366
369
384
430
435
382
383
401
399
412
411
410
411
405
393
395
400
403
407
413
422
431
436
440
440
435
440
455
433
408
402
412
419
412
396
419
435
448
463
465
459
450
445
441
436
433
444
457
466
471
485
467
459
466
475
474
463
458
464
441
440
451
452
456
467
466
468
464
466
476
476
473
473
478
479
482
480
481
506
516
507
500
489
488
494
498
496
491
491
493
503
502
506
517
520
519
525
499
490
520
532
527
520
527
529
523
512
523
531
523
516
524
525
514
519
527
526
521
521
529
537
538
552
554
549
550
544
537
528
535
549
561
575
570
571
568
554
563
559
523
490
473
485
509
517
528
524
512
516
525
524
512
487
490
505
506
499
492
488
487
488
493
494
488
513
496
452
454
462
459
449
443
449
456
449
429
432
462
471
467
460
454
451
448
442
440
440
435
429
420
433
441
435
428
434
439
429
422
425
425
423
419
419
433
435
441
437
431
434
423
412
404
403
424
432
433
420
402
397
401
412
430
435
436
435
431
426
448
451
439
429
433
435
433
429
429
425
423
423
424
428
440
445
444
446
456
452
443
448
461
470
475
470
451
438
443
444
442
448
441
446
468
462
439
435
436
436
441
451
461
468
460
477
497
470
447
443
445
457
464
474
485
462
462
480
480
478
469
461
462
466
465
452
452
460
458
457
448
446
472
495
481
468
466
471
471
473
471
469
468
469
468
472
480
492
509
509
488
487
498
479
466
469
472
475
475
474
477
479
479
482
499
508
490
476
474
476
470
468
461
455
444
448
496
506
500
491
478
470
475
483
471
471
475
484
506
512
511
504
503
515
503
481
481
480
485
487
473
476
492
492
492
494
498
505
508
507
508
508
510
511
509
509
510
508
508
514
521
521
516
515
514
511
510
514
513
510
509
507
505
506
506
508
512
511
508
501
496
496
499
498
491
483
481
479
478
471
464
466
462
459
462
469
469
465
463
466
464
463
469
466
458
451
442
425
409
397
396
411
415
406
398
395
394
404
443
489
521
524
507
472
447
423
417
436
453
464
466
463
466
466
461
461
464
476
474
477
494
491
475
478
496
502
488
474
449
428
406
402
411
429
441
452
454
468
508
560
568
565
547
525
519
487
426
361
341
383
430
429
436
426
386
354
373
385
408
445
518
575
593
586
548
493
446
449
492
520
554
633
712
758
799
831
866
866
846
873
935
990
988
987
986
986
987
987
987
987
987
987
988
989
990
933
838
742
673
666
638
549
460
389
325
267
237
240
294
327
337
355
381
410
421
432
426
425
436
462
493
521
522
499
503
453
409
400
397
386
387
406
412
399
395
390
390
378
344
316
309
343
379
398
424
442
450
467
463
457
421
380
344
327
327
329
357
408
478
517
515
494
470
452
416
394
400
412
399
392
416
432
434
450
503
530
533
518
477
388
333
333
370
427
480
509
512
492
481
468
462
473
466
447
419
410
429
438
439
434
412
375
358
380
410
432
429
436
478
506
507
506
472
445
405
372
396
411
392
361
364
370
340
346
377
374
362
386
425
443
445
448
452
447
468
493
504
536
528
531
565
580
574
565
560
562
557
566
566
546
538
551
551
527
533
550
561
559
554
557
575
606
613
617
618
616
599
579
586
568
547
518
513
496
472
490
500
521
548
546
554
579
589
617
640
620
586
552
516
503
500
474
478
535
559
535
533
567
590
570
528
494
491
510
488
460
458
482
491
476
461
448
422
430
468
517
519
495
458
434
446
453
449
440
452
453
452
450
444
427
421
410
383
389
423
441
451
464
463
444
418
410
396
426
477
505
509
489
471
467
471
470
460
478
482
468
437
397
353
345
340
360
385
415
409
369
355
372
395
416
442
460
456
449
459
445
435
442
429
401
417
453
464
442
407
383
363
377
426
491
534
538
534
507
482
429
385
404
414
417
429
418
414
435
440
459
491
519
549
540
513
487
460
444
440
434
415
385
389
411
433
449
456
475
495
525
557
550
500
448
392
361
387
439
451
468
481
483
500
516
521
535
546
551
558
541
497
501
501
483
477
469
445
408
381
406
437
450
448
390
353
356
391
407
406
414
437
468
470
459
462
458
482
524
520
513
527
524
484
463
473
495
527
517
505
510
506
517
526
519
524
527
526
528
520
514
518
529
528
484
423
413
428
438
464
500
525
556
554
544
525
494
462
450
434
444
462
512
566
576
587
562
523
522
543
551
548
560
554
543
520
539
565
555
539
534
515
503
460
418
412
420
458
498
508
491
485
497
522
556
547
501
476
459
473
486
487
503
493
486
499
484
460
461
464
487
496
520
526
536
573
567
531
500
488
464
469
487
506
566
562
507
453
374
338
395
473
523
519
513
491
468
487
482
463
421
382
391
414
396
406
409
418
418
425
471
523
578
597
580
530
496
468
388
334
322
364
412
472
546
583
564
544
502
483
477
485
481
483
496
474
460
478
501
541
523
479
457
422
413
425
415
406
417
448
483
491
494
483
454
478
493
469
427
366
340
335
326
348
393
402
424
447
450
422
407
402
385
345
313
307
332
415
419
391
373
412
470
501
519
534
534
576
655
726
755
758
757
761
811
875
909
956
990
989
989
988
988
988
986
985
983
982
983
983
984
986
986
987
988
989
916
795
698
614
516
382
308
332
338
278
264
270
303
330
304
278
274
289
314
361
405
424
398
336
340
358
382
376
371
367
373
392
399
404
393
333
289
271
259
264
280
302
320
343
379
445
447
405
358
355
344
334
368
376
368
373
354
344
286
233
232
247
316
371
351
324
301
268
273
323
399
453
464
482
535
514
480
454
455
469
441
438
441
435
412
416
445
461
460
452
476
496
506
499
505
527
581
591
606
556
524
462
439
435
412
416
427
446
446
431
421
410
382
391
433
492
548
572
567
527
508
520
537
525
478
465
443
432
440
504
535
536
505
498
490
504
477
488
543
529
527
530
512
484
488
513
497
488
510
540
555
590
594
585
586
555
507
478
453
428
442
476
494
495
511
548
576
560
553
534
553
587
624
613
640
672
629
586
599
569
531
514
494
468
414
444
544
568
521
473
414
390
417
497
567
600
613
647
688
723
710
629
561
544
522
507
525
523
458
392
403
483
494
494
508
539
561
549
583
597
581
582
559
528
483
398
344
319
328
354
403
407
420
414
404
398
410
380
341
326
372
424
444
461
469
467
456
417
408
401
387
404
409
402
376
339
326
343
392
445
472
476
482
470
417
352
358
402
428
455
457
434
425
435
389
344
356
385
360
319
341
341
359
434
514
625
613
525
461
454
452
415
399
396
394
411
456
494
511
519
514
527
542
506
450
407
386
369
416
469
514
463
355
321
335
394
425
448
459
471
502
480
439
411
392
401
435
434
450
505
560
548
459
352
313
329
384
506
625
580
471
406
397
421
469
491
445
435
462
408
409
406
418
443
471
511
499
473
455
481
538
579
506
435
410
410
369
404
459
469
460
471
509
518
531
548
513
468
458
477
473
481
500
472
482
482
478
451
426
433
459
517
596
635
566
465
433
461
499
510
525
556
564
530
500
501
511
504
503
491
456
416
418
444
465
450
464
501
504
483
436
437
463
482
467
432
460
487
508
534
546
543
542
551
570
597
627
658
629
592
582
546
510
487
471
429
412
441
473
480
492
532
533
483
457
441
428
411
415
436
426
417
438
442
428
450
471
477
469
450
435
452
475
476
459
445
452
444
426
415
423
437
424
416
421
417
411
396
411
455
460
459
460
455
443
418
388
373
405
419
395
387
368
359
346
345
362
381
381
400
428
454
482
467
463
447
428
425
441
471
488
479
464
427
427
426
421
410
397
409
434
455
382
343
357
381
416
452
481
480
425
377
399
436
433
435
446
424
400
435
482
479
457
418
370
346
374
427
482
507
513
522
520
544
585
612
643
683
702
739
803
848
876
930
987
990
989
989
989
989
988
987
987
986
986
986
985
986
987
988
989
990
893
788
719
654
592
486
374
316
279
253
262
284
324
376
381
348
363
379
384
356
336
295
310
344
401
436
415
410
403
392
392
379
342
346
384
407
416
397
394
399
390
357
330
341
341
342
361
367
384
419
465
481
505
484
435
422
415
401
392
404
411
418
439
418
376
357
331
311
303
342
378
398
374
375
370
402
409
427
430
409
382
370
375
386
381
381
427
443
447
456
446
421
407
410
434
455
448
420
427
448
460
452
441
451
465
453
454
456
458
449
435
432
450
461
451
457
457
464
481
467
455
468
483
488
485
472
465
468
470
479
489
523
551
583
534
459
443
444
467
472
493
507
505
518
518
512
498
506
504
499
493
494
505
530
542
578
568
584
582
570
579
615
591
542
534
514
518
544
540
523
530
525
544
563
561
566
553
554
544
508
498
506
533
569
578
531
487
516
514
501
493
468
456
474
470
473
473
489
500
512
502
473
475
493
527
515
500
479
470
470
470
465
462
461
488
507
469
457
440
450
472
467
448
445
469
465
451
456
475
481
470
439
443
438
446
427
415
408
408
424
426
424
429
465
503
470
450
444
439
411
416
400
371
377
432
459
441
458
447
433
461
467
422
430
424
410
422
448
456
438
372
289
294
392
431
407
393
426
429
418
434
426
376
381
379
371
377
408
432
440
468
474
428
437
436
428
387
358
376
394
397
424
419
425
411
405
403
418
437
445
449
469
514
496
428
377
372
403
394
375
379
397
445
484
480
487
498
486
476
495
485
438
456
453
450
466
475
493
531
545
543
503
487
416
373
392
411
407
421
426
435
434
488
473
454
442
470
507
538
506
468
438
456
443
443
439
449
469
482
465
452
444
469
464
446
443
459
477
474
466
456
491
527
517
473
456
473
494
485
458
453
484
462
416
428
469
483
477
480
483
499
548
542
534
525
500
487
467
446
440
462
517
506
497
484
483
481
482
476
484
468
493
500
494
454
394
394
439
429
441
460
471
437
422
429
422
425
435
431
431
460
491
455
442
447
421
390
403
421
438
487
497
451
445
468
489
493
500
502
499
504
465
4032
504
515
522
520
507
3
505
505
482
457
455
484
507
526
544
583
573
543
534
536
527
519
506
522
522
502
504
515
522
520
507
489
5
505
482
457
455
484
507
526
544
583
573
543
534
536
527
519
506
522
522
502
504
515
522
520
507
489
475
459
428
397
362
353
358
360
381
418
455
486
498
498
510
534
559
554
536
520
492
451
413
418
427
425
419
406
380
394
441
486
507
515
526
543
527
518
516
511
504
490
487
483
491
506
515
520
530
499
473
479
497
505
501
489
468
446
424
414
416
417
415
402
390
402
441
491
535
552
545
545
549
525
514
522
496
482
462
459
476
514
549
549
513
493
506
524
535
541
552
554
564
567
568
566
554
544
525
504
484
461
437
430
436
456
475
491
497
509
523
540
546
554
561
569
574
580
574
574
555
550
540
532
520
531
542
549
545
534
536
538
540
529
526
531
546
570
599
591
582
608
596
562
535
499
488
501
525
545
538
524
528
533
529
517
516
530
534
548
580
595
577
533
494
483
474
452
429
410
410
415
426
453
485
521
555
562
571
567
566
567
547
517
501
487
491
498
499
499
495
499
495
486
488
495
498
496
497
498
500
485
472
479
501
515
512
497
501
511
509
492
485
493
502
470
430
455
467
477
482
468
444
420
412
415
420
431
443
479
513
544
571
567
550
561
547
533
538
525
500
498
507
531
546
550
531
497
463
454
476
484
477
489
512
545
562
569
565
594
624
651
681
714
739
801
837
817
775
773
824
879
930
962
990
989
989
988
988
987
986
986
986
986
986
987
988
988
989
990
934
874
833
781
712
565
426
345
301
283
285
307
329
355
385
399
397
401
416
421
426
428
423
417
418
445
477
479
454
442
443
452
449
437
443
464
467
452
428
405
378
370
380
395
414
430
443
446
448
461
470
445
430
439
457
475
479
464
461
472
497
500
480
461
451
461
475
470
467
464
453
451
439
452
473
478
477
457
440
465
482
538
562
548
539
507
471
472
473
488
494
500
508
509
529
525
514
518
521
525
548
526
503
499
502
500
495
496
500
509
519
524
523
522
525
538
515
487
481
500
512
510
518
539
539
528
533
544
541
541
537
533
535
540
525
516
524
532
533
536
541
546
557
558
560
557
560
560
585
605
612
603
588
572
564
559
561
568
580
591
594
584
585
583
579
574
575
575
561
546
528
510
511
519
528
536
532
542
552
571
587
581
567
558
552
547
540
537
527
519
530
559
559
545
538
524
520
520
519
520
522
503
471
448
454
470
469
457
454
455
483
506
518
524
515
484
469
471
487
499
493
483
482
484
486
487
482
477
478
482
482
489
493
494
506
499
494
474
466
465
453
460
476
480
476
479
488
482
480
478
478
477
483
492
480
461
458
471
479
488
488
466
473
484
502
508
466
445
456
477
486
491
495
490
489
491
475
471
482
487
489
493
493
482
462
452
465
478
492
493
492
491
502
506
500
502
481
473
481
492
497
486
495
509
517
506
513
511
492
474
474
484
495
502
511
518
515
512
513
507
515
516
515
511
521
534
526
529
533
532
521
496
484
469
461
464
483
503
507
516
527
540
554
537
512
516
533
555
553
546
543
543
554
539
526
530
530
527
528
523
524
525
523
526
529
540
550
555
547
543
538
539
543
549
552
548
547
542
541
547
546
547
557
539
526
527
522
526
546
558
565
571
570
570
559
550
541
550
525
514
517
525
526
524
525
535
531
531
532
520
502
488
481
482
484
485
494
499
500
491
477
471
465
461
467
475
479
479
477
472
464
481
488
487
486
495
498
493
484
483
482
474
472
478
487
489
495
496
484
472
466
463
457
468
479
483
486
488
486
474
467
489
493
474
439
435
449
468
479
491
484
475
474
476
477
473
479
490
505
498
481
466
459
474
491
499
502
485
465
462
469
469
457
448
445
454
461
459
463
471
475
481
500
517
536
549
560
572
593
609
633
665
684
726
771
794
819
870
925
955
981
990
989
989
988
988
987
987
987
987
988
988
989
990
933
853
795
773
734
668
574
474
381
311
273
272
288
302
322
323
324
319
302
316
340
362
376
385
398
409
429
437
433
422
428
441
438
428
426
423
405
398
405
398
402
407
409
423
430
447
454
437
427
427
416
414
413
415
424
434
436
434
433
436
440
450
461
451
452
457
464
470
464
452
457
461
462
459
450
444
445
458
466
466
463
460
457
458
459
460
462
471
473
474
487
499
494
503
498
491
492
495
495
491
489
491
488
487
488
490
489
490
497
508
515
512
507
496
492
492
506
504
497
502
503
497
489
491
499
498
503
510
522
523
529
536
534
532
526
524
533
541
542
537
536
534
533
539
534
533
538
546
558
559
547
547
549
540
543
556
570
565
548
541
543
545
547
554
566
582
577
574
567
558
559
554
567
553
531
536
541
544
544
535
534
533
526
527
528
536
526
525
528
528
522
525
517
521
527
517
506
514
514
513
510
511
512
501
496
499
498
498
503
503
503
500
485
477
469
477
497
470
463
462
454
444
459
469
490
492
471
464
472
476
483
476
470
465
456
463
458
449
441
433
434
443
455
456
454
460
467
460
457
454
450
451
446
438
447
459
462
466
460
456
456
454
452
440
431
444
445
448
458
448
434
428
434
449
450
446
459
467
467
472
474
459
458
442
432
435
443
444
444
444
455
461
463
472
471
465
447
442
454
475
484
475
472
470
469
480
486
484
483
486
488
482
485
484
485
496
507
510
513
502
489
483
482
491
501
492
484
491
491
487
489
497
507
505
499
504
511
513
512
503
493
508
508
503
505
511
511
523
516
516
521
513
514
527
529
534
535
512
493
497
507
516
540
556
511
480
483
490
503
517
541
551
546
543
541
539
535
531
512
507
509
517
522
514
518
526
531
526
532
534
536
540
549
554
540
520
504
495
490
490
491
481
486
506
507
500
496
497
489
481
492
503
479
455
449
461
477
467
463
454
453
458
457
456
474
487
501
519
516
505
492
479
467
462
465
478
481
487
486
482
481
472
467
459
451
446
459
470
479
486
495
491
477
465
462
461
457
454
464
478
470
459
464
463
459
472
487
503
523
507
449
445
468
469
452
455
474
484
484
485
475
466
457
461
471
473
499
507
517
519
515
494
488
504
525
531
539
553
571
600
629
659
695
736
781
803
839
881
914
957
988
990
989
989
989
989
989
988
989
990
953
898
855
805
750
701
678
649
594
522
445
354
290
272
275
287
296
299
303
313
334
351
341
340
350
361
380
404
430
445
454
456
453
445
446
450
443
428
426
436
437
427
422
427
437
455
450
432
441
453
458
471
456
448
449
437
420
406
407
408
420
432
440
446
445
444
449
473
470
466
466
455
456
462
459
463
471
468
472
463
473
478
472
483
503
530
525
477
460
463
469
476
478
478
484
486
482
487
491
467
465
474
480
493
487
484
485
510
523
534
540
515
520
532
538
553
564
555
544
552
543
542
536
536
535
529
522
509
501
503
509
495
495
506
517
503
498
503
508
515
521
528
516
515
522
527
528
517
517
526
530
536
541
541
532
520
524
520
524
528
535
540
551
563
553
550
553
548
540
546
557
564
579
591
562
538
535
534
534
532
528
524
521
529
539
542
538
525
517
523
544
576
573
538
529
524
534
549
554
519
497
505
509
499
489
492
495
497
502
514
513
496
491
497
491
482
490
492
481
482
480
472
472
487
496
483
465
451
442
450
448
448
457
458
456
457
457
448
439
445
447
451
454
451
443
436
432
441
442
456
453
438
432
433
440
460
471
465
441
431
428
426
421
416
420
429
435
451
474
475
468
441
455
440
428
431
439
446
442
435
428
426
423
422
428
437
435
447
435
429
430
430
440
447
448
465
466
449
449
458
464
466
451
440
435
431
440
447
453
457
465
476
471
471
473
476
479
464
454
457
465
479
488
497
501
498
491
497
503
512
497
504
505
486
496
506
513
517
508
496
484
481
471
470
482
495
499
505
508
515
518
516
514
524
514
507
506
504
507
521
520
505
508
514
511
509
508
502
505
506
520
534
520
517
518
525
530
527
524
524
520
521
530
524
512
517
511
508
514
518
513
509
505
517
485
475
481
491
516
521
468
446
451
462
464
461
464
465
459
453
453
458
468
461
457
462
477
482
466
447
452
456
461
456
450
446
445
453
449
452
455
461
453
445
448
450
446
441
436
431
438
453
470
473
479
478
473
467
471
483
482
462
456
457
459
457
461
484
471
450
464
473
476
484
469
446
440
451
480
476
470
470
462
456
465
464
466
469
484
463
451
462
469
474
488
500
514
524
512
517
534
555
567
584
611
647
684
725
759
789
823
854
882
904
920
946
977
990
990
989
989
989
978
909
859
818
783
743
701
660
612
565
518
465
404
331
296
284
280
291
309
336
350
352
355
381
401
376
361
372
395
407
419
436
436
438
459
439
416
416
422
428
434
435
442
449
449
445
437
439
445
447
457
458
437
423
420
419
421
422
432
440
445
453
458
450
461
458
434
429
434
432
440
448
451
453
451
446
453
464
475
484
482
475
474
477
487
479
476
473
476
467
462
451
451
464
471
475
473
466
461
457
465
462
469
482
484
483
483
486
491
505
517
522
514
499
488
474
475
459
461
471
475
481
483
485
488
487
484
484
488
487
500
504
523
535
533
524
520
516
515
531
532
525
499
482
484
487
488
495
500
514
537
535
521
513
509
510
508
515
528
532
520
519
530
527
529
529
524
522
525
522
525
538
554
568
572
555
544
543
524
511
497
500
503
506
510
513
515
512
506
497
487
491
501
507
507
503
513
510
494
503
512
517
506
490
489
491
495
490
486
482
480
475
480
487
480
475
484
492
494
489
483
474
467
465
465
461
455
450
463
470
461
469
470
472
468
454
451
456
467
472
452
456
463
462
476
481
427
400
396
404
419
439
451
455
452
438
435
440
438
440
447
449
458
454
447
451
450
439
440
443
451
458
453
457
478
464
437
429
428
434
429
435
435
439
445
450
458
463
461
456
446
448
451
455
456
460
458
455
449
467
487
451
467
493
488
483
487
487
471
450
444
438
433
437
454
464
469
478
482
485
481
478
476
484
475
462
465
475
478
478
477
481
488
506
517
519
517
521
511
493
485
490
501
490
487
489
492
492
492
500
509
484
471
487
518
538
519
492
502
498
490
490
496
506
510
518
528
528
520
511
507
505
505
499
506
521
531
532
513
516
539
522
495
498
513
518
512
511
500
492
491
491
485
474
468
468
467
469
473
475
478
478
474
474
452
440
430
436
460
480
494
506
497
477
472
488
466
451
460
460
450
436
427
429
440
452
458
458
470
478
465
467
467
471
473
471
465
461
462
453
450
458
463
481
467
451
444
446
457
468
469
468
467
453
434
435
456
465
462
461
470
490
475
466
465
469
494
520
461
424
428
431
436
441
441
437
442
451
459
462
469
481
496
512
525
533
542
561
583
598
618
649
682
718
749
762
786
789
799
839
877
882
902
929
959
973
979
955
906
845
802
764
724
682
647
615
593
572
532
478
414
344
297
284
293
304
323
350
346
352
392
394
373
390
409
423
432
427
434
438
434
432
444
469
464
447
440
451
452
424
407
411
422
412
408
407
418
426
445
439
431
424
415
417
419
426
427
426
424
434
441
444
444
447
444
437
438
453
470
479
481
460
450
447
437
432
449
447
448
436
443
452
462
470
476
486
486
480
474
471
470
464
456
450
443
445
454
455
439
423
433
455
477
468
464
465
464
462
466
471
480
481
470
472
474
465
464
496
510
509
500
502
500
496
499
492
487
466
468
484
490
496
497
502
500
502
502
491
489
493
499
499
490
492
479
486
484
492
501
512
516
525
534
536
532
529
537
535
532
529
532
516
512
502
506
500
500
503
506
504
497
491
490
498
509
513
513
515
510
514
520
526
535
537
530
531
521
494
489
485
481
490
497
499
497
483
474
471
466
451
456
467
482
490
486
481
489
496
487
485
488
479
460
449
456
464
467
459
444
444
433
433
460
485
509
516
494
456
452
454
451
457
455
447
443
450
461
455
450
452
441
434
439
444
450
463
443
427
433
436
431
429
438
458
458
447
447
448
432
436
447
439
433
437
445
449
449
440
433
430
434
452
469
458
448
446
447
446
442
439
434
436
443
452
453
456
456
467
452
420
430
444
449
447
447
447
450
458
472
464
457
458
460
463
464
461
454
457
459
474
480
470
465
468
471
482
507
505
475
463
453
456
463
461
468
485
489
487
484
485
493
494
483
495
520
468
434
439
455
466
473
476
485
495
484
495
508
517
515
503
501
496
501
501
499
503
505
525
525
515
514
512
527
538
503
506
512
512
504
509
509
505
506
514
519
515
505
510
504
517
521
501
486
487
484
483
480
478
475
468
466
463
470
476
473
468
465
454
438
436
442
452
460
456
464
458
466
466
447
451
471
474
472
472
460
453
451
452
454
457
467
474
474
465
460
457
462
466
467
467
462
445
425
421
428
431
462
478
439
440
455
458
445
438
443
458
464
465
463
467
477
459
449
462
469
481
480
467
469
468
459
451
457
455
458
448
430
435
438
444
456
453
437
439
453
465
478
492
520
535
512
511
527
553
603
664
697
707
728
749
770
807
839
883
920
924
935
949
975
990
990
990
984
927
883
826
785
746
712
668
630
593
547
489
425
344
298
280
273
286
297
306
326
345
362
377
396
406
411
421
446
425
411
415
413
421
427
424
432
433
434
433
440
432
429
427
429
434
434
430
426
440
443
430
428
428
431
438
431
439
437
423
425
424
416
413
417
422
427
434
439
444
447
436
426
426
433
433
437
453
447
425
425
436
438
437
437
452
457
449
448
456
450
455
460
463
460
458
464
467
474
463
459
460
450
455
463
494
517
513
507
471
454
458
463
471
466
460
456
463
476
483
488
484
492
484
477
471
475
516
556
510
459
459
468
480
489
489
494
502
507
500
494
495
500
509
514
517
516
514
506
503
508
509
514
518
522
516
517
523
532
520
517
520
530
526
500
501
510
507
500
496
502
504
530
526
505
491
490
490
490
495
496
501
498
495
492
495
505
511
511
492
488
496
495
497
509
488
487
506
509
502
488
480
464
454
462
474
482
483
477
475
472
488
500
467
461
467
457
454
458
456
458
459
457
457
449
448
453
457
459
451
437
434
434
435
443
451
446
441
435
422
419
417
420
416
436
439
447
449
444
437
418
417
429
428
442
461
454
438
426
424
427
427
429
429
425
419
419
435
442
445
458
447
430
435
460
467
449
435
429
436
447
453
453
448
442
442
436
424
436
450
447
442
440
436
446
468
475
476
466
461
455
446
452
441
433
461
487
463
453
460
459
450
447
446
451
450
452
461
480
490
492
490
483
478
479
483
480
472
461
459
468
492
501
492
466
466
470
471
471
471
474
478
485
493
494
489
487
489
491
494
499
501
506
512
502
495
504
522
500
494
487
484
500
516
535
528
513
507
508
511
513
514
515
505
506
508
515
513
506
506
506
493
481
483
482
483
480
461
458
462
463
465
460
448
448
448
451
472
479
441
423
427
445
436
434
437
440
450
470
459
430
431
430
421
430
439
442
444
448
452
451
447
448
449
457
465
458
451
464
476
457
441
439
439
441
440
435
431
438
443
443
435
428
434
439
448
460
467
464
456
456
455
454
446
454
469
450
439
441
453
471
480
478
470
459
437
427
433
454
476
466
436
443
455
478
498
483
477
503
530
557
584
607
638
667
709
740
762
802
846
885
919
957
989
989
989
989
989
990
989
978
930
870
811
757
728
662
592
545
495
445
385
299
236
210
225
254
265
285
306
325
326
337
356
377
389
406
411
417
424
422
427
434
439
430
418
422
415
413
420
429
433
436
437
440
451
443
434
438
436
437
421
415
416
420
429
419
423
428
438
456
446
425
413
410
418
431
443
438
440
443
450
452
446
438
425
420
423
435
447
463
477
452
447
445
442
431
431
449
451
453
472
461
451
450
457
464
466
463
468
475
477
480
480
480
472
481
479
467
473
485
491
499
505
481
478
482
486
482
471
466
467
472
472
474
477
478
485
501
497
497
506
496
492
492
496
508
522
528
531
541
533
517
501
500
494
492
502
500
497
491
495
503
507
509
515
520
503
487
486
500
510
514
527
536
527
511
499
497
497
512
517
520
531
530
512
509
521
518
522
521
509
529
538
508
492
489
491
498
508
499
483
461
458
469
481
493
499
502
498
499
512
497
483
483
500
490
470
465
466
468
469
467
456
446
442
442
441
437
440
447
462
492
463
442
447
446
441
447
457
447
447
444
447
456
450
435
432
432
435
438
436
443
451
436
438
433
417
431
432
420
423
434
427
415
414
417
419
427
430
436
437
440
442
440
426
417
426
438
449
432
420
426
425
419
430
436
451
443
431
419
433
433
420
418
413
417
436
459
463
458
455
450
448
451
464
468
456
449
448
449
451
450
444
443
446
442
434
432
436
439
443
447
450
459
470
486
465
455
458
466
471
468
461
462
465
471
474
474
473
478
489
495
489
496
505
487
481
477
477
471
460
455
469
481
487
487
490
489
490
498
492
493
509
513
523
511
493
506
522
520
513
505
482
473
481
504
505
500
509
514
512
507
505
519
525
527
522
502
483
471
473
479
485
490
465
455
460
457
450
433
427
434
434
436
444
435
432
443
454
473
464
459
439
442
455
452
443
441
437
434
433
434
440
443
446
470
467
442
439
441
438
444
451
455
451
439
433
433
428
431
436
434
437
448
447
445
448
440
440
445
449
449
455
468
459
450
451
459
459
449
440
438
436
437
432
434
443
452
449
445
460
454
430
405
404
412
426
435
445
457
474
493
506
520
530
520
541
564
600
625
652
646
687
747
791
832
860
884
912
950
988
990
989
989
989
989
989
988
947
896
844
783
719
671
624
577
518
457
376
301
247
212
206
224
252
278
298
310
326
334
351
366
374
388
400
408
404
401
406
416
417
422
423
419
423
428
426
430
443
448
428
418
414
414
422
429
422
414
416
418
432
447
437
422
407
409
420
431
434
443
427
420
430
440
437
439
443
447
445
432
425
418
417
424
434
437
440
443
444
448
448
451
452
450
453
462
464
456
448
446
458
471
477
486
485
479
473
480
484
462
463
468
468
468
472
474
505
519
483
463
472
494
496
497
486
464
473
486
492
496
497
494
487
485
486
490
476
483
499
503
501
499
501
502
500
504
506
520
518
527
534
523
523
510
514
515
511
511
508
505
510
513
513
520
526
529
520
517
514
504
500
503
510
517
520
519
516
517
518
511
515
524
535
541
521
509
506
501
504
508
510
511
520
525
501
480
476
475
488
505
525
514
510
494
480
480
486
489
490
497
500
500
504
512
518
495
470
473
480
483
492
516
506
484
467
463
457
455
455
452
459
466
473
471
466
464
469
499
501
479
457
450
447
441
438
437
442
443
443
445
430
425
427
445
442
432
428
429
429
429
430
427
428
427
431
424
412
415
417
420
424
428
428
434
442
455
482
438
407
405
398
402
414
425
440
442
437
435
451
452
447
460
462
449
443
446
448
445
440
437
440
451
453
442
429
430
440
445
437
436
438
439
449
455
452
451
459
465
471
479
486
465
455
458
459
452
452
459
463
472
474
480
487
476
475
494
482
475
477
481
483
487
483
471
466
464
460
466
472
478
492
511
516
488
484
486
490
488
487
490
490
496
508
515
519
514
512
500
498
502
511
526
519
511
506
511
498
495
502
503
506
519
496
486
495
504
507
502
494
491
491
489
488
490
479
470
474
478
476
472
465
461
453
448
441
439
445
442
448
456
453
454
466
473
462
456
454
456
451
451
452
455
467
460
432
437
450
471
466
445
438
439
428
425
434
434
432
439
468
464
434
432
421
418
427
432
437
442
440
442
441
458
463
454
437
432
445
464
443
424
427
433
440
448
459
464
465
459
452
451
447
445
445
444
450
444
434
437
445
442
437
431
430
439
441
453
472
498
509
506
522
547
581
604
623
649
689
731
771
807
842
873
904
938
974
990
989
989
989
988
988
989
989
990
941
889
828
766
712
657
602
538
450
348
262
224
223
222
215
233
234
254
279
301
321
340
354
358
376
393
404
413
414
414
410
411
417
428
420
417
421
414
419
424
422
417
420
415
411
405
405
413
415
419
442
456
437
400
390
397
410
418
422
424
425
440
468
480
441
420
435
428
423
429
424
422
429
426
428
436
444
454
459
456
455
459
468
491
490
469
476
492
481
476
474
484
471
440
436
442
443
445
463
462
456
451
456
465
465
470
469
465
472
477
492
495
492
495
485
482
476
473
477
493
502
504
496
489
492
492
505
526
511
495
505
493
481
480
489
496
500
504
507
512
522
531
527
507
507
510
508
507
512
513
512
513
524
521
518
518
511
508
506
515
521
526
528
537
563
567
531
510
523
530
516
511
521
511
511
516
516
513
524
544
515
501
503
504
505
505
504
499
493
483
496
510
515
529
531
514
490
472
474
490
512
516
510
500
491
486
489
488
486
481
472
471
472
474
473
475
473
476
465
451
462
470
475
485
485
472
464
467
472
461
463
455
461
443
430
428
445
451
453
473
453
434
436
438
433
435
438
437
424
428
434
435
438
437
426
423
428
423
420
422
424
424
423
418
412
415
433
443
441
438
440
435
433
442
462
440
413
424
444
437
444
444
445
436
424
423
433
444
450
455
451
455
445
445
438
444
451
449
449
451
468
474
458
450
461
461
444
436
440
444
453
466
471
473
470
468
465
467
461
466
478
493
471
453
456
476
479
480
481
494
490
492
472
464
463
476
481
481
492
481
489
479
481
491
493
492
495
495
497
504
485
479
475
470
476
487
496
498
496
491
498
504
505
509
499
491
490
498
507
514
517
511
518
525
519
521
528
543
537
518
510
501
498
500
501
498
496
496
492
496
513
525
512
483
468
469
473
467
466
462
455
451
455
458
455
456
461
471
459
439
429
434
437
433
431
453
457
444
440
450
450
446
453
471
464
448
445
446
447
447
448
451
446
449
454
464
456
453
462
454
443
448
451
444
442
452
453
450
455
472
468
444
442
443
440
436
438
436
447
443
433
435
443
460
457
449
445
449
451
443
444
447
447
440
438
432
428
434
444
446
448
453
469
480
504
510
498
501
524
571
619
656
675
702
744
787
837
888
909
932
964
990
989
989
988
988
988
988
988
988
989
969
907
861
818
763
701
642
572
495
377
269
205
181
197
223
245
273
293
307
317
323
327
343
360
371
382
392
392
395
399
401
404
403
400
399
406
410
412
411
414
412
410
412
412
414
418
414
413
402
401
424
417
409
409
399
395
401
407
418
425
423
426
432
443
443
442
448
457
453
446
458
448
451
455
415
419
435
453
452
449
443
434
438
442
448
460
470
473
471
475
476
479
481
490
497
478
458
458
459
456
458
463
469
483
486
473
472
476
469
461
460
467
468
473
479
476
469
468
460
463
470
480
515
511
489
498
521
504
497
501
499
508
510
498
499
506
494
497
502
505
520
531
535
545
525
495
493
501
518
517
512
512
514
512
518
529
536
537
535
533
527
530
538
532
529
534
536
532
534
533
522
509
503
514
528
533
525
513
505
498
496
497
500
502
503
506
511
509
508
508
510
509
506
493
491
494
513
528
538
527
486
486
486
482
478
476
475
488
487
482
494
492
463
461
468
473
464
465
470
461
457
466
474
475
473
465
461
457
455
470
476
480
467
455
453
452
457
481
485
461
440
430
427
425
425
422
436
462
455
439
431
432
431
424
424
432
439
435
435
436
426
421
419
427
440
441
446
467
474
458
442
444
442
452
444
429
428
433
434
430
427
428
427
434
437
441
449
449
441
438
446
450
452
458
457
453
448
443
441
447
432
416
441
460
465
464
462
469
489
496
489
498
484
466
455
436
428
437
443
453
467
483
475
486
484
478
482
473
462
472
474
476
480
475
477
481
490
495
494
496
510
530
526
491
480
482
485
496
506
480
462
466
470
480
477
480
494
506
508
508
506
506
509
507
503
493
492
493
498
502
514
520
510
498
510
522
516
514
522
518
516
518
517
515
517
525
529
528
529
527
535
540
517
498
480
475
490
492
474
456
465
473
462
471
468
466
454
460
458
448
449
457
460
461
455
448
454
455
461
479
459
434
437
444
446
446
448
449
454
467
464
446
429
431
441
450
452
446
439
451
447
440
436
434
448
466
482
484
485
484
469
451
446
448
447
451
450
442
439
443
457
463
466
467
474
477
468
463
462
446
442
438
435
438
442
428
422
435
448
451
456
454
451
456
465
476
482
498
536
547
549
569
591
620
631
678
687
701
751
803
839
865
892
930
973
990
989
989
988
988
988
989
989
990
934
883
844
803
749
682
644
596
500
405
315
259
233
222
231
244
264
280
291
294
307
323
341
365
390
413
424
437
430
435
446
434
432
429
419
412
411
413
415
418
421
428
422
410
406
409
412
413
406
410
411
414
431
444
414
410
413
405
404
410
422
433
442
443
449
448
449
461
460
449
433
435
440
451
453
455
461
472
453
442
444
453
461
472
483
491
471
456
464
464
454
449
461
479
491
496
484
465
458
463
462
466
472
483
492
487
490
495
499
502
503
502
502
489
476
474
476
477
480
479
478
469
458
466
488
496
508
527
525
505
496
507
519
524
523
517
524
517
510
536
519
488
487
498
504
506
505
507
521
517
523
539
553
571
576
550
520
513
516
525
528
518
517
525
524
529
534
540
522
519
529
538
545
524
514
515
522
525
537
551
553
555
556
547
538
534
504
492
497
506
519
519
512
503
512
517
505
493
489
487
490
487
489
491
494
495
496
492
487
482
481
478
475
469
472
472
471
480
490
496
490
488
480
466
462
468
468
464
459
463
475
482
492
479
448
419
413
424
433
437
438
442
438
432
439
443
451
439
439
443
433
451
445
428
425
426
429
430
430
433
443
437
436
437
427
428
432
443
449
444
437
430
432
432
435
437
453
451
447
442
421
421
426
432
432
435
436
442
441
435
433
447
446
439
435
429
433
442
444
452
461
470
475
474
465
452
445
447
449
448
451
465
487
497
504
496
489
472
425
419
435
455
452
450
450
455
459
457
463
475
489
495
497
499
502
498
501
490
478
494
494
492
501
494
496
500
500
495
499
505
504
508
510
500
496
494
490
490
493
500
502
503
503
497
501
501
502
506
508
509
501
502
505
502
500
505
514
516
522
511
502
506
513
515
517
531
526
514
503
494
485
485
486
483
482
481
485
488
494
497
493
471
460
449
426
435
445
445
481
457
431
443
455
465
466
461
455
451
456
477
479
453
444
452
454
450
456
462
459
457
464
472
464
460
463
463
458
452
449
445
444
447
455
455
451
441
438
444
436
443
456
471
471
466
456
457
454
451
455
459
470
467
464
466
473
466
450
442
450
460
457
455
444
435
446
454
453
456
471
465
440
439
455
473
497
523
539
549
592
633
609
590
613
669
730
785
830
842
870
906
936
955
984
990
989
989
989
989
989
989
990
915
872
820
771
725
672
621
572
510
440
350
275
248
247
254
259
269
283
302
321
336
350
355
354
358
367
384
398
407
402
393
390
402
402
407
417
425
435
439
439
436
438
453
466
430
420
415
413
424
434
439
455
455
440
428
423
419
425
419
421
439
456
453
445
471
480
458
437
432
432
441
449
448
456
478
459
445
443
450
451
460
469
466
448
438
444
457
459
459
468
465
456
444
450
463
476
489
498
492
478
484
484
476
474
464
455
461
472
479
483
489
492
493
494
494
494
495
496
492
485
490
500
506
505
504
504
509
511
516
516
521
522
525
525
523
521
524
529
532
522
519
513
510
519
521
536
552
535
505
513
524
531
545
545
551
537
517
529
551
564
563
554
541
530
527
540
552
556
542
530
531
524
517
521
531
534
536
550
543
549
566
552
532
523
512
515
519
519
515
513
507
507
511
505
502
503
506
505
505
508
511
498
488
494
495
500
513
518
517
511
493
497
489
482
486
500
512
491
465
464
466
468
478
471
459
472
474
465
458
459
462
452
438
441
440
427
422
438
451
457
456
447
438
434
439
446
448
441
456
458
442
425
413
422
433
441
437
435
434
431
432
437
451
446
437
436
431
429
425
428
423
418
417
434
434
432
419
411
407
414
423
429
441
450
455
463
461
449
443
446
453
459
463
447
444
456
460
450
452
440
423
415
420
437
453
458
467
479
474
465
471
482
471
454
450
461
466
463
458
459
461
458
455
453
452
453
463
475
478
476
478
483
482
481
478
489
485
461
465
475
482
495
504
512
515
498
483
490
494
494
488
487
489
492
489
484
489
491
499
507
510
517
517
517
521
516
504
500
484
480
485
493
499
504
508
514
525
528
510
504
508
511
502
492
487
497
509
515
516
513
493
483
484
488
491
487
488
492
496
503
499
496
493
488
481
476
474
474
461
444
439
445
452
446
453
455
441
441
453
460
460
471
471
455
443
448
456
459
455
451
454
461
463
464
464
466
458
454
459
464
466
467
464
452
447
451
458
461
464
471
460
449
453
453
444
445
450
459
471
495
492
457
440
430
459
448
412
425
435
454
463
457
456
452
444
444
448
455
462
467
474
472
461
457
456
467
478
481
481
489
501
515
534
556
577
603
633
658
686
724
761
809
856
871
894
924
954
965
977
990
989
989
989
989
990
960
898
845
797
769
710
656
613
563
504
430
343
278
246
233
244
263
272
285
302
292
306
323
324
337
350
368
384
409
435
431
437
436
420
427
442
429
429
429
415
410
415
420
424
422
417
417
423
431
427
414
412
414
425
437
424
426
426
422
426
431
428
421
437
435
438
441
445
447
450
455
482
471
462
446
428
424
420
423
426
438
447
454
464
470
481
485
486
473
460
461
454
449
463
477
466
458
460
466
469
463
464
473
483
481
474
467
473
488
484
489
492
479
470
476
481
497
515
503
493
493
491
482
491
498
500
497
497
492
505
517
509
508
511
498
492
493
499
505
509
512
515
512
518
529
528
530
542
540
531
516
503
498
515
533
526
514
511
534
544
546
547
541
532
526
521
517
515
519
529
540
537
539
548
543
559
567
532
508
527
532
518
517
514
516
507
507
508
516
521
515
512
509
501
505
508
501
495
498
498
496
498
496
504
508
502
496
497
506
511
504
489
483
480
476
470
464
461
463
459
459
460
461
459
456
457
457
452
446
441
449
454
457
465
466
466
459
452
448
445
452
469
466
471
455
454
442
438
418
406
414
424
435
444
427
424
432
432
426
423
428
434
427
415
434
440
427
424
418
416
425
435
435
421
432
437
419
421
437
429
428
431
432
430
431
433
435
439
439
439
439
441
437
441
446
447
443
440
437
437
447
457
464
461
457
456
445
432
438
450
460
459
453
448
452
465
467
479
490
488
455
449
436
433
442
450
458
461
468
482
487
484
475
473
467
472
462
452
449
459
466
467
465
462
465
474
487
510
511
475
472
484
484
486
496
500
504
505
504
502
497
484
475
471
475
485
490
493
497
502
507
513
496
482
488
495
502
505
503
506
509
505
500
501
497
492
496
505
509
513
523
531
530
523
527
524
533
522
515
511
495
481
480
487
475
462
468
487
487
479
477
468
459
454
463
486
466
440
442
447
451
453
457
445
444
452
455
456
471
471
446
453
453
432
432
442
446
451
439
439
447
453
457
461
463
459
458
444
436
429
424
428
440
453
462
464
459
455
456
457
455
457
460
433
411
417
433
452
454
455
456
456
455
455
449
449
450
453
449
439
432
433
430
429
433
442
459
452
449
455
470
489
486
484
488
505
529
555
587
574
584
614
646
681
712
749
789
833
869
880
906
944
985
990
989
989
989
988
988
989
989
986
930
886
809
756
713
660
621
568
480
387
293
240
236
246
259
271
287
294
319
331
342
347
359
371
386
410
409
403
403
401
403
404
395
388
386
379
378
384
396
401
408
430
428
419
424
425
422
414
398
402
409
398
411
419
405
415
434
444
453
434
416
415
419
421
414
406
403
401
404
403
408
415
436
447
432
428
436
443
446
445
441
458
459
446
449
450
448
450
450
455
454
448
454
445
454
464
465
479
473
460
460
464
461
458
459
460
459
456
454
451
447
445
468
484
483
489
482
487
490
489
507
501
487
480
477
481
489
500
505
505
492
491
498
499
497
495
496
508
514
515
504
505
515
509
500
502
504
514
509
508
508
507
508
511
515
512
514
513
512
522
530
520
519
523
527
525
539
536
523
523
525
531
543
543
519
504
486
493
501
504
510
520
518
523
526
524
518
512
511
505
501
497
500
496
497
496
496
489
480
492
476
471
480
483
463
477
504
528
504
483
478
472
467
467
467
461
451
449
463
470
441
441
441
441
441
435
439
445
445
446
448
452
453
453
448
443
442
449
469
451
429
437
427
431
436
433
438
441
446
451
453
434
420
419
426
436
436
442
440
431
424
429
439
441
427
418
419
425
436
441
438
435
431
427
427
437
438
435
423
413
423
434
446
444
448
460
458
447
439
442
447
449
453
449
448
450
461
480
453
442
453
476
498
477
463
445
446
440
431
439
446
450
452
455
454
451
460
458
454
456
468
486
472
469
476
468
479
488
458
440
448
457
463
475
479
477
464
455
462
467
463
464
467
465
468
479
479
474
478
479
471
472
475
465
456
460
486
498
492
479
472
467
464
470
474
481
502
502
494
491
500
500
476
472
476
482
485
483
479
489
500
498
493
488
490
492
494
499
506
515
518
522
515
505
506
504
503
504
508
513
516
510
514
507
492
506
516
520
528
533
499
499
514
513
519
513
505
503
501
497
499
503
503
491
491
485
494
482
461
461
471
463
450
443
438
438
444
456
463
465
463
460
458
456
448
435
433
439
445
449
449
452
456
470
483
472
439
435
449
459
458
456
458
460
465
463
467
472
454
440
445
455
442
440
447
459
461
455
457
452
454
461
463
460
451
449
453
455
458
457
433
427
433
441
449
458
466
461
448
454
460
452
446
443
443
440
447
461
449
447
466
493
526
540
559
557
563
583
606
640
676
707
737
784
822
841
879
913
953
990
990
990
989
988
988
988
988
988
989
989
989
959
900
841
786
711
647
588
518
421
322
267
243
235
239
258
281
300
315
319
331
354
379
376
387
402
395
394
398
405
407
390
379
375
387
403
410
414
407
397
398
403
414
384
368
377
383
366
362
378
386
396
401
402
402
405
406
400
401
400
400
402
410
423
423
423
425
425
422
425
430
433
434
437
437
435
438
442
448
462
460
446
438
446
451
432
427
416
414
425
432
434
437
437
434
440
449
457
470
480
465
456
460
468
466
454
450
451
456
463
465
467
473
478
486
480
468
469
482
488
497
508
487
468
471
474
477
482
485
476
496
508
494
489
485
485
482
479
483
494
495
503
511
512
513
515
517
523
524
513
507
508
507
505
511
517
500
502
519
523
526
545
552
537
532
528
529
525
531
531
527
512
515
520
517
509
504
506
507
512
514
510
523
519
516
510
505
505
505
501
502
509
508
509
511
497
469
468
466
471
483
498
498
491
486
479
474
470
465
467
463
460
469
479
475
470
474
466
460
463
462
459
456
461
464
463
468
467
465
460
461
455
443
438
429
428
422
423
433
443
445
466
476
446
420
423
449
459
432
417
416
413
414
419
426
434
439
446
441
442
442
437
440
440
446
445
440
442
443
444
448
449
440
437
441
427
425
438
449
446
443
438
432
422
419
434
452
451
463
460
447
450
453
455
441
442
449
460
465
465
468
471
478
500
488
467
461
464
453
413
405
421
440
450
454
456
455
450
446
448
451
462
478
486
487
484
484
479
469
463
462
472
465
453
459
465
468
464
459
462
471
479
492
493
470
469
478
484
493
493
482
476
471
465
461
466
474
472
464
464
463
459
465
478
493
484
480
472
465
468
472
475
476
478
480
477
471
468
473
486
501
509
500
473
468
470
472
481
492
487
489
486
485
496
493
479
483
493
500
495
484
503
504
459
446
452
459
464
468
479
502
518
521
521
509
512
511
512
515
514
509
502
509
510
515
520
518
521
524
517
513
516
523
528
528
524
521
527
517
514
515
513
510
509
501
506
495
480
481
489
493
485
480
492
487
476
460
454
452
454
462
463
463
471
466
452
454
459
465
467
485
467
453
443
434
440
449
451
445
447
446
440
452
458
469
481
465
442
447
457
466
472
475
466
465
464
458
463
473
480
480
466
438
423
427
428
430
442
441
444
462
470
473
471
470
471
486
486
467
455
450
451
449
456
456
455
457
450
436
429
427
429
436
446
455
462
475
485
491
507
525
539
554
578
604
641
693
691
718
771
782
806
847
893
935
969
990
989
989
989
988
988
988
987
987
987
988
989
990
950
875
808
747
680
610
528
432
345
287
254
238
247
256
277
306
323
333
345
341
336
354
366
375
391
397
394
384
376
372
373
375
383
395
404
407
413
421
419
413
399
384
379
372
372
378
384
388
392
398
405
402
396
396
407
416
403
406
406
404
400
398
406
431
460
447
430
425
412
413
421
431
429
430
421
418
415
415
416
424
429
438
446
450
459
495
476
443
429
411
416
431
443
456
471
480
475
473
449
447
456
458
454
457
462
464
457
450
456
464
464
463
472
473
481
473
469
470
474
481
483
496
496
484
474
475
477
477
480
491
505
518
516
517
526
522
526
509
492
486
486
491
493
491
486
484
484
485
487
497
508
510
512
524
529
527
531
535
525
521
527
536
544
552
552
522
519
526
532
530
536
522
512
513
520
534
524
514
518
538
529
513
496
488
488
477
477
493
521
532
518
510
512
514
508
512
511
496
485
490
496
474
481
483
480
479
473
469
474
477
478
470
460
464
476
482
470
472
481
472
449
431
430
430
432
437
439
443
442
447
459
473
461
446
460
454
429
423
428
440
447
445
443
438
432
435
447
468
462
454
447
440
436
431
425
427
426
432
438
434
431
430
437
440
449
456
453
452
451
449
449
447
448
453
456
467
460
444
437
428
429
448
435
427
429
432
447
442
449
442
449
467
454
440
440
452
458
449
445
440
442
450
462
461
457
453
455
464
460
460
477
467
466
470
471
466
463
464
490
490
452
441
457
468
467
458
458
454
457
461
454
461
469
476
472
468
468
472
488
487
490
482
480
484
489
489
488
486
489
494
482
464
461
459
467
474
464
454
456
453
455
460
466
466
465
479
472
465
471
485
490
498
486
455
457
472
483
486
493
499
483
469
468
466
464
462
465
467
471
481
483
482
482
475
465
467
476
482
478
475
475
472
468
470
475
476
479
474
483
494
471
464
476
472
470
470
475
481
485
467
452
467
483
489
471
464
460
460
465
467
476
492
486
473
476
480
481
481
488
495
500
509
522
515
486
465
461
459
460
461
472
492
479
470
481
476
470
472
478
494
496
471
468
476
484
494
491
482
475
470
479
484
479
472
470
466
468
472
481
485
481
480
479
480
482
489
495
499
499
512
509
497
507
518
521
505
502
507
508
504
501
512
524
533
532
531
536
539
533
527
524
535
539
528
521
521
521
517
521
539
540
522
505
488
481
479
487
483
480
495
505
500
500
509
504
489
495
472
445
447
458
458
460
468
468
465
461
452
447
442
438
442
453
466
474
462
450
458
474
481
477
474
462
449
448
448
448
462
468
458
451
455
462
469
470
471
467
467
467
462
471
490
462
435
446
446
454
459
453
476
473
446
442
455
461
462
469
468
468
467
455
452
454
452
452
453
453
449
441
430
427
437
440
441
452
472
488
504
532
548
566
589
612
609
625
669
712
750
790
829
874
917
954
987
990
990
989
988
988
987
987
987
987
987
987
988
989
989
977
899
815
730
648
565
460
365
307
277
253
257
259
274
308
319
342
355
328
335
366
382
396
399
385
412
416
365
352
354
355
358
370
382
392
396
400
386
380
386
378
374
379
389
397
392
389
392
397
403
403
407
396
399
400
390
392
412
412
404
402
404
411
406
397
399
406
419
428
422
418
422
420
423
426
431
434
435
443
450
452
451
447
442
431
430
426
437
436
434
428
426
428
432
439
450
455
460
461
461
479
465
448
454
465
469
467
460
467
484
467
450
453
454
468
486
471
483
482
482
485
481
478
511
499
482
469
461
469
482
493
493
489
489
494
501
503
499
496
494
492
495
493
497
510
525
521
502
505
500
503
510
515
522
524
521
517
503
490
499
506
517
534
539
546
536
523
519
527
516
508
512
518
524
527
528
530
528
520
520
523
526
531
545
544
505
492
501
511
514
512
520
507
496
477
471
475
484
493
493
486
488
488
485
483
479
474
470
478
487
487
478
480
494
498
476
474
476
471
457
456
448
444
455
461
455
441
446
441
442
452
465
467
468
473
466
465
459
453
443
440
444
451
451
455
450
439
428
432
439
454
459
450
452
459
459
443
426
415
429
454
466
458
440
435
432
439
430
432
440
441
435
428
438
465
462
444
439
439
446
450
449
449
454
458
450
430
418
429
434
437
444
444
442
447
454
459
463
462
456
447
449
454
456
463
463
462
460
464
464
465
458
458
466
469
473
464
458
460
452
450
458
468
473
472
473
474
475
472
463
468
458
449
451
456
462
464
469
479
482
486
480
478
484
488
507
508
462
446
452
463
465
475
477
473
468
469
477
477
473
474
478
487
490
488
483
482
484
485
481
479
484
488
505
493
456
451
460
479
489
478
468
475
480
477
468
461
461
459
461
462
460
457
456
456
467
477
488
504
487
456
447
448
466
476
486
482
480
479
472
477
476
482
484
493
497
481
486
493
500
487
458
462
476
483
487
466
462
463
471
480
469
456
461
466
466
465
467
470
477
493
498
500
499
495
492
494
492
494
493
494
492
470
464
465
467
470
473
488
477
459
459
460
467
484
497
502
492
474
466
460
459
461
464
462
467
467
466
473
479
476
472
477
488
496
467
449
459
467
477
477
467
467
469
469
477
492
488
490
509
532
512
470
463
475
494
502
500
493
479
470
475
483
482
478
477
483
481
482
487
491
497
502
508
510
508
509
508
510
514
524
533
539
539
540
537
533
525
517
514
509
502
503
509
516
520
522
528
532
529
522
517
508
508
526
522
518
526
523
502
480
487
491
506
520
534
527
508
493
479
465
455
454
452
449
454
461
462
461
468
473
450
452
454
455
463
460
467
464
464
461
461
468
470
461
459
462
469
473
491
490
463
465
468
445
440
454
461
463
467
471
462
463
465
470
476
471
457
448
446
449
446
449
466
481
470
455
448
452
457
458
451
455
455
458
466
465
458
463
455
455
450
437
430
425
427
441
458
466
478
496
517
532
548
565
585
611
659
698
715
741
778
809
850
887
927
957
990
990
989
988
988
987
987
987
987
987
987
987
988
988
989
990
879
767
687
618
537
424
321
259
225
224
246
268
290
301
304
313
324
338
352
366
367
370
383
394
396
382
377
380
360
357
374
380
380
382
387
383
399
395
377
374
375
379
387
383
374
371
378
383
387
398
411
418
419
419
431
435
406
389
399
418
412
410
416
422
434
444
437
437
423
406
408
418
429
431
422
420
422
431
432
426
431
453
475
449
433
433
433
436
450
453
440
441
446
455
461
452
455
460
464
457
460
466
466
464
465
464
454
449
446
455
473
500
509
507
498
480
468
468
471
473
489
480
475
473
470
471
483
502
508
499
495
498
502
504
509
513
519
519
527
542
557
520
480
469
480
499
522
516
506
496
496
503
498
514
515
524
511
496
506
517
526
529
531
534
535
534
535
530
525
527
527
520
520
534
547
545
530
521
523
536
535
525
510
498
494
493
511
524
525
516
510
506
507
515
514
502
499
499
490
485
481
474
470
472
477
480
473
465
475
493
482
466
459
459
456
445
443
445
452
459
451
450
447
450
453
461
459
457
457
448
448
441
443
449
445
441
432
428
427
429
432
420
416
429
445
455
459
446
449
455
464
457
432
432
432
437
441
438
450
453
440
435
429
425
418
426
436
442
444
445
448
449
450
444
431
427
421
433
444
437
436
437
440
441
442
442
442
443
450
447
450
444
444
446
440
435
434
441
451
469
473
459
460
459
452
439
449
460
466
470
471
468
461
456
455
459
464
454
445
454
470
479
481
480
493
496
476
462
469
439
439
454
439
438
450
460
465
470
468
472
474
479
484
479
478
478
475
476
482
489
487
482
479
480
484
487
495
508
488
470
468
468
460
462
465
467
465
465
470
478
487
488
481
475
474
476
481
479
482
495
492
482
467
470
469
467
474
476
473
475
475
474
475
469
467
482
505
491
483
489
493
489
486
484
482
470
472
486
473
484
479
460
468
472
480
490
489
479
472
471
487
479
476
488
475
466
467
479
490
479
468
462
464
454
448
456
475
486
486
487
484
481
477
478
476
475
476
478
475
471
466
468
473
477
485
491
494
493
488
480
485
478
467
461
459
457
466
470
475
479
481
487
480
464
460
469
477
483
496
507
495
482
483
478
471
476
485
482
473
482
485
482
507
507
480
456
454
469
478
486
498
511
496
484
483
490
487
475
481
498
503
500
491
484
479
469
464
469
481
498
494
482
473
467
479
502
518
512
503
501
499
502
506
517
524
528
532
536
539
546
547
547
540
528
511
511
512
501
505
515
522
527
531
536
531
514
508
511
512
519
523
518
504
491
484
495
495
497
496
489
483
479
485
475
466
468
471
468
464
460
470
478
449
443
445
447
453
469
485
465
445
446
453
456
466
475
480
476
480
489
481
463
470
470
454
444
444
452
461
466
463
461
463
474
474
465
463
455
448
454
459
458
453
449
458
464
466
477
468
462
467
475
475
472
470
469
465
468
472
476
482
477
460
457
443
440
441
442
454
469
477
495
514
520
528
541
560
577
600
638
677
700
721
750
800
856
876
913
940
971
990
990
989
988
988
987
987
987
987
987
987
989
989
990
923
841
754
682
614
527
429
346
296
253
245
251
265
286
300
313
328
332
338
345
355
359
371
387
392
389
384
380
380
381
369
368
382
392
404
415
402
387
384
377
381
386
398
399
410
406
387
396
407
407
407
404
400
400
408
405
396
398
395
399
413
430
415
409
401
393
396
400
396
393
413
430
428
435
448
468
472
442
438
443
438
442
442
446
455
458
457
462
459
454
463
459
442
441
457
468
475
481
485
482
480
471
460
456
461
460
465
469
476
486
490
487
476
470
475
477
478
475
467
471
477
485
491
499
493
492
491
496
492
487
491
485
486
486
492
494
488
482
475
476
488
512
533
533
543
563
559
551
535
521
518
532
532
515
535
546
538
535
504
505
522
534
531
528
522
523
525
531
536
544
549
566
569
556
549
549
553
548
562
550
529
518
514
520
513
500
512
513
503
513
509
500
493
497
500
505
508
508
511
507
512
519
526
523
507
482
476
470
458
455
457
456
455
463
470
481
480
458
441
438
444
444
452
452
459
467
468
472
465
455
449
444
442
445
451
471
464
448
448
447
446
443
434
422
424
427
424
424
421
426
437
446
451
442
441
439
437
442
440
445
432
412
413
422
426
429
436
438
436
431
430
429
431
434
434
429
430
436
440
436
437
443
434
431
422
418
401
392
408
426
447
460
466
461
452
453
454
438
437
437
441
440
458
469
460
455
446
445
447
447
448
455
456
459
458
447
443
442
447
462
477
489
496
492
475
466
484
484
466
467
459
460
456
450
449
453
466
467
468
474
470
465
458
455
460
468
493
473
458
473
478
479
482
476
467
464
480
486
464
456
458
463
465
478
484
488
503
509
472
457
467
481
491
484
480
470
470
472
477
482
488
484
469
460
467
477
484
481
479
482
492
510
504
478
472
468
471
481
491
488
484
478
470
472
479
481
483
482
475
489
495
477
474
475
477
480
478
483
481
471
474
486
478
478
492
480
466
461
469
471
467
462
460
461
459
473
473
474
475
470
464
464
472
488
500
509
486
475
480
489
491
488
488
482
492
498
470
469
489
485
466
470
481
479
476
476
478
480
478
477
483
491
502
496
489
497
495
484
488
497
496
485
480
482
485
488
486
486
494
480
486
499
499
489
494
511
516
517
515
529
546
543
529
527
511
501
491
497
510
505
507
508
515
518
519
511
515
523
526
533
533
527
519
530
518
504
503
517
515
509
514
516
517
514
507
507
502
499
488
487
493
488
467
470
480
466
465
472
458
448
444
449
454
468
477
467
462
466
462
464
465
466
466
464
465
472
467
463
462
465
475
470
463
468
463
459
471
466
471
466
438
430
437
439
440
448
463
464
462
465
471
474
474
471
469
474
483
476
461
457
460
481
492
482
467
456
465
467
463
456
456
454
450
454
455
463
467
469
470
475
489
497
508
531
554
569
592
618
638
673
704
713
729
771
820
869
907
940
963
984
990
989
989
988
988
988
988
988
988
989
989
990
941
872
798
725
661
600
520
424
343
290
265
249
234
252
282
295
319
340
345
354
358
353
342
340
375
381
366
365
376
380
391
396
398
402
413
433
431
422
411
411
411
416
419
423
418
412
406
406
402
404
407
404
401
402
414
429
442
427
399
390
405
411
416
417
426
438
442
446
435
424
423
424
443
463
451
446
434
437
445
447
449
446
450
458
461
466
463
461
466
475
470
464
461
460
481
509
459
422
439
453
441
441
459
474
489
492
498
493
493
500
494
491
482
491
496
495
496
506
514
514
514
512
501
503
489
485
488
494
499
507
515
513
516
507
504
509
509
511
509
513
521
534
541
545
543
542
555
550
542
533
518
514
510
510
508
511
512
520
539
561
568
565
564
564
564
562
562
573
579
550
532
542
557
564
552
548
548
545
547
542
534
530
537
538
549
565
569
563
546
532
538
541
533
537
529
521
526
525
508
502
512
515
497
490
492
497
497
496
496
485
469
472
477
478
478
481
488
485
470
462
456
461
478
489
470
449
431
436
452
455
443
430
425
423
427
434
434
438
446
445
429
410
399
403
416
443
440
424
422
426
447
431
405
415
420
443
453
425
411
411
419
423
414
415
413
415
410
418
425
405
409
421
426
424
429
432
423
426
426
429
439
449
448
440
433
422
411
413
416
420
429
434
433
436
436
441
447
449
453
465
466
442
429
426
425
422
427
434
429
430
438
452
469
477
470
451
440
430
424
429
440
445
453
459
461
453
453
469
460
450
459
480
474
472
465
447
440
440
451
464
469
471
476
478
480
471
472
477
469
472
480
478
478
479
484
472
464
470
474
475
472
462
464
472
484
492
494
495
495
498
497
498
482
479
492
489
480
490
479
439
440
448
447
450
462
482
506
496
478
478
486
487
483
475
466
475
467
455
464
477
489
485
479
476
474
471
475
498
505
465
450
457
481
465
458
464
478
491
515
517
494
499
508
507
496
485
473
466
477
490
494
486
480
479
482
487
486
485
484
483
485
495
501
501
496
487
489
499
515
535
545
532
521
510
507
514
516
522
517
513
505
502
510
524
503
470
474
488
498
509
511
513
522
523
525
529
520
504
508
510
505
503
508
506
484
483
496
510
513
510
496
485
488
479
457
456
456
454
457
464
468
464
461
458
459
469
475
463
467
464
464
478
476
463
470
466
445
430
441
452
459
464
481
481
481
471
457
450
458
466
468
464
466
468
469
475
488
471
453
447
444
440
449
457
452
448
451
464
451
439
448
458
459
456
448
453
460
464
463
464
462
467
476
469
470
471
476
474
460
445
446
458
462
467
478
457
465
494
508
514
522
540
556
567
588
620
679
681
691
732
786
838
858
890
922
945
969
990
989
989
989
988
988
988
988
989
990
959
921
863
779
707
654
611
553
479
394
323
276
257
258
273
292
305
318
320
325
328
333
342
348
342
355
369
380
395
406
405
405
403
402
400
411
400
399
415
435
420
412
414
417
418
418
408
397
385
380
378
381
383
390
412
435
442
426
428
432
425
422
415
425
432
437
442
438
440
445
454
446
435
447
449
442
445
443
439
441
438
442
437
439
445
452
458
472
478
463
461
469
456
453
463
470
467
467
474
477
482
481
473
468
475
481
474
459
462
471
477
477
485
498
497
489
490
496
504
511
508
507
500
494
488
475
476
489
501
510
507
496
498
505
522
532
526
521
519
537
565
519
475
478
495
505
511
512
513
517
526
534
540
544
550
559
540
539
546
553
560
558
553
543
537
541
545
547
555
571
593
562
532
521
521
535
550
545
540
544
546
545
540
540
536
530
521
518
529
539
539
526
536
541
518
516
517
514
520
526
528
521
504
500
502
500
489
497
505
496
492
497
492
492
500
487
460
458
465
467
467
459
452
455
456
434
422
422
427
438
442
440
441
440
443
450
459
446
429
417
409
415
424
423
425
430
438
436
430
429
420
419
435
427
407
406
410
410
410
405
407
419
439
432
428
410
414
423
429
445
454
449
448
443
436
432
441
438
414
396
398
413
425
434
438
436
432
434
437
438
440
438
433
431
436
444
439
438
440
437
447
455
451
445
442
441
439
440
442
442
450
456
479
473
449
453
448
435
424
422
431
443
448
452
455
453
453
456
460
462
459
458
462
465
468
463
459
444
442
447
458
465
473
480
486
492
487
473
466
461
462
472
482
469
458
460
461
468
476
497
494
454
444
467
484
487
485
480
475
477
482
482
480
482
478
468
463
463
473
473
476
481
484
481
482
483
468
469
474
478
477
478
480
480
483
495
493
479
476
470
458
475
462
441
460
469
471
475
478
490
497
495
490
488
485
475
470
481
484
481
481
482
488
493
491
496
493
484
476
479
481
485
486
483
482
486
479
479
493
498
504
501
488
482
480
481
490
496
497
503
500
499
496
498
505
511
522
524
504
498
508
514
513
513
511
535
528
496
498
500
510
511
506
510
514
522
531
532
529
528
531
519
501
489
482
493
501
491
478
478
488
487
486
474
450
450
452
453
451
450
450
451
448
452
453
459
465
470
464
464
473
473
460
449
452
444
432
425
428
442
467
474
470
467
453
458
471
470
457
450
457
466
464
460
457
453
453
460
464
461
459
465
459
441
450
469
459
454
452
453
455
455
459
461
463
464
469
467
461
470
492
476
439
442
450
455
456
453
439
442
450
446
447
442
451
471
493
518
534
546
561
580
604
632
667
703
742
771
810
861
910
926
962
990
989
989
989
988
988
987
987
987
987
987
988
989
989
989
907
826
751
686
610
523
428
339
290
251
245
261
279
300
315
330
344
352
356
377
384
369
367
377
378
382
386
379
368
362
365
380
388
390
389
390
392
390
383
371
365
366
372
388
386
399
411
417
418
395
392
394
401
394
397
411
426
410
381
381
386
396
400
400
407
411
413
404
401
404
413
421
424
436
444
435
425
422
417
408
412
422
428
427
427
434
433
439
442
442
451
453
453
447
446
449
453
459
466
460
457
462
467
473
484
491
477
453
445
445
457
466
478
481
477
471
468
476
482
482
483
483
477
474
483
490
487
489
491
489
492
496
512
522
504
495
496
489
472
460
468
483
491
503
510
511
522
520
543
527
517
520
521
520
524
538
532
516
517
523
540
544
524
512
517
528
533
537
533
523
517
528
551
532
516
515
530
534
534
531
522
519
515
511
515
521
526
530
528
526
524
516
509
500
504
511
511
512
519
509
495
495
494
486
485
485
485
483
477
466
464
467
472
472
470
466
457
445
439
447
451
451
455
460
451
432
434
441
445
447
442
448
458
436
404
415
427
436
422
418
429
418
418
425
412
411
418
423
422
429
437
454
463
461
444
420
427
433
433
431
429
429
431
435
441
435
426
427
434
434
436
438
432
428
433
441
445
456
443
428
431
436
434
433
434
443
441
442
447
447
449
440
433
432
437
444
448
458
464
458
450
453
462
464
463
462
459
456
460
465
465
467
473
476
472
464
462
451
448
435
438
459
458
450
445
445
459
464
451
447
462
465
459
477
477
468
470
483
478
461
471
478
474
464
461
466
470
461
480
488
472
452
455
464
472
477
472
472
482
497
485
467
470
483
487
488
492
497
482
475
469
464
457
456
466
475
486
496
496
494
497
479
468
477
485
491
487
473
464
457
459
460
461
461
463
462
466
470
470
473
465
465
466
472
487
498
500
489
479
478
487
491
495
490
477
468
462
462
467
473
484
475
486
506
492
461
461
461
476
484
488
494
495
478
463
463
471
478
485
494
496
501
503
497
487
494
497
489
488
489
486
486
484
486
496
499
491
489
483
482
494
502
507
510
506
496
492
502
516
528
528
529
521
535
529
516
511
501
504
515
520
515
505
507
513
521
530
535
527
520
513
511
510
510
500
507
500
496
472
466
476
492
498
495
488
476
464
454
446
448
456
463
475
474
480
483
482
480
453
455
462
468
467
459
456
453
457
463
465
465
466
469
469
471
472
470
482
478
450
440
440
448
455
458
468
472
462
461
461
467
470
453
451
452
454
461
467
467
462
452
448
446
440
445
463
475
477
474
476
473
472
470
484
500
463
450
451
448
442
438
444
445
445
439
427
426
435
447
440
440
468
489
499
502
510
527
558
577
605
656
704
726
726
749
794
842
897
937
974
990
989
989
988
988
987
987
987
987
987
987
987
988
989
990
959
880
803
729
653
564
454
358
304
264
256
264
279
297
317
332
350
358
358
376
368
371
379
382
378
370
368
367
360
353
351
356
369
381
392
400
405
400
391
391
401
403
387
391
406
397
382
375
355
356
375
392
393
392
395
404
420
437
432
400
371
373
380
383
386
388
388
394
407
423
419
419
421
423
422
420
427
426
425
427
441
450
447
443
440
444
440
432
438
446
454
463
447
437
444
440
440
440
443
448
453
450
447
448
451
457
455
456
452
452
459
464
472
477
478
481
480
477
473
493
502
502
496
481
471
457
456
468
479
486
495
500
496
498
495
490
506
519
489
474
481
507
510
499
496
496
498
509
518
523
523
516
512
507
507
515
517
524
528
528
525
531
538
544
566
585
552
527
529
531
528
520
520
525
518
506
516
520
529
532
532
538
540
530
525
526
525
521
526
523
505
508
518
507
490
485
499
497
490
500
519
542
523
502
500
485
483
498
492
474
468
464
460
450
443
441
445
442
444
438
429
431
437
445
458
441
431
434
439
442
447
448
442
436
429
430
435
461
476
440
417
419
423
425
433
434
435
436
432
429
427
427
430
433
434
432
433
429
423
423
423
428
432
439
437
441
437
431
428
429
431
431
431
442
442
435
459
455
427
429
435
444
451
439
421
416
422
423
431
447
458
477
467
442
440
445
449
449
449
452
449
444
441
458
469
452
439
435
442
445
450
456
459
464
460
456
478
490
463
442
451
462
462
461
466
472
475
477
478
481
477
465
460
463
465
462
459
467
480
480
499
503
458
454
462
474
482
477
476
472
464
459
460
465
467
468
469
472
471
469
472
474
474
464
462
463
467
480
477
469
473
475
479
487
486
483
483
475
472
476
482
486
492
490
491
479
478
477
445
439
449
465
470
478
486
495
504
504
477
470
479
494
512
507
499
478
461
455
453
460
467
470
481
487
488
486
484
478
483
487
482
473
480
495
500
475
469
467
465
470
467
471
479
485
486
476
463
458
469
472
468
471
472
479
481
483
479
474
472
477
472
472
474
474
466
460
462
469
477
482
486
487
489
480
469
470
472
476
469
467
470
474
484
490
497
504
524
505
488
514
534
491
464
469
476
474
474
474
467
457
455
477
488
490
477
471
475
479
480
491
492
486
488
491
494
502
505
509
512
504
494
496
506
517
523
530
536
530
504
496
499
510
516
525
534
536
530
521
513
517
526
548
536
517
513
513
516
523
524
519
518
521
523
520
515
507
508
504
505
488
477
479
478
481
491
488
475
462
457
461
459
463
466
464
466
468
454
446
448
449
449
459
470
484
494
484
475
485
491
475
457
467
472
468
458
453
462
480
472
462
460
458
456
454
439
436
439
459
478
484
482
480
486
488
480
472
476
459
471
463
444
443
448
451
456
460
457
450
446
450
447
451
457
473
476
471
465
449
439
440
439
439
439
443
451
447
436
447
468
480
499
512
519
523
534
562
595
623
665
713
743
783
836
879
913
942
977
990
989
989
988
987
987
987
987
987
986
987
987
988
989
990
947
864
769
693
617
519
421
342
301
273
253
261
284
308
314
319
332
355
367
382
416
391
366
363
374
377
368
358
352
349
359
371
386
387
390
390
373
358
352
360
370
381
384
379
375
374
383
396
402
410
411
404
397
388
388
389
394
395
404
405
391
388
400
420
451
448
416
399
414
436
418
403
411
423
429
434
441
443
441
441
443
447
440
436
434
438
445
443
448
453
448
461
447
430
428
430
435
444
450
444
446
470
480
460
459
462
461
459
460
463
458
456
475
483
470
470
476
473
454
447
448
463
476
481
491
494
490
493
500
494
484
480
490
504
504
497
488
483
489
502
503
501
506
510
516
515
514
522
509
505
510
519
531
535
542
568
546
527
534
533
533
532
524
524
530
536
536
552
566
541
525
525
535
550
539
534
537
536
528
525
525
527
525
520
519
514
515
525
526
524
524
511
504
496
495
499
513
507
485
487
493
484
496
494
491
490
483
484
476
465
455
460
467
474
474
475
478
481
480
477
474
459
452
447
427
427
432
442
444
443
445
447
451
453
450
453
452
457
479
466
442
444
445
444
444
434
431
432
438
443
441
446
405
401
414
427
433
439
423
409
408
415
420
423
434
445
454
455
457
461
451
452
455
447
436
427
427
416
406
409
405
403
419
430
430
436
438
439
436
434
439
441
442
447
449
452
449
446
464
466
443
452
476
473
449
447
448
444
445
445
448
455
459
466
467
466
463
456
457
460
472
473
468
471
471
469
473
468
456
457
460
475
482
466
456
462
474
480
484
512
468
437
446
463
470
476
478
477
477
483
478
478
462
446
443
452
464
452
456
466
460
457
453
462
482
487
484
488
485
482
470
455
457
470
476
486
489
478
496
518
507
470
458
455
455
463
457
463
472
477
479
486
487
485
480
478
482
480
471
474
481
482
487
494
482
477
480
482
480
478
479
484
496
473
454
459
464
467
461
457
459
467
469
463
459
456
452
460
465
475
483
499
508
521
524
477
449
458
478
482
478
479
478
464
454
460
474
479
478
486
475
471
473
478
484
473
472
470
474
476
471
470
475
476
486
495
487
483
477
474
462
456
462
471
480
482
485
487
486
481
473
464
463
475
492
494
485
470
472
480
459
455
464
459
462
468
473
472
465
460
461
467
471
483
484
486
478
468
471
478
493
484
491
488
484
487
486
474
470
479
480
493
488
481
480
487
490
494
495
491
489
485
483
479
477
476
477
478
484
495
502
504
510
515
522
526
526
532
530
531
524
520
517
512
505
504
500
502
514
524
531
533
534
534
533
535
538
542
536
521
516
524
520
497
489
484
484
484
488
500
507
490
490
489
466
452
459
463
464
487
478
464
464
456
442
444
450
458
475
485
505
493
452
434
440
447
451
459
447
445
460
471
475
480
481
478
468
461
456
455
451
447
452
460
468
467
472
469
474
482
484
482
471
458
447
446
453
458
466
471
468
461
449
442
449
441
435
443
460
464
463
456
453
454
467
485
466
428
410
407
406
410
411
422
434
430
430
447
471
498
512
524
539
560
571
588
620
654
684
724
766
812
873
919
932
964
990
989
989
989
988
988
987
987
987
987
986
987
987
988
989
990
906
817
742
676
602
493
381
315
279
266
266
279
295
305
311
318
326
325
324
334
351
371
379
379
376
362
350
349
342
344
353
367
375
378
379
379
383
390
396
396
393
386
379
374
377
383
386
391
401
395
366
366
388
397
399
395
398
404
411
414
412
412
419
433
421
393
393
393
392
397
407
417
418
429
430
424
412
415
433
435
435
439
433
418
423
434
436
436
444
443
444
450
460
457
439
439
437
442
455
460
463
464
467
471
451
448
453
459
466
473
480
482
480
473
470
471
470
465
463
467
473
480
479
476
475
478
477
478
483
481
483
496
494
503
505
500
502
490
482
492
504
496
498
515
530
526
531
527
530
537
553
540
513
511
505
508
518
528
529
532
529
527
521
522
521
526
532
536
533
530
530
527
524
534
543
552
544
519
501
499
510
524
542
549
554
556
532
512
512
509
507
505
506
507
504
505
533
520
478
457
460
468
473
488
491
486
489
506
500
475
459
456
463
467
460
458
450
446
443
452
454
461
462
454
453
454
449
454
469
458
437
430
433
443
446
452
454
447
437
434
437
437
440
437
435
436
441
459
446
410
408
415
420
428
432
431
429
429
429
427
415
417
428
436
428
420
422
424
426
427
428
426
425
432
438
441
428
447
448
440
431
403
394
409
426
429
439
421
416
424
433
452
464
466
459
452
430
415
419
426
444
463
462
459
456
455
456
452
450
446
448
469
479
467
452
455
452
453
466
470
462
457
462
462
467
476
490
467
445
442
443
441
434
435
440
450
454
461
471
474
473
469
469
478
484
484
480
468
471
474
475
483
483
473
467
473
480
479
469
465
460
463
470
469
462
460
465
449
443
455
468
478
485
501
510
510
493
455
441
433
437
470
489
484
483
479
480
477
474
482
478
482
476
468
482
493
484
456
453
460
470
475
479
480
478
468
467
472
477
481
481
484
489
508
502
486
484
482
481
479
493
502
504
493
481
471
473
474
469
462
457
457
458
456
461
465
467
467
476
480
483
487
463
448
458
464
460
468
467
473
473
468
462
456
457
459
462
472
476
476
485
493
496
490
478
476
481
468
460
464
473
467
466
475
480
495
494
466
469
476
464
469
479
489
493
485
475
464
463
481
491
487
489
495
501
486
479
479
494
510
466
441
451
454
459
468
474
482
489
503
507
496
493
485
470
462
462
471
477
478
481
481
490
498
508
521
512
489
484
489
502
518
534
544
547
539
519
498
485
491
518
546
562
552
529
527
529
532
533
522
511
503
509
523
533
537
537
536
528
521
516
518
522
502
484
505
493
464
475
482
474
463
460
457
436
426
437
451
466
465
462
453
453
460
474
491
483
469
469
471
462
448
443
451
461
465
455
455
461
473
490
499
479
458
440
424
425
446
458
463
464
462
477
476
467
475
480
474
457
455
456
455
458
458
458
454
455
455
459
461
464
471
475
466
466
467
465
456
444
445
454
464
473
463
457
452
432
436
417
398
398
400
411
427
452
475
501
520
535
545
560
582
602
630
656
682
716
752
797
846
892
949
983
982
990
989
988
988
987
987
987
988
987
987
987
988
988
989
982
900
822
752
677
592
479
372
304
266
245
256
279
285
296
307
322
324
328
333
343
352
368
385
381
377
383
385
387
382
378
388
387
376
370
363
354
361
370
383
392
381
387
392
391
394
389
387
385
381
365
368
382
394
399
403
408
405
405
410
409
404
415
429
396
387
396
408
413
410
416
427
434
434
441
434
418
423
429
429
415
426
436
437
449
453
435
436
434
433
441
446
448
448
455
461
454
449
442
442
450
456
469
481
480
476
469
461
454
455
461
462
465
469
470
470
475
477
471
479
486
484
469
462
464
474
502
529
509
498
502
499
495
487
492
502
508
504
503
500
498
501
520
537
512
500
497
496
497
511
527
538
531
513
509
515
529
536
541
561
559
529
525
525
529
536
542
536
522
518
528
539
554
551
531
527
532
543
562
563
552
545
537
522
508
506
507
508
509
508
507
515
524
513
498
500
494
495
503
515
514
508
502
494
494
486
484
494
501
486
472
481
495
472
455
453
454
453
451
449
451
455
456
452
440
439
448
452
450
448
441
435
427
431
423
428
476
467
431
418
415
418
420
425
424
424
427
431
431
425
427
431
445
451
433
422
440
444
431
434
417
410
416
420
433
445
450
447
442
438
430
425
427
422
416
410
408
410
423
428
435
438
437
436
436
436
435
438
437
431
432
440
435
436
440
444
442
436
443
447
444
441
434
415
413
426
442
458
463
467
463
468
472
471
464
450
447
446
446
467
480
473
456
449
451
452
447
442
452
464
471
485
510
478
467
463
455
457
467
471
471
474
472
472
482
474
474
473
463
469
472
469
466
475
475
467
461
466
475
481
488
492
492
478
472
475
482
484
458
448
455
466
474
470
465
469
470
471
471
472
474
469
469
489
500
498
491
487
481
476
476
482
486
491
490
493
488
491
493
476
460
455
464
480
495
496
495
472
474
479
474
471
471
470
473
477
480
487
476
475
477
482
481
485
493
479
467
463
471
482
492
472
459
454
456
460
464
463
468
480
493
480
477
481
480
465
462
479
471
472
483
480
484
491
491
487
485
493
482
464
471
472
472
468
463
470
479
480
482
481
480
483
488
496
500
505
511
508
499
498
508
506
492
480
470
471
468
473
484
496
492
480
478
490
505
506
505
522
531
520
530
526
517
517
521
522
527
528
524
521
520
519
521
514
514
518
517
519
520
516
515
516
509
508
492
486
483
481
490
523
532
511
510
518
505
492
483
475
468
462
460
465
468
477
474
475
481
478
465
451
450
457
453
454
460
466
467
466
471
482
481
472
474
482
495
485
484
463
444
454
462
456
460
478
484
476
479
486
458
426
432
443
452
449
447
445
448
450
449
443
439
441
448
448
455
467
458
455
458
459
457
459
459
466
474
466
456
464
478
477
458
438
437
441
442
441
437
438
442
449
464
477
486
496
506
521
536
553
576
598
624
646
678
715
758
798
842
881
923
967
990
990
989
989
988
988
988
987
987
987
987
987
988
988
990
970
883
812
733
644
564
469
368
297
245
216
229
256
274
299
324
330
326
328
325
320
319
333
348
367
372
371
370
373
378
377
373
372
388
399
403
396
391
391
394
405
417
416
395
380
404
405
398
407
410
410
410
401
392
395
400
403
403
405
406
409
412
419
426
413
404
407
413
414
415
420
428
428
426
428
436
461
452
443
445
441
450
452
440
435
438
446
446
434
439
451
449
439
442
450
457
465
466
464
460
461
465
474
477
475
469
456
462
467
462
458
458
465
482
485
490
495
494
489
488
486
490
496
501
500
503
504
501
508
522
503
498
511
515
495
501
511
511
519
529
532
537
546
528
519
520
516
512
512
520
535
541
516
522
531
525
523
536
540
537
533
533
535
541
558
572
570
563
558
546
538
539
543
549
542
541
538
530
538
546
545
539
539
532
532
540
542
543
539
527
518
520
513
499
504
520
527
529
533
542
539
512
506
510
504
493
492
491
488
483
478
474
474
468
466
463
455
455
468
463
468
466
462
460
463
464
456
442
435
440
430
444
440
419
423
434
440
441
445
445
435
433
452
449
417
400
401
412
419
429
423
422
426
421
420
421
423
418
418
415
410
414
430
441
443
439
428
429
425
423
432
436
429
419
422
424
428
421
420
424
420
420
414
404
411
424
430
431
426
434
441
426
409
425
440
444
446
444
442
443
457
455
448
473
472
449
449
444
438
440
442
467
458
433
424
428
431
433
441
453
462
486
478
460
461
461
462
458
456
463
461
462
461
454
446
455
464
462
459
464
470
470
468
471
473
473
475
478
484
481
467
459
462
472
475
472
471
474
490
488
482
486
489
482
475
472
460
459
461
462
464
460
460
466
470
474
474
471
481
483
478
498
487
448
446
451
474
497
488
482
487
469
455
459
468
477
479
479
478
487
491
488
493
499
487
481
487
490
469
475
482
480
476
473
474
483
487
486
489
500
521
507
488
483
488
492
505
507
506
501
505
495
492
493
492
490
483
480
485
492
520
525
526
507
490
486
489
498
510
515
511
507
506
508
515
514
513
514
509
509
514
520
525
521
519
527
532
532
533
530
513
504
501
496
503
502
488
487
479
474
475
485
491
490
476
469
475
478
483
499
495
443
425
432
444
455
461
458
466
473
481
483
483
486
491
497
491
479
465
447
443
444
454
462
475
472
469
472
478
472
468
467
482
468
460
463
468
470
466
459
453
458
457
445
445
447
454
458
471
483
453
429
428
446
464
474
469
467
473
472
462
455
452
446
434
425
423
432
442
449
451
449
453
462
470
474
452
446
458
473
494
485
487
511
552
588
587
571
588
614
642
668
699
729
776
827
873
927
934
950
977
990
989
989
989
988
988
988
988
988
989
989
961
897
808
748
702
659
605
540
460
377
321
304
254
237
259
290
305
291
304
326
333
332
339
339
349
368
382
395
402
405
401
396
397
401
407
410
418
419
414
406
390
388
394
404
409
409
408
414
418
418
426
438
437
424
418
418
420
416
414
417
420
424
429
431
419
420
422
418
423
436
447
452
445
436
440
451
454
449
451
443
441
447
448
450
452
461
470
473
469
464
465
471
486
503
470
445
444
450
460
466
474
479
477
480
485
459
455
471
492
506
496
491
493
501
499
489
487
485
488
491
492
489
490
488
491
495
495
499
509
496
483
485
494
498
503
518
526
520
513
521
530
532
528
526
530
535
560
552
531
521
525
537
535
527
531
539
547
554
562
562
561
563
561
564
564
560
559
558
569
590
592
578
567
560
561
564
568
568
573
571
556
562
570
544
542
550
556
562
566
572
558
546
547
543
526
519
518
514
520
515
502
492
496
513
522
501
488
485
478
471
474
472
476
476
479
482
477
473
471
481
490
487
468
460
463
464
456
441
435
431
433
450
456
444
431
432
431
427
425
424
427
426
427
428
423
422
419
415
409
413
414
419
429
412
412
419
409
415
418
414
415
429
418
433
436
405
385
386
395
406
410
420
424
419
418
414
407
405
407
408
409
410
419
441
417
402
412
418
426
435
438
438
433
435
440
443
440
439
448
452
445
439
439
447
455
457
457
461
466
469
464
459
448
439
423
412
423
423
419
431
441
445
452
442
435
439
449
453
452
455
459
463
479
473
457
449
457
468
455
457
454
456
462
455
449
450
457
477
498
466
431
434
452
458
461
470
479
465
464
466
479
496
481
483
485
482
478
482
484
479
474
467
466
477
483
479
476
473
472
476
476
475
467
468
475
484
488
487
489
491
495
494
490
487
487
491
495
493
508
522
510
488
479
478
473
470
469
480
497
505
508
511
515
511
514
523
528
524
524
528
529
530
526
519
519
521
526
514
498
503
517
483
448
453
470
496
490
491
504
507
511
511
510
505
499
502
508
511
510
501
479
488
491
482
481
478
469
459
462
469
476
455
443
447
440
444
448
450
458
453
447
454
467
461
458
461
466
468
473
477
473
478
466
449
453
454
443
449
460
458
460
462
457
456
453
461
473
469
458
454
444
433
439
449
451
443
438
445
456
464
466
475
484
496
462
437
439
439
445
438
441
456
479
489
470
441
442
443
446
447
447
460
465
473
472
470
459
454
451
451
461
483
479
451
452
474
487
504
527
565
589
595
613
640
682
690
712
747
789
830
877
910
907
919
940
974
990
989
989
989
988
988
988
989
989
982
923
862
797
746
686
648
601
525
437
359
301
262
239
239
256
276
299
315
328
336
359
369
347
346
357
374
394
429
427
401
396
403
404
420
422
407
397
390
396
402
407
408
408
407
407
407
396
397
397
396
378
374
383
402
395
400
415
421
425
428
429
433
438
434
430
423
430
432
421
411
405
411
417
426
441
453
465
458
442
435
441
442
435
428
426
428
430
434
445
455
459
460
460
463
466
468
463
466
474
468
460
462
468
470
470
474
474
475
475
482
489
490
499
497
490
488
492
479
442
448
473
468
470
476
480
488
491
487
488
503
517
516
523
526
523
514
510
515
526
547
525
499
505
480
468
479
492
508
516
523
517
521
529
531
532
540
548
540
543
552
548
536
531
529
530
535
539
545
557
558
539
529
531
532
527
531
535
537
536
537
538
538
543
548
546
553
564
556
524
511
520
524
515
513
519
525
526
523
520
509
493
493
499
489
485
474
472
480
492
497
495
488
481
474
463
455
452
453
453
458
473
476
456
437
428
429
424
431
434
433
433
434
443
454
461
453
439
453
476
432
409
418
425
437
444
449
450
445
440
440
432
419
428
435
426
413
414
421
419
420
422
417
422
426
428
434
432
428
426
424
414
420
428
431
437
426
413
412
417
436
439
445
446
444
438
427
421
435
463
452
428
420
431
448
454
453
458
454
439
433
435
446
450
444
426
417
422
430
431
439
446
445
446
449
450
450
448
446
448
452
462
460
464
466
465
462
467
472
472
467
464
465
465
467
466
468
483
499
464
443
459
479
476
471
472
440
439
454
460
463
471
473
476
477
472
482
498
477
459
469
483
483
484
482
481
492
474
466
471
475
476
474
475
482
478
476
471
477
484
496
505
504
511
511
479
461
466
474
489
497
496
487
482
486
488
494
501
506
496
484
484
484
485
486
471
458
460
466
469
475
485
495
501
506
515
520
513
498
489
495
509
509
505
522
558
541
506
506
514
521
528
513
516
524
521
524
524
498
494
505
508
511
514
511
508
504
489
487
497
503
509
495
488
485
493
501
503
505
495
497
485
469
464
465
459
457
460
471
487
470
450
448
451
456
446
424
417
428
437
444
448
448
451
453
453
451
451
452
457
462
464
454
447
447
448
449
460
477
483
489
469
442
433
438
449
457
461
462
457
457
462
471
466
450
437
435
448
455
458
457
452
454
457
459
470
466
472
470
453
452
451
477
486
443
448
471
471
456
444
442
435
431
428
425
427
437
450
472
501
518
533
556
567
582
606
641
693
734
760
782
815
859
898
934
968
990
989
989
988
988
987
987
987
987
987
988
988
989
990
960
889
823
749
680
617
529
413
334
283
253
247
255
272
284
295
310
334
347
353
360
377
409
412
415
410
396
384
368
358
356
358
377
383
382
378
373
381
394
392
389
364
352
371
369
351
359
381
377
359
361
370
380
394
404
409
411
409
408
416
423
412
410
422
428
422
419
435
444
416
397
409
431
423
404
398
395
398
405
412
422
433
442
447
440
442
445
447
442
441
435
435
436
439
440
446
452
459
470
470
452
449
436
432
438
454
466
463
466
472
468
463
473
487
498
503
492
472
464
464
468
463
457
464
473
470
470
473
458
460
467
479
493
500
504
509
495
491
502
508
509
513
518
514
520
520
511
519
522
520
523
527
540
539
539
540
530
526
525
527
523
517
517
531
530
535
546
537
532
537
537
530
528
537
531
519
516
523
536
534
525
529
538
545
540
528
510
505
498
499
507
510
506
502
500
501
501
501
500
499
505
505
504
503
498
489
481
466
451
440
447
462
478
490
493
455
440
452
462
447
441
450
459
459
459
451
430
420
427
445
447
447
454
464
465
445
441
430
426
433
436
429
418
418
421
424
420
416
422
418
415
425
438
457
462
440
434
437
420
405
412
421
426
427
422
412
404
406
410
412
416
415
418
425
444
453
452
452
443
439
441
432
426
430
433
439
450
457
457
445
451
456
452
460
476
461
438
431
428
441
438
439
456
476
491
477
463
464
452
427
434
450
455
451
452
453
458
467
464
459
454
454
456
458
465
468
467
462
465
475
495
502
470
454
455
465
465
461
468
462
447
441
442
449
452
462
467
475
483
476
466
463
473
472
462
470
481
483
469
460
457
460
463
470
474
472
474
476
479
474
472
473
478
486
476
476
478
484
487
475
480
483
481
487
490
484
481
482
494
494
477
466
468
459
453
453
458
476
489
492
485
487
508
518
493
497
493
471
478
491
493
501
502
491
487
488
489
493
496
491
489
490
495
499
499
499
498
500
503
504
504
503
512
520
529
524
518
508
486
482
496
507
522
526
530
519
517
520
522
522
524
528
531
541
540
538
527
527
534
532
514
491
480
469
464
465
480
480
465
457
449
444
450
454
453
455
458
456
444
441
447
453
450
450
453
458
466
468
470
468
460
460
459
460
450
440
448
468
460
453
470
476
465
445
441
450
458
459
458
461
472
475
472
460
449
443
450
445
432
448
454
452
442
440
443
445
442
435
435
446
456
468
464
454
458
465
480
472
473
472
457
458
463
477
468
447
432
428
433
433
427
427
430
439
453
467
480
501
521
534
546
566
584
606
624
642
676
731
812
841
824
843
892
939
979
990
989
989
988
987
987
987
987
987
987
987
988
989
990
953
881
815
746
679
599
490
376
302
264
249
255
272
290
306
312
312
318
322
339
346
353
366
364
368
373
375
375
374
373
376
387
399
388
373
371
379
384
391
406
403
392
388
395
390
374
377
385
379
354
355
374
385
385
387
388
389
386
387
387
395
396
393
399
387
387
398
406
418
424
424
422
421
420
421
431
422
422
433
440
446
446
444
444
440
434
432
432
441
454
459
467
445
420
417
428
445
447
454
464
450
433
446
456
453
448
445
449
468
479
476
468
473
476
477
474
469
468
469
476
477
472
471
472
464
457
461
468
474
483
476
474
472
480
499
510
491
495
510
513
510
510
513
513
514
518
508
505
509
509
507
513
519
522
522
541
566
544
522
514
516
536
556
564
552
542
535
527
523
527
531
534
536
538
542
541
528
533
541
538
542
532
525
529
533
531
519
515
518
511
506
504
510
495
483
494
500
490
484
487
493
493
492
487
488
485
489
491
476
477
484
486
471
450
442
441
449
457
475
475
466
475
440
421
417
415
416
423
424
426
429
430
428
425
430
435
441
446
447
446
446
444
449
452
459
462
453
445
438
422
404
408
419
416
406
410
409
414
410
404
412
417
423
426
429
428
429
426
424
423
428
430
429
431
442
453
461
451
439
440
450
452
443
446
448
450
461
465
430
417
430
423
435
405
401
416
429
438
441
440
444
443
439
448
452
458
473
473
474
477
470
469
468
472
463
451
447
443
431
435
442
443
444
445
443
452
470
478
472
464
464
475
477
486
496
477
459
454
456
459
457
458
457
459
464
460
458
460
465
473
476
475
476
474
468
464
465
468
477
478
475
469
469
469
460
472
486
479
489
502
482
461
454
464
455
446
455
465
473
483
479
486
481
476
483
480
482
488
493
489
468
459
475
492
479
462
465
465
465
472
482
491
489
477
473
483
494
502
508
503
485
473
471
462
454
454
460
466
463
467
476
468
478
484
485
486
490
494
480
474
471
479
489
505
502
494
495
498
495
491
490
499
505
507
517
533
538
537
531
517
513
511
501
504
501
496
501
518
536
523
507
503
517
523
493
492
493
492
495
487
489
501
508
504
517
524
489
481
494
500
503
504
497
489
487
498
497
497
490
481
476
470
467
468
470
463
455
454
454
454
457
457
443
447
457
464
473
468
457
450
451
461
460
466
492
510
501
479
455
439
433
438
436
445
443
435
427
427
430
438
458
457
448
455
460
473
475
474
470
467
465
461
457
461
449
439
436
437
436
432
430
433
433
450
461
447
450
463
458
456
476
493
456
437
438
438
433
425
427
429
437
451
444
443
472
500
497
500
512
522
540
566
593
615
655
686
714
752
793
837
883
921
956
990
989
989
989
988
988
987
987
987
987
987
987
987
988
988
989
990
892
793
721
648
558
451
355
307
270
240
245
259
270
280
298
304
315
319
334
343
345
351
352
357
357
358
367
376
383
391
397
397
389
376
374
371
374
388
391
373
371
385
414
392
359
352
362
370
379
382
386
389
391
399
396
393
397
399
404
400
392
392
394
400
402
400
404
418
416
420
439
440
428
427
411
417
418
407
406
414
423
438
440
419
417
421
434
437
448
447
446
453
449
440
444
448
453
452
445
442
428
426
436
443
452
463
469
473
467
465
462
467
475
464
458
464
479
466
461
469
480
475
470
471
480
487
515
524
493
498
508
515
516
506
492
497
507
494
488
497
505
504
500
497
500
508
531
544
534
526
528
527
523
513
504
506
511
517
527
535
536
536
531
527
528
530
532
538
534
531
530
533
534
525
536
541
540
540
540
539
538
534
525
527
535
523
515
518
521
519
521
525
523
512
506
506
508
503
469
457
464
476
486
480
478
476
472
466
462
457
456
460
458
459
462
473
489
502
494
475
466
462
439
424
440
452
443
434
432
428
429
429
433
451
428
413
417
424
435
438
443
447
452
444
431
422
418
421
425
426
418
422
432
419
405
401
410
415
418
424
435
442
445
444
433
422
423
442
466
423
379
380
389
403
415
432
445
429
431
441
454
457
451
451
448
445
446
451
452
451
453
448
440
442
459
460
439
436
440
450
444
439
436
439
445
441
439
445
453
467
475
494
487
466
441
439
456
465
473
455
446
453
453
455
459
462
459
456
455
454
452
450
453
467
479
473
458
458
454
436
432
444
469
497
504
486
476
486
496
493
491
478
462
450
444
449
451
457
464
460
465
467
476
499
502
492
478
468
474
477
493
505
494
487
471
467
461
458
461
470
480
485
482
483
479
478
484
478
472
470
472
475
470
469
464
460
459
463
470
488
463
450
452
467
503
506
490
484
490
487
464
449
456
470
482
489
501
484
475
478
480
477
473
471
477
481
477
473
480
474
472
468
468
465
465
468
479
480
481
486
488
497
487
467
461
468
466
468
475
467
454
461
478
486
490
484
479
479
480
484
486
491
500
494
485
482
478
485
487
493
498
505
503
502
496
513
521
488
480
483
494
502
509
517
511
509
506
510
524
539
551
553
555
552
534
521
523
536
545
558
546
523
526
498
488
490
485
481
488
494
503
496
488
480
474
475
477
476
472
471
464
459
466
470
478
486
489
485
477
469
460
450
450
462
445
446
458
458
461
470
459
451
445
451
451
449
451
467
478
440
431
441
454
461
463
465
465
458
451
447
449
447
447
452
458
469
484
470
435
433
450
459
461
462
477
479
464
457
457
453
444
441
441
435
446
456
459
467
468
449
452
460
466
468
468
465
457
447
435
439
446
429
418
420
423
429
437
443
465
490
511
524
540
543
555
583
601
623
650
690
737
789
817
837
876
918
972
990
989
989
988
988
987
986
986
986
986
986
986
987
988
988
990
942
852
771
697
633
534
420
347
316
281
247
239
253
280
296
311
312
315
320
331
341
360
371
376
376
376
377
377
376
376
374
379
381
375
378
365
378
393
391
389
371
363
368
372
373
373
373
379
392
393
377
377
376
374
375
379
387
394
391
396
396
387
399
408
412
406
402
403
415
414
406
415
415
413
415
416
423
426
423
423
427
438
448
443
435
445
450
445
450
470
455
427
426
439
440
437
442
450
465
466
447
449
453
452
463
466
459
453
458
459
459
452
444
444
448
455
459
469
484
470
459
466
479
486
480
479
484
488
500
522
528
503
477
475
491
504
488
478
484
491
502
504
508
521
524
493
472
485
496
502
507
512
524
530
536
537
536
536
534
538
544
547
543
533
531
528
529
535
546
562
569
558
548
561
558
519
479
483
502
510
522
530
536
536
537
534
527
515
494
486
497
505
507
507
507
501
496
499
500
497
487
481
484
497
505
478
477
475
469
486
485
481
481
463
456
459
463
463
454
440
432
419
414
418
428
438
436
432
431
430
431
438
447
458
455
442
429
433
434
446
447
443
447
459
434
418
421
418
426
440
446
441
438
438
429
430
439
449
456
452
437
439
446
450
447
445
441
441
433
417
406
386
386
398
410
420
426
432
436
442
455
446
435
434
414
412
425
434
444
450
455
454
450
440
435
432
437
440
444
455
444
435
443
454
461
461
468
475
475
473
475
474
467
457
458
456
454
456
454
447
456
464
448
445
450
465
466
471
497
499
475
483
487
490
486
482
478
476
482
484
476
468
460
449
443
446
448
455
460
465
468
469
471
468
474
479
485
490
485
472
464
456
440
448
472
488
492
476
472
485
501
473
448
441
449
456
467
480
505
512
484
451
437
442
449
457
467
476
492
495
495
493
481
475
475
476
479
481
480
480
494
482
476
473
475
478
476
480
484
483
482
479
476
477
479
483
499
503
503
488
480
477
480
487
484
484
481
481
483
480
473
476
471
464
459
455
459
458
469
477
476
482
484
492
477
470
479
486
481
475
473
468
474
483
483
497
526
521
467
454
454
450
459
476
490
501
500
487
481
484
491
487
498
512
510
509
514
517
523
520
519
519
517
510
510
518
528
512
496
498
501
517
522
520
515
516
526
539
538
541
541
513
503
503
503
508
516
520
524
529
528
519
512
506
501
487
468
470
474
482
480
458
445
451
461
463
460
464
472
481
476
469
466
459
454
460
460
454
462
476
482
488
476
479
474
458
461
465
466
472
481
476
477
473
455
471
477
451
451
452
446
442
439
441
451
459
466
462
457
459
462
459
473
493
481
465
457
439
435
453
477
478
469
466
461
456
456
459
464
474
468
453
453
456
463
464
453
447
437
434
434
435
435
440
435
429
430
439
454
468
474
471
488
510
535
558
592
614
611
634
671
730
761
784
817
858
911
961
990
990
989
989
988
987
987
987
987
987
987
987
987
988
989
990
929
840
757
683
610
524
421
332
281
262
278
255
266
302
332
344
364
366
352
346
345
346
339
344
352
361
365
372
380
382
378
379
382
388
389
374
378
384
387
388
394
386
372
366
366
366
372
383
377
373
382
388
394
406
410
414
425
431
417
408
414
408
413
425
428
424
427
418
406
412
402
404
419
418
410
412
423
444
454
445
420
420
442
454
450
449
449
448
448
447
448
441
439
450
467
473
475
477
474
474
488
487
454
440
435
440
444
454
473
497
494
479
481
480
478
483
486
477
483
490
494
492
486
480
476
473
476
483
489
495
501
496
488
482
476
471
482
502
515
521
516
511
507
514
523
522
521
524
523
526
528
537
531
532
534
537
538
548
539
546
556
554
551
544
535
534
539
543
546
557
566
540
524
528
535
540
539
540
543
551
551
557
559
558
545
537
527
514
513
516
518
518
513
506
505
507
520
512
492
483
469
463
460
456
465
480
487
484
473
467
475
478
472
473
467
458
463
461
455
459
463
455
456
456
457
454
451
448
447
442
438
439
439
432
432
432
429
428
437
438
441
443
442
435
433
434
432
427
425
428
433
430
440
465
454
438
432
416
427
437
439
430
418
415
414
418
425
427
430
441
447
444
440
434
426
414
408
392
392
418
450
456
420
413
416
412
413
428
435
436
441
441
441
445
439
436
445
449
450
451
456
459
459
459
448
442
454
459
460
472
470
454
445
433
440
442
436
435
433
434
442
453
468
471
477
489
490
469
467
483
494
465
445
450
458
466
474
474
482
493
480
464
452
446
448
432
428
440
455
461
472
480
477
472
468
474
492
500
496
497
496
490
501
512
483
455
452
455
462
465
471
455
446
457
462
468
473
476
478
479
473
468
469
470
484
504
490
488
485
484
489
482
470
470
472
473
470
471
479
492
492
490
495
495
500
502
486
477
476
478
484
486
483
480
481
484
492
510
493
489
495
501
507
492
496
512
514
520
519
508
500
497
497
506
517
523
512
499
491
488
485
487
490
492
511
553
580
512
507
525
513
507
499
506
510
511
515
514
512
504
500
498
499
494
492
495
499
498
498
494
491
491
494
485
481
476
471
462
454
456
454
459
452
445
440
446
454
463
467
472
469
467
471
472
472
477
476
459
458
468
488
466
434
437
449
457
452
448
448
442
447
458
466
477
478
471
457
453
450
450
456
461
468
471
487
461
420
418
436
456
477
463
463
483
463
452
448
428
434
453
455
456
454
460
460
459
460
467
467
470
473
466
461
445
440
447
453
467
481
474
459
438
437
443
462
477
489
503
525
553
573
591
611
632
649
662
693
734
775
825
864
881
918
953
990
989
989
989
989
988
988
987
988
988
988
989
990
947
878
811
750
698
649
586
497
394
306
244
213
222
242
263
282
302
317
326
330
340
346
357
402
427
393
383
399
405
400
405
400
393
399
407
396
397
403
398
395
391
398
408
398
394
395
403
406
414
431
430
407
384
391
402
408
420
419
412
413
417
420
424
420
422
424
421
422
427
446
464
449
424
420
425
431
430
434
433
435
443
447
452
446
443
442
437
445
459
453
451
453
466
474
457
449
455
457
457
462
471
490
494
494
496
497
496
499
497
473
469
460
445
447
457
469
483
492
505
518
505
517
520
490
490
495
501
513
515
503
500
512
522
535
560
539
492
500
513
506
506
514
521
535
539
536
538
536
529
525
518
517
512
511
518
531
544
546
548
556
564
568
575
575
577
568
561
555
550
544
533
533
544
553
571
578
578
574
565
555
558
565
568
561
549
541
541
535
535
543
539
535
533
530
526
520
514
513
515
524
512
497
492
503
505
487
490
506
507
507
481
468
476
455
447
456
465
482
482
463
454
446
440
432
428
429
425
426
430
437
442
449
463
452
435
421
421
422
422
428
440
437
427
417
415
417
411
408
410
411
429
427
426
443
437
417
414
417
408
403
414
418
415
420
432
435
434
436
435
432
419
412
417
422
418
409
408
410
412
397
402
403
391
389
394
400
412
419
425
436
440
429
422
424
431
433
439
444
435
430
442
453
439
447
452
449
444
448
436
436
439
442
451
468
468
457
452
443
435
431
427
436
451
463
463
465
466
462
458
453
447
448
453
466
480
482
492
499
474
449
452
454
451
450
448
442
436
436
445
451
461
464
461
455
457
469
468
471
470
467
464
470
479
481
486
483
476
478
471
464
472
496
493
470
468
493
485
483
497
501
499
481
470
473
478
491
480
472
475
474
479
480
469
469
479
491
496
515
514
505
504
510
508
496
497
496
488
495
497
481
488
494
495
495
486
484
498
508
506
498
494
490
485
486
488
495
500
506
506
504
506
515
517
512
514
528
519
508
509
512
509
511
522
514
506
500
475
481
500
510
496
496
497
486
489
498
492
484
479
481
480
485
486
489
474
464
461
454
456
452
448
437
448
460
465
480
488
470
454
451
451
454
457
463
466
466
465
470
464
457
476
507
468
437
449
455
449
444
441
439
442
449
441
443
451
455
456
453
449
447
448
449
448
460
465
461
458
454
459
462
461
467
464
465
467
467
479
476
482
470
443
428
428
430
449
482
487
481
469
451
444
446
445
444
454
449
459
456
446
451
479
474
459
464
480
507
526
535
556
577
595
621
651
658
679
712
757
804
850
897
935
962
986
990
989
989
989
988
988
988
988
988
989
989
969
897
842
793
734
687
630
542
452
361
286
247
237
248
277
299
299
317
326
324
333
335
336
346
358
369
385
395
403
408
417
420
412
404
396
395
399
399
396
397
394
389
400
415
415
427
426
407
394
398
408
413
414
437
438
413
399
394
406
407
404
412
411
414
420
419
418
413
411
417
421
423
428
431
431
433
441
439
451
458
446
439
440
449
442
434
444
458
477
463
458
446
441
445
445
440
443
448
443
441
449
472
471
479
482
480
478
478
468
466
469
468
471
484
485
480
478
477
475
466
463
471
483
499
505
505
498
498
500
513
513
515
512
510
511
515
531
548
530
506
491
489
484
484
490
494
501
510
521
530
538
539
530
530
525
524
525
528
533
535
537
540
546
539
500
502
516
513
522
540
549
555
554
550
547
544
541
542
545
539
544
552
547
537
537
534
530
523
522
536
521
510
514
510
518
525
517
501
492
504
502
500
502
504
505
512
515
511
508
511
500
506
502
477
481
483
481
479
465
448
436
433
429
429
431
429
433
443
444
429
427
452
445
432
445
452
450
445
436
436
438
433
422
419
411
405
406
419
408
408
411
407
411
434
427
421
425
421
420
434
446
435
431
441
432
435
429
417
412
411
410
410
417
427
440
442
448
459
458
451
444
431
426
428
431
437
446
457
465
464
458
448
445
448
446
446
442
446
459
448
453
450
453
447
430
428
439
446
449
467
477
455
451
451
426
411
415
426
434
444
450
449
448
449
453
459
455
447
452
450
456
458
447
454
467
458
457
452
455
470
479
484
475
470
476
491
476
465
458
453
453
462
473
480
487
505
510
493
489
486
482
481
483
479
484
474
455
455
460
465
472
479
476
466
473
486
491
485
473
465
468
476
486
490
500
505
494
485
493
494
492
485
471
469
478
490
495
493
488
505
485
455
458
465
473
491
482
481
479
479
491
494
485
491
499
501
498
492
496
511
519
520
517
510
509
511
512
511
507
509
514
517
523
535
547
562
526
504
496
503
514
520
526
508
505
509
506
498
497
497
493
502
503
485
480
487
491
497
497
494
484
476
473
469
466
467
469
458
446
438
444
454
459
462
465
465
463
454
453
453
450
455
462
466
462
457
452
457
454
438
441
456
465
448
448
459
468
469
472
472
471
471
475
474
460
446
444
453
468
471
445
438
436
437
436
438
445
437
441
441
436
440
448
450
451
451
454
442
450
469
489
485
469
463
472
468
458
463
461
464
471
455
438
425
422
429
435
445
447
435
429
443
462
479
504
515
531
549
570
586
597
609
628
658
700
737
764
797
843
889
923
971
989
989
989
989
988
987
987
987
987
987
987
988
988
989
990
928
845
763
688
621
549
451
364
311
272
258
266
289
308
327
339
343
347
344
355
366
380
409
387
361
358
376
398
389
387
391
399
409
405
389
363
366
373
383
385
377
377
376
381
384
376
378
386
387
389
397
401
411
406
385
374
376
384
398
384
365
375
386
388
395
405
412
409
404
405
421
434
429
425
424
432
440
450
448
439
436
436
437
435
431
431
429
430
435
447
440
419
425
432
436
440
450
448
444
445
448
443
431
430
431
446
452
461
476
493
494
492
495
498
480
480
485
470
452
451
455
459
467
476
477
480
481
487
492
497
498
498
497
497
502
503
500
505
497
511
501
480
487
502
511
514
508
506
512
506
501
505
517
528
533
545
564
538
517
513
525
538
538
538
542
544
538
529
526
524
537
550
518
495
503
514
520
523
524
525
527
530
532
525
535
538
521
501
492
485
484
489
496
497
501
504
505
507
503
506
506
501
499
499
501
503
500
494
482
478
463
452
451
462
461
440
425
433
449
449
432
431
446
455
458
455
456
447
443
442
452
447
444
452
454
447
445
453
453
426
409
405
409
430
438
418
421
444
423
404
413
423
430
430
431
421
414
419
426
451
442
419
430
439
437
434
432
434
430
433
425
419
415
415
414
421
435
447
447
443
438
442
446
447
443
438
432
422
418
420
424
431
434
434
439
444
453
467
470
468
467
477
483
457
445
446
443
436
450
460
469
472
456
444
449
460
467
474
475
482
468
460
461
472
471
456
446
449
458
464
469
476
485
485
470
463
469
470
461
453
450
461
476
474
469
476
482
491
493
491
496
505
494
502
475
451
452
432
419
420
430
449
456
461
467
474
475
478
475
472
476
480
479
485
491
486
491
484
475
464
456
463
475
468
472
481
504
487
472
478
483
485
482
473
470
473
485
489
490
494
496
502
504
495
493
493
492
497
503
504
501
494
489
491
490
483
473
463
458
462
466
473
482
486
490
490
495
506
515
510
507
512
519
516
503
497
519
535
526
518
516
522
546
548
527
526
537
530
532
526
508
501
502
506
501
496
497
497
496
491
485
484
482
478
489
512
518
503
489
485
484
481
482
483
463
453
453
461
453
448
453
462
463
463
464
468
471
472
469
472
480
477
460
468
466
467
455
439
444
456
456
472
470
467
463
461
466
468
469
469
465
468
467
463
456
448
454
474
470
451
445
449
440
442
449
460
462
457
434
423
431
442
435
435
440
453
466
456
466
480
483
479
470
449
440
441
450
456
464
471
480
475
448
441
438
429
426
429
432
435
444
466
479
487
495
518
545
568
591
610
628
657
696
738
776
814
857
898
949
973
990
989
989
988
988
987
987
987
987
987
986
987
987
988
989
990
943
852
765
689
617
522
409
327
271
238
237
255
276
294
306
319
327
346
351
359
367
370
370
371
363
363
369
380
390
396
379
360
353
357
367
376
383
383
376
379
385
388
389
382
385
384
379
374
381
388
368
367
386
395
396
390
388
388
392
402
420
405
390
388
394
402
405
406
409
417
422
428
429
434
438
440
442
429
424
430
443
441
427
410
403
403
414
435
440
441
453
455
452
436
430
431
437
452
457
451
447
445
446
444
444
449
451
448
457
471
468
468
472
475
489
477
470
477
479
482
478
478
474
473
465
473
482
487
492
496
500
500
495
497
495
501
504
517
524
507
496
492
496
501
506
508
507
496
486
487
506
519
528
530
535
537
539
557
547
515
523
545
529
528
546
551
545
537
540
541
547
556
546
530
516
504
504
499
506
517
526
531
529
528
532
538
549
541
525
512
504
505
501
496
503
510
502
496
496
495
493
491
491
487
484
486
478
470
468
471
478
489
471
460
454
451
457
460
452
445
439
440
446
456
455
458
461
462
470
475
451
415
411
423
406
398
409
422
426
421
426
428
424
422
417
416
418
423
427
426
424
430
429
435
444
460
448
435
430
428
435
455
445
440
438
413
412
423
434
429
412
407
412
415
424
437
440
441
434
452
447
421
421
426
429
427
429
439
447
451
451
447
442
444
453
448
447
453
454
452
449
453
448
449
446
451
443
435
444
454
454
462
481
470
458
465
476
462
455
464
482
475
450
441
456
454
458
458
464
473
464
470
477
475
477
474
481
482
470
463
462
459
452
454
458
461
460
459
470
477
479
470
474
474
470
469
472
474
473
469
469
473
482
485
485
493
505
475
454
464
474
480
487
476
460
460
468
471
475
474
467
465
461
453
449
459
478
494
494
494
496
497
477
474
481
493
505
496
488
489
482
473
489
483
472
470
469
465
473
483
493
512
490
462
450
456
463
464
463
474
480
486
492
497
502
506
508
498
487
483
479
481
484
485
490
499
506
499
484
475
475
481
484
489
494
501
507
512
514
514
517
516
511
507
508
511
522
540
544
524
528
526
522
526
528
525
524
530
541
535
531
533
527
515
497
501
504
480
488
501
499
494
490
479
471
473
474
470
467
464
455
449
457
467
467
463
461
452
447
451
454
456
461
457
454
456
457
456
470
494
467
448
455
471
484
463
444
452
450
453
467
471
464
460
462
461
463
458
445
454
466
469
472
477
482
485
479
463
445
438
441
441
438
444
452
458
455
436
435
441
441
441
443
445
448
446
448
464
472
478
468
449
453
459
461
459
452
447
445
442
438
437
431
416
419
426
418
425
448
473
501
519
537
558
571
590
605
626
660
695
730
773
820
866
928
955
955
990
989
989
988
988
987
987
987
987
986
986
986
987
988
989
990
956
834
737
652
573
472
374
311
269
245
244
268
288
306
325
337
349
355
362
365
363
362
361
374
381
361
346
352
366
370
372
370
361
364
367
370
376
376
375
373
378
394
407
392
388
394
390
381
375
372
368
369
368
369
373
382
392
395
397
408
414
407
390
394
410
427
440
433
426
418
417
417
411
388
391
414
416
411
423
437
438
431
434
447
464
451
446
461
457
445
429
430
429
423
421
426
429
442
455
460
459
448
451
459
444
440
446
452
459
461
467
469
472
470
471
470
469
474
479
481
482
480
475
477
480
483
483
475
472
483
501
493
492
502
511
503
504
506
508
516
498
486
496
510
517
526
531
531
535
540
527
534
536
533
544
534
520
525
528
528
520
514
509
514
518
529
529
524
529
532
534
540
540
549
578
547
502
499
514
535
542
517
504
504
509
509
505
509
513
512
508
520
529
529
534
514
504
505
500
497
490
487
491
499
495
491
495
494
471
455
451
451
454
456
457
455
449
448
450
450
447
442
442
440
438
441
451
457
445
454
466
468
449
428
431
443
452
459
456
447
437
417
407
405
414
417
416
416
417
421
420
409
408
415
427
430
434
439
423
405
423
438
421
409
415
420
429
420
406
432
437
441
449
450
443
445
442
433
431
434
436
450
449
449
467
456
431
442
447
433
429
429
435
436
444
453
455
457
455
455
453
447
456
471
459
443
437
435
441
450
451
451
448
450
448
448
453
461
464
467
477
476
473
465
460
464
452
443
446
460
490
483
461
456
465
469
464
455
455
459
464
463
458
451
464
478
484
478
473
470
465
465
471
462
458
463
470
504
506
472
465
486
478
469
463
460
465
471
479
483
484
487
480
478
479
479
485
486
479
481
481
488
490
493
456
439
450
457
466
482
509
510
482
468
460
450
450
464
477
486
491
493
498
497
490
479
470
469
472
484
493
496
491
481
481
483
484
480
471
459
449
443
435
436
440
445
459
475
476
484
491
504
524
525
485
469
479
486
485
481
480
480
484
487
496
509
514
506
492
489
482
476
467
470
476
473
482
489
493
502
497
488
471
487
503
504
501
504
512
528
530
508
523
529
515
529
538
549
544
523
523
535
541
535
532
526
522
523
517
514
511
516
525
522
510
500
491
480
476
484
489
492
489
474
453
439
431
434
448
454
450
455
458
452
457
457
457
456
454
469
473
466
462
462
468
476
469
464
463
460
461
466
459
445
444
448
459
458
452
449
457
457
455
458
460
460
459
466
472
472
472
478
477
467
470
470
471
473
467
476
506
480
442
446
461
478
474
488
480
460
442
415
423
439
455
465
468
470
466
468
468
473
474
471
463
450
439
431
430
431
435
423
412
407
411
418
426
443
475
497
518
531
540
556
576
592
612
640
679
722
764
806
852
887
913
949
990
989
989
989
988
987
987
986
986
986
986
986
987
987
988
989
989
930
816
707
610
506
410
334
282
245
236
265
307
306
296
305
317
323
324
328
338
351
370
380
385
384
389
378
369
382
383
372
384
397
391
359
350
364
370
384
384
364
364
361
353
356
364
372
394
396
378
386
387
376
378
393
410
413
408
404
401
401
406
413
422
431
423
403
397
404
415
421
425
420
424
429
426
432
432
439
442
439
432
429
428
435
440
439
441
446
462
470
448
446
467
464
439
433
440
444
440
436
438
451
456
453
457
466
476
489
491
482
473
451
441
447
457
462
468
465
462
471
460
477
494
492
494
495
498
495
494
496
506
519
534
510
495
502
507
510
502
506
505
501
497
494
505
510
506
518
513
516
518
527
532
536
540
539
537
539
541
542
542
547
545
546
560
561
546
522
510
517
532
528
503
497
502
514
522
520
517
518
508
511
512
515
528
537
542
543
539
522
518
512
509
501
489
492
493
486
486
483
485
487
488
491
492
489
486
484
481
483
483
480
470
463
454
454
449
448
449
447
444
448
442
435
452
461
452
445
450
452
449
449
455
443
422
435
426
404
409
410
411
419
428
431
430
427
429
454
450
424
423
426
421
428
432
437
432
417
416
424
427
429
438
447
447
438
447
442
426
421
420
420
414
410
413
417
423
435
453
455
447
441
445
446
454
459
453
446
441
444
446
444
449
453
451
463
453
443
448
450
451
445
437
440
447
449
447
446
454
445
429
433
449
461
453
455
455
456
458
456
455
455
456
458
456
458
457
456
460
466
469
467
462
469
482
485
480
472
466
464
465
481
490
488
485
476
474
470
472
478
472
472
470
468
463
460
463
468
472
474
480
489
496
491
481
468
459
467
482
500
501
507
547
529
479
464
462
459
458
465
442
432
445
465
473
475
481
476
472
469
470
487
465
446
448
460
475
484
489
485
482
480
472
469
472
468
468
467
470
474
474
473
500
498
470
463
478
483
482
480
486
486
484
495
499
496
492
485
487
500
483
485
495
512
509
499
495
496
490
481
482
482
483
482
486
487
473
467
478
490
495
500
505
512
521
524
537
553
524
496
486
497
510
516
518
519
520
522
527
527
527
527
526
526
522
515
512
511
517
515
510
504
498
497
502
518
496
485
491
485
473
468
467
464
459
451
451
448
455
466
469
457
455
460
468
476
464
462
464
452
445
448
454
451
459
466
473
464
461
465
471
477
477
470
456
456
464
462
463
468
467
460
452
450
458
470
456
455
460
458
454
459
463
468
465
461
451
451
456
458
456
453
459
447
436
426
435
446
451
457
462
468
464
465
462
457
454
453
457
457
451
448
453
459
454
449
447
440
443
450
452
472
457
427
432
460
491
505
525
541
555
564
578
597
623
666
701
737
776
826
883
929
972
990
989
989
989
988
988
987
987
987
987
987
987
987
988
989
989
956
873
792
719
636
540
437
350
295
251
236
244
265
293
313
324
332
340
338
346
344
344
351
364
369
384
393
396
412
413
376
364
368
369
374
385
397
405
398
382
372
373
371
380
380
376
389
392
395
405
422
436
429
424
425
438
426
392
375
372
369
374
388
402
406
402
393
411
420
404
411
421
423
422
417
412
411
413
422
429
420
421
430
438
446
453
441
433
432
430
432
437
443
445
447
455
460
462
461
465
466
471
473
470
466
469
471
466
465
461
461
467
469
466
464
483
502
492
460
445
463
480
484
500
515
521
519
518
512
507
513
516
517
506
502
508
511
510
490
488
495
504
508
506
518
524
520
518
512
504
513
521
524
525
528
533
534
538
536
531
527
535
538
565
564
541
539
541
541
531
529
533
538
540
534
532
531
531
523
519
519
521
526
532
540
536
536
547
535
527
522
514
502
498
504
499
483
486
496
504
517
536
535
514
487
466
462
455
455
459
468
474
477
471
462
454
453
455
451
449
456
460
466
471
471
468
456
442
434
431
429
422
423
432
428
427
436
444
447
447
447
445
443
439
437
433
437
444
440
427
417
408
407
411
417
428
445
444
433
432
426
419
443
445
449
447
425
413
413
415
418
422
420
417
421
411
406
426
445
445
445
441
441
447
443
432
423
425
433
458
457
428
420
425
437
443
447
456
459
457
457
458
465
460
469
460
450
459
467
464
460
459
460
461
462
465
464
458
456
460
462
458
446
431
429
438
449
455
462
469
475
479
476
474
474
473
465
460
456
456
457
458
465
475
488
483
476
475
471
482
492
493
476
442
432
438
461
472
471
466
449
445
449
464
472
477
489
490
486
486
485
485
489
499
490
477
479
481
483
484
481
484
484
483
479
476
477
473
473
486
497
486
484
489
508
523
514
489
470
472
473
463
456
455
461
464
469
475
484
489
494
497
495
501
517
523
490
478
473
468
472
480
487
498
501
496
492
492
496
505
503
488
484
496
505
513
519
521
521
525
536
535
518
518
515
523
531
533
533
539
545
550
555
548
533
515
507
502
495
496
501
505
508
514
505
493
488
485
490
488
491
491
488
492
476
455
450
453
458
461
454
443
442
458
468
466
462
456
449
449
457
462
486
482
481
480
465
457
457
447
444
441
450
450
444
443
441
444
454
468
476
478
487
492
491
499
485
467
461
464
470
487
501
459
438
433
413
419
434
453
461
458
456
452
445
443
450
460
462
457
453
448
453
462
462
460
457
454
456
453
457
460
457
455
453
454
453
445
443
446
452
454
463
469
469
480
508
533
541
546
560
583
605
640
662
675
701
748
795
831
866
900
933
955
984
990
990
989
988
988
988
987
987
987
987
988
989
987
968
899
763
680
639
592
519
411
318
259
224
219
240
261
280
301
320
334
332
325
340
353
362
369
381
383
385
383
388
389
386
389
396
397
398
406
414
409
407
420
434
413
390
390
403
403
400
397
388
376
371
375
382
395
402
406
411
429
433
426
424
429
429
438
449
436
416
409
415
421
426
431
436
438
435
433
436
443
442
461
471
462
480
492
474
460
455
455
453
453
456
458
459
460
461
461
467
486
485
474
472
471
480
494
477
458
460
471
499
505
481
485
489
482
482
485
490
479
473
480
493
505
515
515
511
508
503
496
489
491
500
508
510
518
515
502
502
518
527
535
535
535
541
555
543
533
534
539
543
546
555
560
553
549
559
556
564
547
527
529
537
547
552
550
552
559
559
560
567
574
571
573
570
560
548
540
537
532
535
545
542
534
530
536
534
537
551
550
542
537
545
547
545
541
526
512
503
517
529
525
528
526
518
521
519
509
507
508
527
519
485
474
474
474
474
453
445
446
453
458
461
457
456
460
458
445
438
439
445
442
436
452
464
456
442
437
438
437
442
441
439
436
420
424
437
429
416
414
418
421
434
458
452
430
451
442
411
410
421
425
422
425
408
401
390
384
400
414
416
415
418
415
414
419
421
419
421
433
445
456
453
443
437
434
434
445
451
451
467
460
444
435
439
444
437
449
474
468
448
450
450
450
458
463
465
461
457
451
439
429
425
429
451
468
438
413
420
437
444
444
448
461
461
467
468
468
464
473
487
501
490
459
447
457
470
487
500
487
479
482
487
461
442
448
458
462
463
460
465
472
469
470
472
477
480
497
491
481
478
473
473
478
489
495
492
488
488
474
469
473
477
482
483
481
472
467
467
469
473
482
490
490
493
498
495
497
502
501
495
490
492
499
525
531
501
493
501
505
516
524
508
510
497
495
500
498
506
515
517
519
525
515
509
514
527
524
519
530
537
537
536
519
519
534
522
509
497
489
480
484
498
513
535
550
536
524
510
505
503
502
496
491
482
480
489
495
500
503
498
488
483
483
466
457
461
473
453
443
456
464
465
456
447
447
448
451
459
464
464
459
454
450
455
464
472
462
470
482
483
483
483
487
486
481
469
467
459
468
462
451
452
459
477
471
451
454
467
469
471
473
466
464
469
468
461
449
439
448
457
454
472
477
478
468
447
451
467
477
466
459
464
475
478
481
487
482
471
465
464
460
450
440
438
441
437
449
458
457
465
467
470
477
484
498
510
513
521
536
558
579
600
621
639
658
685
713
733
757
789
822
854
887
925
964
990
990
989
989
989
988
988
988
988
989
989
947
883
816
762
706
660
609
553
480
394
322
293
283
286
295
309
311
311
317
333
321
320
349
365
372
367
383
391
402
417
430
436
436
421
414
408
410
415
419
420
413
398
401
400
412
420
411
404
409
437
443
446
448
437
429
422
420
424
431
438
437
431
428
428
430
428
427
432
438
446
449
449
457
459
466
484
454
428
449
461
457
460
464
463
458
452
449
451
454
453
447
450
457
464
470
477
477
484
482
469
457
457
467
476
489
495
502
514
514
507
500
495
488
492
491
490
494
500
490
469
474
488
497
498
509
508
501
499
510
504
490
495
508
519
530
536
541
547
540
530
516
513
518
523
525
524
524
528
527
533
542
556
572
564
550
555
552
541
543
546
558
562
557
559
564
559
565
574
572
568
562
567
556
558
552
544
546
547
544
535
527
532
547
549
550
556
551
546
539
532
535
532
530
532
528
519
526
532
535
535
527
533
536
528
532
529
520
496
484
482
480
483
490
486
483
479
470
469
473
469
458
443
437
447
449
451
456
471
500
499
454
415
416
435
446
444
430
421
413
413
428
438
419
429
434
433
439
448
435
425
416
408
408
412
417
418
422
425
429
429
429
431
427
428
432
435
432
433
440
435
425
422
428
438
433
428
424
422
428
433
436
443
446
445
420
408
423
454
444
435
430
434
439
439
436
436
430
434
436
436
436
433
443
458
471
475
474
479
485
473
472
451
429
434
441
452
467
479
458
445
446
444
436
446
461
454
451
466
447
444
448
443
445
453
457
458
463
460
468
475
472
474
478
486
490
495
499
490
474
461
442
441
456
464
463
465
473
476
477
492
483
458
453
462
475
493
502
487
479
484
494
506
507
502
503
506
489
490
496
502
498
494
492
484
486
496
506
515
525
516
493
492
489
487
504
509
508
491
480
477
497
506
491
506
529
525
521
515
519
539
534
528
526
523
526
517
509
507
513
523
535
518
508
509
507
510
518
524
527
518
509
496
484
484
489
487
486
480
474
471
473
486
494
485
473
468
474
477
491
511
477
453
459
462
464
460
457
459
458
463
465
470
472
471
469
475
467
455
450
447
461
457
454
435
433
440
445
458
468
471
468
468
464
461
460
465
468
468
468
472
478
483
485
478
453
431
424
434
458
456
447
454
453
453
456
455
442
428
436
444
443
449
453
469
465
453
472
472
473
465
455
437
432
453
467
452
449
452
450
454
460
458
458
471
486
504
514
523
533
541
562
581
570
583
603
620
650
685
730
767
808
836
866
900
934
979
990
989
989
988
988
988
988
988
987
988
989
990
973
916
843
773
711
651
584
513
419
333
269
249
256
256
281
304
320
331
335
341
352
363
376
392
398
392
395
404
411
414
418
416
416
425
428
413
409
429
433
390
375
382
390
392
396
380
376
383
386
389
378
381
402
406
395
394
405
431
430
423
418
396
396
415
413
411
413
422
429
430
428
429
427
428
428
432
439
448
457
453
451
457
464
464
463
463
467
468
464
457
466
466
454
451
447
435
433
439
450
462
476
464
442
443
447
464
487
482
468
466
462
466
473
484
491
494
497
491
479
473
474
488
508
507
498
493
491
490
499
515
504
495
479
473
481
492
496
494
489
494
501
498
501
505
516
521
525
528
529
532
528
532
532
532
529
527
527
529
534
540
546
547
546
547
544
543
545
547
545
539
529
527
528
536
529
522
532
525
524
534
518
519
541
535
519
514
519
528
533
514
500
500
503
507
511
517
533
559
520
502
507
510
500
498
502
504
507
510
508
498
488
484
475
481
495
498
495
472
458
449
434
420
408
405
412
439
453
445
449
449
448
452
449
448
448
441
434
430
433
440
443
443
445
447
446
439
428
410
408
412
417
429
437
435
425
425
425
442
462
440
430
459
443
404
401
412
417
418
423
431
436
437
441
442
436
436
439
436
437
434
432
434
429
440
458
458
458
465
469
462
455
454
456
461
466
470
473
476
473
455
436
421
419
427
439
447
450
457
454
457
467
477
473
468
491
497
486
486
486
462
461
470
454
432
419
415
421
433
447
455
462
463
460
452
444
451
469
457
463
497
483
466
474
476
471
467
467
469
467
466
470
479
476
473
486
512
496
477
480
487
490
493
490
488
483
483
481
487
495
492
493
498
500
501
492
482
482
482
493
511
513
507
509
505
512
501
480
472
478
486
495
499
491
491
494
494
505
522
525
521
523
505
494
490
492
490
486
499
515
511
506
514
523
526
522
527
531
534
536
534
552
541
525
520
511
502
492
484
468
466
480
493
491
491
487
488
490
489
493
495
501
499
486
492
499
494
476
466
460
467
474
471
462
460
462
458
458
453
442
443
443
456
477
455
445
444
455
455
460
478
491
465
452
446
433
436
450
475
469
460
466
468
468
470
473
467
467
464
457
449
430
429
440
452
455
442
443
457
464
491
490
449
438
439
442
441
455
452
439
435
432
447
465
465
468
466
457
455
457
452
444
447
449
456
449
438
436
434
433
440
448
459
470
481
489
489
501
525
553
599
613
605
613
626
658
702
742
780
812
844
872
905
948
990
990
989
989
988
987
987
987
987
987
987
988
989
989
978
900
827
760
700
635
560
462
368
302
264
248
263
285
300
324
327
329
343
364
376
381
382
375
394
392
372
363
366
372
379
391
403
414
409
400
407
393
384
375
368
380
385
387
394
400
405
411
417
415
407
388
383
390
406
398
381
378
372
373
382
389
394
410
414
403
414
425
430
436
448
451
429
416
417
420
414
409
414
414
412
423
422
431
419
415
424
424
431
440
443
448
444
441
446
451
453
463
470
460
447
450
474
468
445
449
459
461
464
470
462
462
459
471
485
478
461
460
467
474
484
494
498
505
522
548
528
488
458
465
473
493
507
509
509
504
500
505
511
513
509
505
511
512
512
517
516
519
520
517
514
529
521
517
503
499
503
519
530
525
529
540
552
548
546
537
524
525
530
534
539
540
536
536
543
548
542
542
546
543
539
537
534
541
536
514
501
494
495
489
488
490
503
508
505
531
525
477
460
468
468
473
477
474
490
497
503
498
494
494
493
493
521
514
461
444
444
451
441
436
438
433
433
439
457
463
453
448
444
445
448
452
458
468
467
461
465
448
418
405
411
410
402
394
398
414
431
434
439
452
449
437
439
444
444
432
419
418
418
420
421
426
430
426
429
427
422
419
420
411
398
403
404
410
415
415
420
428
432
441
449
449
450
446
449
453
450
476
477
474
458
436
435
433
434
432
431
432
436
443
439
439
445
452
462
467
467
465
464
463
467
466
461
462
471
479
488
494
483
479
479
484
492
468
448
446
447
450
458
461
460
462
464
459
456
446
455
477
477
473
466
454
464
469
469
477
476
466
457
448
443
437
439
447
455
464
473
497
492
485
491
496
497
489
489
493
475
472
472
471
481
470
459
462
476
487
479
484
492
507
495
479
485
484
489
489
490
496
498
518
531
507
491
505
515
500
487
474
471
478
485
485
481
485
497
510
522
525
524
517
499
490
497
508
513
511
508
508
500
504
504
508
505
510
522
540
542
533
521
495
495
499
488
487
496
513
522
529
530
527
520
516
519
511
498
500
504
492
481
480
489
490
479
472
469
469
464
465
459
454
455
453
453
458
456
459
459
455
455
464
465
452
452
459
469
475
472
464
454
456
465
475
494
490
457
449
466
476
454
440
447
453
452
450
451
449
450
441
440
442
440
445
447
450
461
455
446
455
449
449
444
446
455
459
444
431
428
437
443
445
457
459
461
472
484
477
473
476
480
477
477
495
497
487
458
422
423
424
420
419
425
436
453
472
491
503
520
531
542
560
589
611
642
676
721
757
792
835
885
906
932
973
990
989
989
988
988
988
987
987
987
987
987
988
989
989
990
917
849
771
695
623
543
438
351
301
271
262
275
303
318
332
366
350
326
323
329
345
358
372
383
384
381
383
383
383
387
376
368
364
367
368
374
384
394
404
416
403
386
388
390
393
408
405
392
391
390
394
401
403
424
392
357
365
373
376
383
385
394
397
395
401
403
396
403
413
422
423
432
442
449
452
450
455
454
447
442
450
443
427
422
427
433
444
445
432
426
427
422
432
449
450
442
432
433
435
434
437
446
446
442
440
441
453
456
460
467
476
477
475
479
476
486
493
495
495
498
497
498
502
492
504
521
519
502
511
535
510
473
449
452
460
470
484
493
495
498
497
500
511
513
512
516
519
520
528
539
542
539
540
534
520
515
519
539
541
522
524
529
509
524
526
518
524
535
535
534
533
532
533
535
536
536
536
530
529
529
522
511
515
520
536
549
547
527
515
521
522
516
532
540
527
529
518
498
499
505
502
502
503
503
499
486
475
460
450
445
450
457
459
469
475
477
484
477
464
465
461
457
450
443
451
448
434
429
418
414
422
423
424
430
434
427
425
427
424
421
418
426
430
440
455
436
436
430
418
411
406
410
412
419
414
412
413
435
433
428
423
412
415
426
441
451
452
448
446
447
454
459
453
441
436
434
431
436
440
437
425
419
416
413
416
424
426
425
431
439
441
444
442
446
456
454
443
443
438
444
449
438
435
441
452
463
458
458
458
460
465
473
484
498
488
469
455
448
450
466
445
432
435
439
443
448
448
449
464
478
480
482
489
467
450
452
464
466
475
482
485
487
478
476
477
478
485
473
465
457
458
460
463
458
454
454
461
469
463
478
494
481
478
481
479
482
482
477
472
472
474
481
481
476
474
480
484
469
468
473
486
489
471
467
463
469
476
477
475
472
470
479
497
508
520
527
544
543
506
469
461
477
493
502
517
519
510
507
509
508
504
489
482
485
491
499
503
500
501
508
511
506
504
505
504
499
497
504
495
486
497
509
498
493
505
509
518
533
531
516
512
519
524
521
523
517
511
505
508
509
486
489
493
493
487
480
480
475
467
467
469
474
469
464
460
460
457
464
465
476
487
475
465
441
434
444
439
433
435
445
455
458
455
455
471
480
460
447
446
450
450
445
449
454
457
458
463
471
472
469
470
473
482
468
435
442
459
469
467
447
435
436
433
427
434
439
445
454
468
460
461
456
461
463
465
480
464
465
466
442
429
433
447
457
459
468
474
466
450
444
430
414
413
417
422
425
433
428
426
437
465
508
524
509
516
536
567
593
607
623
661
681
688
722
763
811
861
897
933
970
990
989
989
988
987
987
986
986
987
987
987
988
988
989
990
907
828
759
691
619
520
410
319
257
220
229
263
305
311
326
334
343
358
362
363
370
374
381
384
384
384
382
380
388
392
384
387
391
389
395
401
408
413
403
389
382
378
362
352
351
353
362
384
396
374
368
369
376
394
402
398
394
392
420
421
402
398
408
420
432
428
410
399
388
386
397
402
404
404
404
407
408
414
424
435
434
438
452
446
426
431
438
445
457
457
448
446
458
454
449
450
447
449
451
452
456
464
469
460
449
444
447
454
447
454
466
477
480
478
479
479
482
487
497
507
515
509
511
523
524
514
517
511
492
478
468
465
470
456
439
445
456
468
479
487
495
496
502
506
510
514
506
521
515
525
534
501
502
514
525
533
529
525
531
539
545
548
547
546
546
544
541
545
544
549
552
548
546
547
546
542
533
530
528
517
503
505
526
533
521
515
510
518
528
536
535
521
512
515
514
513
506
504
503
503
497
489
478
466
463
460
452
454
468
451
441
442
448
455
465
459
450
458
459
466
494
464
427
423
426
424
425
424
422
425
431
436
446
448
438
437
435
443
430
420
425
426
444
436
421
422
426
427
428
431
440
441
439
435
432
436
437
433
423
419
