554
552
549
552
553
550
554
563
567
565
553
541
543
544
547
545
549
553
560
572
576
570
559
557
555
550
553
553
552
555
558
560
560
564
569
572
574
571
572
568
562
562
562
565
571
573
569
567
573
575
575
572
573
579
587
588
578
572
576
581
582
583
580
580
588
593
590
588
594
598
599
599
601
606
612
615
618
618
614
613
612
609
607
611
621
631
639
640
636
635
637
638
641
638
634
636
640
646
645
650
655
655
646
640
641
646
649
650
650
652
652
655
658
659
661
657
652
648
648
647
640
634
637
638
637
636
627
621
620
625
630
628
625
624
625
623
621
617
615
609
603
592
590
586
579
569
560
552
546
546
547
543
535
530
526
525
514
503
497
494
487
483
482
476
469
463
459
450
443
437
429
430
426
423
420
420
414
407
399
389
386
383
387
385
387
390
382
378
375
376
372
371
370
370
375
382
386
388
389
387
374
361
355
362
367
370
375
375
375
374
373
375
377
378
377
378
381
383
387
390
395
394
386
383
388
394
394
394
399
401
399
397
399
398
393
395
404
409
409
409
411
410
413
416
416
418
421
420
422
424
430
434
436
432
422
413
413
423
432
438
440
439
437
433
429
428
427
428
429
430
433
435
436
438
441
443
446
446
449
449
448
449
453
457
455
447
442
443
446
453
454
458
460
457
456
456
454
452
449
448
452
452
454
460
469
465
459
457
455
458
461
462
465
468
467
468
475
474
473
463
464
466
465
458
447
443
445
446
449
452
460
462
457
455
456
460
462
463
466
466
470
472
475
477
472
470
466
464
458
457
455
457
457
456
461
461
459
459
464
466
468
470
471
472
469
468
469
474
477
478
474
465
460
460
462
464
469
470
467
462
457
454
458
464
465
471
477
478
476
475
472
462
451
451
457
468
473
474
470
463
463
464
463
464
466
468
471
474
479
480
478
477
475
479
485
483
479
481
484
485
490
492
495
495
496
494
495
494
486
478
477
481
489
491
494
496
499
505
513
519
520
520
520
524
533
535
534
538
539
535
529
526
525
528
528
530
527
524
527
528
523
521
525
521
516
520
520
516
515
515
509
507
508
504
499
498
496
496
490
490
493
499
501
498
496
492
481
476
474
468
461
457
449
442
445
455
459
456
452
447
440
445
447
446
447
448
449
452
452
456
465
467
459
454
453
455
449
448
452
458
461
458
456
452
453
456
455
454
458
457
455
453
449
450
455
461
466
471
469
461
454
451
457
458
458
461
466
467
468
462
461
459
463
463
466
466
456
447
442
443
442
441
440
438
435
442
450
454
453
457
470
488
510
537
565
604
643
671
698
734
775
816
846
865
882
903
924
944
966
984
989
989
989
989
987
935
854
755
668
597
531
450
368
290
225
152
71
17
17
17
17
18
17
17
17
17
19
56
86
114
145
170
181
193
208
224
236
247
262
280
300
317
336
350
365
385
392
406
426
443
460
473
481
484
490
497
504
509
515
517
522
525
528
536
545
547
549
554
554
552
549
552
558
562
561
557
558
557
549
545
548
554
554
553
559
558
561
558
553
555
549
546
544
546
551
555
550
543
546
548
553
551
554
557
563
562
561
563
565
567
569
571
574
569
572
583
588
593
591
579
568
569
571
576
582
584
580
575
568
560
562
565
574
577
577
575
580
583
582
580
584
590
601
599
596
600
601
601
600
599
600
605
604
600
602
609
611
612
616
618
622
622
624
620
623
635
640
639
638
636
633
638
641
641
643
643
638
637
641
642
651
658
659
655
647
643
644
645
643
641
645
650
652
651
650
645
645
644
642
638
637
639
634
629
627
625
630
634
631
628
630
625
618
614
610
606
603
602
600
592
587
583
577
574
569
561
556
551
535
524
516
516
515
509
510
511
507
497
480
465
464
464
461
450
448
448
445
445
440
437
431
424
416
406
406
406
402
401
389
382
379
381
379
375
378
380
377
377
377
372
367
366
364
368
370
370
373
372
375
381
384
382
382
387
392
393
397
400
394
386
380
376
377
384
382
378
379
377
380
384
383
383
390
400
407
402
393
391
393
399
404
395
389
393
401
403
412
415
409
408
410
403
406
416
419
418
423
429
432
430
428
424
431
431
425
423
423
425
429
432
435
434
431
430
434
434
436
438
438
442
448
451
450
451
448
436
431
436
443
443
444
448
451
451
451
453
454
454
456
459
460
458
457
457
456
453
455
452
453
457
459
458
457
461
466
464
459
461
467
463
455
454
454
453
457
463
463
464
461
454
448
447
447
451
448
448
452
456
458
459
462
461
456
451
454
456
454
459
465
471
473
477
472
459
451
454
452
451
455
465
468
463
461
459
454
448
450
451
454
459
469
469
464
460
458
457
460
465
462
464
466
467
465
468
463
459
458
466
472
478
476
469
462
455
455
457
467
478
483
477
467
472
475
472
470
462
455
453
457
458
455
454
460
466
473
477
478
483
489
495
495
497
498
490
479
472
467
467
467
471
479
479
477
475
476
485
485
483
485
487
490
496
506
506
507
513
520
526
533
535
522
510
509
511
509
505
501
500
502
503
510
514
507
509
517
520
517
519
518
520
523
518
515
514
510
507
510
505
506
506
504
495
492
487
481
481
486
493
495
492
483
476
476
477
470
460
454
447
449
451
457
458
455
451
453
455
460
461
460
453
448
451
457
459
457
455
453
450
451
452
454
459
464
463
464
469
466
458
448
447
451
450
447
444
444
440
436
437
443
453
458
458
461
469
471
463
456
455
448
448
447
448
456
461
464
457
459
461
466
469
469
460
454
449
450
455
456
454
449
446
439
433
426
424
430
436
447
460
487
514
547
584
618
651
680
708
742
777
815
844
866
890
910
928
948
960
968
978
986
971
934
877
800
708
629
565
510
454
395
333
268
195
134
82
45
17
17
17
17
17
17
17
19
47
81
110
132
165
193
214
237
255
268
275
282
290
304
320
335
340
352
370
385
400
410
418
430
444
468
488
495
500
508
514
518
519
521
522
527
528
529
531
537
540
545
553
553
552
550
549
550
549
547
543
543
548
550
549
558
561
562
561
553
545
542
544
549
551
556
560
561
562
562
563
566
568
565
564
568
568
566
568
574
575
575
570
563
559
566
563
556
561
559
563
569
570
573
575
579
574
571
568
565
569
571
569
572
578
575
573
572
572
574
573
576
586
589
589
593
598
601
598
601
604
607
609
602
599
601
605
604
603
607
613
621
622
613
604
601
606
611
618
625
631
635
636
638
638
638
637
639
643
643
645
646
641
637
638
640
641
640
642
642
643
647
650
650
649
655
651
651
652
653
651
647
642
636
630
631
633
634
629
618
606
597
596
597
593
597
596
592
593
595
592
587
585
581
578
580
578
563
547
544
541
530
517
514
513
507
506
502
502
501
494
484
477
469
469
471
463
443
421
409
412
418
409
397
393
393
398
398
392
385
384
385
387
385
384
383
378
370
368
368
367
366
365
364
364
369
373
379
382
382
381
377
371
367
366
361
359
361
363
363
370
378
386
387
385
382
373
372
376
376
375
372
372
377
384
389
394
391
389
390
395
400
403
405
407
408
408
410
410
406
406
405
409
413
417
414
416
417
416
418
417
417
413
413
418
420
424
427
427
423
422
426
431
434
439
445
440
434
428
430
435
439
442
444
448
456
458
450
440
432
430
430
433
434
439
443
446
448
447
446
439
438
440
445
445
444
443
445
448
447
448
448
448
451
457
458
457
454
451
454
455
457
454
455
461
461
457
457
461
462
458
450
442
440
452
461
464
462
462
462
462
462
465
464
459
454
451
449
449
452
458
461
462
466
470
473
475
470
460
457
451
453
451
449
450
453
457
460
461
468
474
478
482
480
476
473
471
472
473
471
474
479
483
483
479
478
484
492
499
497
500
488
466
460
474
491
507
517
522
523
520
515
513
510
502
494
485
477
477
483
489
492
494
495
493
489
486
489
498
499
491
481
479
485
490
492
489
488
485
485
482
481
481
482
491
493
496
498
490
477
469
462
459
452
437
430
431
435
440
438
434
432
433
436
445
447
450
449
441
434
433
432
434
433
436
437
439
447
450
448
452
451
451
454
455
447
440
438
437
439
442
444
445
451
451
449
452
458
461
460
457
452
450
444
443
445
439
429
424
426
430
440
450
454
453
455
455
454
454
452
454
453
454
451
448
451
449
445
436
424
422
424
422
424
423
426
430
445
462
491
515
543
575
607
638
667
696
724
752
779
803
833
858
870
883
893
899
912
928
933
921
881
818
745
671
604
547
483
418
352
286
216
142
80
32
17
17
17
17
17
17
17
17
31
63
90
116
135
158
184
202
221
241
258
274
285
297
304
305
313
331
355
374
387
397
407
416
435
453
467
474
479
485
491
497
506
514
523
533
545
550
550
549
548
544
539
528
527
527
532
532
537
543
547
549
549
549
553
556
561
561
559
555
559
565
564
560
553
550
548
550
555
560
564
564
559
562
566
570
567
559
553
554
556
557
551
546
546
553
562
569
574
571
561
566
576
577
573
571
569
568
567
567
570
569
565
567
570
573
572
572
571
570
577
584
583
580
579
583
585
585
590
593
594
599
602
603
604
605
608
611
608
611
612
615
612
613
611
606
607
611
623
630
628
626
626
632
641
644
643
634
626
627
638
652
656
659
657
648
638
636
639
642
641
642
641
640
641
642
643
641
641
639
638
641
639
637
633
635
642
645
639
620
608
602
599
599
598
600
595
594
596
592
582
578
577
572
567
560
555
549
542
533
530
533
536
523
502
490
486
480
472
466
460
458
454
449
438
429
428
425
425
424
412
408
402
397
393
392
392
389
391
388
380
376
372
375
379
380
379
371
367
364
363
367
369
367
361
361
361
359
355
354
354
361
364
363
362
364
368
367
367
367
367
367
370
373
376
377
373
373
378
384
388
383
378
374
378
386
392
392
391
393
394
398
398
401
405
403
397
397
399
396
399
406
402
394
395
400
402
400
407
411
410
408
407
405
407
416
418
421
419
420
420
424
417
413
414
420
427
432
433
431
433
436
438
433
433
441
442
438
434
438
443
440
437
437
438
441
443
446
448
452
456
454
450
447
447
454
455
449
444
437
441
447
447
449
449
451
451
454
456
458
456
449
444
444
449
451
454
456
456
448
446
449
453
457
461
466
473
473
471
470
464
455
451
452
454
460
457
454
456
460
458
451
439
433
438
444
448
448
454
455
458
461
461
458
460
465
468
467
466
462
458
454
455
451
452
459
462
462
462
463
467
469
466
462
458
457
461
465
470
473
474
474
476
482
483
492
495
488
479
477
471
463
460
459
459
459
461
463
469
473
480
485
489
498
502
507
518
526
526
531
526
514
512
515
509
497
495
498
497
498
502
505
506
507
510
510
506
508
506
509
515
517
517
510
494
488
495
496
485
479
482
483
492
497
499
503
503
501
500
496
487
480
474
467
460
455
451
446
441
440
437
440
445
449
449
448
449
450
453
449
445
445
446
451
458
464
460
447
440
440
445
448
451
454
458
459
457
457
456
457
458
451
446
446
444
448
454
456
461
464
459
444
437
438
447
454
456
454
451
450
453
453
457
461
458
455
452
454
458
453
452
448
446
448
450
451
452


544
542
552
560
561
559
0
553
548
549
556
558
552
549
551
555
561
567
566
564
562
562
559
555
552
551
544
542
552
560
561
559
559
564
572
570
567
568
569
567
573
581
578
573
572
569
574
577
579
585
585
586
581
579
581
582
585
589
588
586
584
585
589
594
602
606
606
609
612
615
621
622
619
613
619
629
635
640
636
627
618
615
623
633
636
642
641
639
643
652
656
659
663
668
668
672
679
678
676
675
674
669
665
664
667
669
670
670
664
660
662
665
666
663
667
671
672
661
648
647
644
647
643
633
629
638
646
647
638
629
623
620
616
616
618
614
608
599
590
586
586
586
584
578
570
562
557
547
529
514
509
502
493
488
493
496
489
482
471
456
452
448
437
425
423
417
415
415
415
407
403
404
407
408
404
405
406
401
394
385
378
373
368
366
370
366
363
366
366
373
379
375
367
364
365
372
381
388
386
378
373
372
372
374
380
385
387
385
382
384
386
385
382
380
381
387
386
388
387
391
392
398
402
406
409
409
402
396
397
399
397
395
398
402
411
421
424
426
426
423
417
411
402
403
409
413
419
422
425
430
432
435
431
429
427
431
433
435
439
439
437
441
442
439
439
440
442
450
455
447
440
442
444
447
452
455
455
454
452
444
440
438
440
445
448
449
450
451
450
452
456
458
465
465
467
469
471
472
475
477
474
463
459
459
459
455
454
459
454
447
448
453
459
465
474
479
475
470
466
456
454
456
454
456
462
466
468
465
459
460
469
473
471
476
478
476
473
467
462
462
460
463
465
463
463
464
466
469
465
465
467
469
466
466
471
473
474
477
473
469
469
468
469
469
469
474
480
481
484
483
476
470
468
462
459
464
466
469
470
470
465
461
459
458
461
468
473
479
480
477
477
478
483
487
490
482
465
459
461
461
464
462
462
463
465
467
467
466
466
470
476
478
475
471
474
479
482
480
480
479
482
482
472
463
466
464
465
466
470
479
481
478
478
481
483
486
478
470
466
463
462
461
465
477
488
498
501
499
496
492
497
499
493
489
486
489
489
489
494
497
509
511
511
511
517
515
510
507
508
505
495
489
491
494
503
513
520
520
523
530
535
539
541
546
553
560
564
565
563
556
544
528
519
515
516
517
516
516
515
520
516
517
518
524
525
528
531
529
525
523
521
523
523
517
509
505
504
502
497
491
487
490
493
494
497
496
489
482
484
485
485
479
479
479
476
474
463
457
448
450
455
455
450
448
448
446
443
441
441
448
453
457
456
456
457
452
447
453
457
456
453
448
449
449
452
453
455
455
457
460
462
460
460
464
466
462
464
464
460
459
457
455
452
447
452
455
458
456
448
443
437
434
434
435
438
435
435
438
440
441
444
450
461
486
516
553
594
639
679
713
755
792
823
842
866
901
936
966
986
990
989
989
989
988
988
989
989
990
903
804
716
640
568
484
399
318
240
146
58
17
17
17
17
17
17
17
17
17
17
50
85
118
149
162
169
172
175
190
213
235
254
272
291
306
314
333
347
365
380
394
414
433
447
456
463
472
487
496
500
508
512
516
518
517
522
525
525
525
528
532
535
533
532
532
537
542
542
538
537
537
539
540
542
547
553
563
566
558
555
552
548
544
550
550
549
548
548
552
558
562
563
561
561
568
575
577
573
571
566
568
569
568
570
569
567
566
567
569
567
566
566
568
563
566
569
570
569
577
574
573
581
584
587
588
594
597
599
605
601
590
584
581
579
584
591
596
604
611
615
620
622
620
618
615
610
612
615
618
622
630
630
630
631
633
635
635
641
650
651
652
651
653
647
647
650
654
658
664
667
667
668
669
673
675
676
672
668
670
673
674
674
672
673
671
670
671
670
669
670
664
655
650
645
647
644
641
639
641
641
639
643
638
636
633
626
624
625
627
624
613
606
603
589
579
571
560
558
558
558
553
548
538
531
530
529
514
499
485
477
476
473
471
467
461
454
447
441
435
429
427
422
419
417
414
412
406
402
404
404
400
391
386
383
386
386
379
376
377
377
373
365
359
362
369
374
379
383
383
382
378
374
368
370
370
373
373
372
376
383
385
372
365
364
375
381
386
387
390
386
383
383
381
384
390
390
386
387
390
391
395
399
399
397
400
404
407
407
408
407
410
412
415
418
417
416
418
417
415
415
414
418
419
421
422
434
432
431
429
428
429
430
430
432
434
437
440
438
442
444
442
444
450
451
446
448
452
449
443
439
439
442
445
445
447
450
450
449
450
449
451
454
453
458
465
468
465
465
464
463
462
466
471
473
474
470
469
469
468
464
464
467
461
459
464
466
462
460
461
458
457
455
456
457
460
466
467
469
472
473
472
469
463
460
456
453
457
463
471
469
474
473
472
471
473
477
476
475
478
472
466
465
467
469
467
468
470
470
467
466
465
467
466
468
469
468
469
470
472
467
469
474
474
470
466
466
467
472
475
477
469
466
469
471
477
480
477
474
473
475
481
483
472
466
467
469
474
475
476
474
478
483
487
489
487
488
488
482
470
460
456
465
472
472
471
476
476
473
471
475
480
490
490
482
471
463
460
462
472
480
482
477
476
476
478
482
484
482
479
474
474
469
466
464
465
469
470
476
479
483
488
491
497
497
489
479
470
470
472
474
473
468
472
469
469
475
488
493
496
491
488
482
477
472
470
471
477
487
492
494
496
499
495
486
484
487
485
489
491
485
478
477
477
480
482
481
484
489
490
489
484
480
480
482
488
484
484
487
487
487
491
492
491
490
486
485
483
483
485
488
490
492
496
499
504
509
511
513
517
515
512
510
512
514
518
522
518
516
519
519
516
514
515
519
523
521
519
523
525
528
531
530
533
538
544
548
555
560
558
555
557
555
550
543
536
529
526
527
525
523
526
529
532
534
536
531
529
530
535
542
547
544
534
528
534
536
531
519
511
504
500
497
497
496
497
497
497
497
493
488
486
484
481
480
480
477
472
471
470
466
461
455
452
452
453
458
457
457
458
465
468
469
472
476
478
484
483
478
476
462
455
450
446
443
446
453
460
461
463
467
468
465
461
455
455
458
459
459
464
466
470
472
474
475
472
472
471
467
467
456
446
446
442
440
440
440
441
446
453
461
460
459
461
460
468
497
520
539
571
612
654
693
730
766
808
845
877
906
934
961
980
990
989
989
989
989
989
989
989
966
877
780
700
634
569
488
410
337
263
174
88
21
17
17
17
17
17
17
17
17
17
43
69
99
131
154
171
192
211
227
243
261
273
291
309
321
331
340
352
372
391
406
425
447
462
474
482
481
480
485
492
499
510
513
521
533
536
534
535
536
536
536
538
542
547
549
547
548
550
553
555
553
553
556
555
549
546
546
546
545
542
542
544
543
548
551
558
561
562
564
566
566
570
576
571
568
568
566
564
563
564
568
567
569
572
576
576
576
574
569
564
561
565
571
578
586
589
591
590
587
586
588
588
584
583
587
585
579
583
588
588
589
591
591
590
595
599
603
602
603
600
600
606
613
615
618
619
619
617
616
613
618
624
630
635
635
641
647
649
654
664
671
673
677
678
671
663
650
643
641
650
659
660
656
653
655
662
662
668
675
676
677
670
660
657
661
670
679
680
667
657
653
648
649
651
655
653
648
646
644
642
632
628
629
628
625
624
623
620
620
622
620
613
610
602
598
593
586
577
570
562
554
548
543
540
538
532
521
512
507
505
501
498
492
479
468
464
463
454
443
441
438
429
421
418
421
424
419
410
397
391
388
389
386
384
382
383
381
377
378
369
368
370
370
373
373
372
375
376
380
383
386
389
393
393
390
389
388
384
375
366
367
366
364
367
379
379
383
392
395
391
386
379
374
376
383
389
393
393
393
398
393
393
389
387
390
394
399
403
403
407
407
405
407
413
412
417
423
427
430
429
424
426
426
415
406
404
410
416
427
437
439
438
429
426
432
436
436
437
438
428
425
427
426
429
435
440
443
443
446
447
449
447
447
444
446
452
456
459
460
463
460
456
459
458
459
463
468
464
460
455
457
458
461
468
472
470
467
467
469
465
467
462
463
465
465
467
469
469
472
472
462
453
452
451
453
461
465
470
469
467
468
463
463
466
469
467
461
460
466
465
465
465
464
463
461
466
465
462
468
470
467
463
463
469
466
462
469
473
472
468
470
474
472
463
462
464
464
466
468
467
461
459
461
462
461
461
463
464
469
470
470
471
475
470
468
471
473
476
478
479
475
470
471
476
480
485
484
484
489
481
466
466
468
466
458
459
466
473
477
478
467
453
450
449
451
457
466
468
471
468
465
466
467
468
467
466
466
471
473
471
467
473
475
474
475
479
485
478
472
471
474
475
478
474
470
470
466
467
470
468
465
469
474
479
482
479
480
483
486
487
487
485
486
487
480
472
473
477
480
484
483
487
494
490
480
473
464
469
465
462
468
472
479
483
487
493
497
499
501
499
496
497
501
507
508
502
496
497
499
505
509
506
505
506
508
504
499
495
496
502
506
512
520
525
535
540
541
540
540
540
535
532
530
532
535
538
534
529
525
522
517
507
499
499
502
508
515
523
523
519
520
523
525
531
530
527
522
514
509
505
501
498
494
498
503
506
511
502
497
487
480
471
470
474
479
482
484
483
477
472
469
466
467
465
462
460
455
457
460
464
462
458
456
454
451
448
448
451
451
449
445
447
449
449
452
457
457
455
459
457
458
461
464
460
460
465
465
462
465
470
468
461
455
457
461
464
472
477
474
467
462
454
446
443
440
437
437
438
440
442
437
434
437
442
440
443
461
490
521
555
595
631
665
704
737
775
808
839
868
893
914
929
942
965
980
986
990
990
986
949
888
809
730
663
603
542
486
421
346
274
192
117
49
17
17
17
17
17
17
17
17
17
42
72
104
128
152
176
193
204
223
241
252
260
272
286
307
328
345
359
374
391
403
412
424
439
452
468
479
488
490
496
502
510
519
522
523
525
532
538
539
542
547
547
554
559
564
557
551
542
541
541
543
548
549
550
550
548
552
556
558
555
556
559
559
557
555
558
561
562
560
559
560
559
559
560
561
560
563
565
563
558
559
562
567
568
568
570
564
567
567
566
566
570
578
578
577
577
579
581
582
584
581
582
579
580
583
583
585
586
586
588
590
593
593
592
592
589
592
596
597
595
598
606
612
614
617
614
615
621
620
615
616
619
622
630
634
638
641
641
642
644
643
643
643
645
644
647
648
651
655
662
665
669
668
666
666
664
664
666
666
668
670
671
666
663
662
665
666
665
663
654
654
653
654
658
657
654
652
649
645
637
633
628
626
626
624
619
611
604
597
590
586
582
578
584
584
582
575
569
567
562
550
540
527
514
506
500
497
493
483
482
474
471
470
466
461
457
454
454
447
437
426
416
408
405
401
402
391
376
365
357
351
348
348
348
349
352
352
348
349
347
342
333
324
324
330
337
338
342
351
362
380
396
394
395
396
397
398
393
387
386
389
391
387
387
387
383
380
372
368
370
378
383
386
385
388
392
396
401
404
404
408
410
412
404
393
393
401
403
400
396
393
395
403
403
400
404
409
413
414
413
411
416
423
424
426
428
424
422
424
427
431
436
435
431
433
440
439
442
441
442
440
447
451
451
438
428
423
424
428
434
437
439
444
455
454
453
449
447
446
451
460
456
447
441
447
454
460
464
463
461
462
462
461
453
450
453
457
459
461
460
460
459
457
455
458
461
468
467
464
464
466
463
465
470
471
476
476
476
475
473
471
468
466
461
460
469
467
467
465
467
470
473
474
478
480
478
486
481
477
477
475
472
470
467
468
469
467
465
460
455
452
459
462
465
467
465
464
460
463
467
470
468
462
459
462
468
470
473
475
473
473
465
455
456
461
463
463
463
466
463
464
463
461
463
465
462
462
463
467
469
467
463
464
467
472
478
480
477
476
473
470
472
470
471
474
479
478
476
477
481
483
484
487
489
484
484
484
478
473
466
460
464
464
462
460
459
463
464
467
471
481
485
485
491
497
500
498
499
502
506
501
501
502
505
507
507
507
502
495
490
485
488
495
498
495
494
491
493
501
509
516
520
525
528
532
531
527
525
531
532
525
519
514
513
512
514
518
512
512
514
516
515
514
511
510
510
511
514
515
515
515
517
516
512
513
513
512
508
506
505
506
505
501
492
486
485
480
477
486
489
487
480
472
471
476
476
462
448
453
460
467
473
479
465
456
455
454
454
457
461
459
455
454
452
452
450
451
455
458
458
460
463
465
459
457
456
450
455
462
462
455
448
447
448
451
458
460
464
459
453
447
445
448
455
453
453
454
457
455
448
442
441
442
443
452
455
458
460
460
462
465
474
492
514
547
583
624
662
690
721
759
795
818
845
874
899
922
937
953
969
983
989
989
989
989
961
883
794
713
648
588
516
442
366
292
221
137
59
17
17
17
17
17
17
17
17
17
41
68
95
127
156
171
187
206
223
236
252
270
283
295
311
326
335
348
368
393
400
412
433
453
468
477
481
488
489
484
486
493
500
511
523
533
535
532
531
530
531
527
528
532
534
532
531
537
544
549
548
542
540
541
541
538
540
539
539
542
547
548
547
546
551
555
556
558
562
560
562
568
568
565
567
562
558
556
559
558
550
544
547
548
552
555
555
556
564
567
564
562
563
563
568
573
570
573
577
576
575
575
575
570
573
576
579
583
586
587
581
578
583
587
591
594
597
596
596
597
604
612
617
618
616
619
619
611
608
603
606
616
625
623
619
616
618
620
627
636
640
641
642
648
652
652
650
649
652
652
654
661
666
665
660
662
661
660
665
668
665
662
661
657
656
656
656
659
661
661
657
654
651
650
653
655
653
646
643
637
627
626
627
622
625
624
617
614
614
608
601
596
595
591
581
569
564
563
558
555
549
538
534
526
517
513
509
504
502
496
490
485
479
469
460
451
445
440
438
431
418
414
414
412
410
409
411
404
407
405
397
389
383
378
372
368
357
353
349
354
361
361
364
368
372
371
367
366
366
368
369
368
372
374
375
381
382
375
377
379
378
376
376
377
376
380
385
387
381
377
374
376
377
381
388
388
383
385
389
388
387
387
390
391
391
395
397
398
399
403
407
411
412
413
412
413
413
414
414
412
414
413
411
411
412
412
412
414
420
426
428
428
429
432
431
433
437
439
437
435
431
427
424
429
432
434
438
442
442
443
446
446
448
453
452
449
443
443
447
445
446
450
450
450
452
452
456
458
456
458
462
452
452
451
455
464
462
455
452
456
461
463
466
466
464
465
464
459
460
464
462
459
461
459
456
457
456
453
450
451
454
459
460
460
463
470
478
478
471
464
455
455
456
456
457
460
462
463
465
466
464
463
462
463
468
469
469
472
473
472
468
467
468
462
459
459
461
463
465
467
466
468
468
466
461
459
461
463
464
462
463
467
468
470
465
465
471
474
473
474
476
478
483
487
491
489
487
492
494
493
486
485
484
481
485
492
483
476
474
471
465
463
467
475
481
488
496
507
518
524
524
525
529
530
529
525
526
524
527
529
517
509
509
509
514
513
504
506
505
501
504
505
509
513
518
522
525
527
523
510
502
502
500
497
490
485
479
476
476
477
480
486
492
493
493
491
490
480
472
464
456
449
444
442
446
451
454
451
444
445
451
454
454
450
449
450
451
448
447
447
451
452
447
448
448
443
439
442
446
448
446
447
447
444
447
450
457
461
454
459
463
463
459
456
454
446
441
441
443
445
448
453
460
466
467
469
470
467
467
464
454
443
438
436
437
439
440
441
441
434
433
437
438
444
456
476
504
537
573
608
643
672
705
743
785
816
842
869
895
920
934
948
965
985
990
989
989
989
989
933
840
746
668
604
543
475
400
327
253
169
89
22
17
17
17
17
17
17
17
17
17
37
74
106
130
148
163
180
200
217
232
244
257
280
296
305
320
335
350
369
386
405
426
440
446
454
461
476
485
484
477
473
477
485
495
500
505
506
517
531
530
519
504
496
495
499
508
515
529
538
539
544
548
552
553
551
547
547
551
551
553
552
549
551
554
549
550
556
554
552
558
561
567
571
574
574
574
573
573
566
556
555
564
565
562
561
562
562
561
560
559
560
560
560
561
566
570
571
574
570
567
569
574
574
572
569
571
570
575
583
584
584
584
589
590
583
586
585
589
596
602
598
596
602
605
601
602
605
608
612
617
619
622
625
623
620
620
627
632
636
635
638
640
640
640
642
644
647
650
656
659
660
667
672
672
668
670
666
664
658
647
647
644
641
645
649
645
648
647
646
645
644
647
652
649
647
647
650
652
642
634
632
630
624
613
609
611
613
606
598
597
598
592
585
579
577
577
571
558
542
535
528
525
517
507
505
501
497
488
482
474
465
463
457
444
431
423
419
418
418
416
413
404
394
391
390
386
384
383
378
371
370
371
370
371
371
371
365
367
363
357
356
357
356
356
357
356
358
362
360
360
360
361
363
365
364
359
355
354
357
361
362
364
365
369
373
370
368
374
377
378
384
393
388
383
379
380
385
387
381
378
382
381
375
376
379
382
388
392
397
397
392
394
400
401
396
399
401
401
406
404
410
413
415
417
417
413
411
402
399
405
411
417
421
420
417
413
411
410
410
416
421
423
425
428
430
435
435
435
431
430
434
429
430
432
433
438
444
446
446
443
438
438
442
441
444
444
445
439
440
446
451
448
445
445
447
449
453
456
455
450
450
453
458
462
460
462
463
455
448
443
443
445
442
443
449
453
454
449
447
447
444
448
451
454
456
457
456
455
454
455
459
454
453
452
457
459
455
455
455
458
459
454
452
452
450
456
460
454
451
450
450
449
451
453
452
451
457
456
453
456
458
460
454
448
448
454
458
449
445
450
459
462
462
457
457
460
468
468
465
464
462
454
450
455
458
462
466
467
471
473
470
461
457
460
468
470
471
471
470
468
467
467
466
467
466
469
470
470
471
469
471
474
480
483
488
494
504
507
511
515
519
518
520
517
513
514
515
511
510
505
500
500
504
504
506
505
501
500
502
500
501
506
508
513
515
509
499
493
492
491
492
486
482
482
484
484
485
484
484
489
490
486
481
478
472
466
463
449
435
431
431
431
430
437
441
441
438
436
427
426
431
433
434
435
431
427
429
432
433
431
430
430
425
426
437
444
450
451
446
443
440
440
439
430
427
434
438
437
440
442
445
449
452
448
443
435
431
431
437
439
444
444
443
440
436
433
431
431
434
434
436
439
433
424
425
423
425
423
421
423
430
442
463
490
521
552
591
630
668
707
745
781
811
839
865
882
904
922
942
966
982
989
989
989
989
973
904
807
713
635
573
512
439
357
280
207
121
43
17
17
17
17
17
18
17
17
17
17
17
42
76
106
127
143
167
188
202
215
231
244
260
276
281
294
305
323
342
363
384
412
429
442
454
461
469
479
483
475
464
466
475
483
491
498
506
516
524
524
516
517
518
515
514
516
520
526
529
529
524
522
523
524
527
523
524
526
527
531
531
533
535
531
535
538
534
525
524
526
534
540
542
543
551
554
551
538
527
524
528
531
536
539
539
536
535
536
538
542
548
549
549
546
540
545
556
558
554
549
552
558
557
551
551
551
554
557
559
561
563
567
573
568
558
557
560
570
576
575
574
579
588
590
588
586
589
588
588
587
586
588
592
598
604
605
610
616
608
609
618
625
628
631
636
637
639
638
631
624
624
634
641
641
642
642
648
650
649
645
643
639
633
629
626
622
620
624
630
628
629
631
633
630
625
626
627
620
615
611
611
615
612
601
595
594
592
588
584
576
571
568
566
561
549
540
534
529
522
514
505
500
499
497
493
489
484
476
468
459
452
445
444
444
442
428
415
409
406
403
393
385
384
377
366
359
352
347
348
353
351
355
356
352
344
341
340
341
341
337
337
337
341
336
331
332
339
337
336
339
338
334
331
334
335
333
333
334
334
339
340
341
336
336
341
345
343
348
350
352
351
350
351
352
353
357
355
355
360
371
372
364
359
356
357
361
365
364
363
362
364
368
376
376
374
373
376
381
385
387
387
389
390
392
389
395
396
393
394
396
391
390
387
389
396
405
406
405
406
408
411
412
415
412
406
405
404
404
404
403
409
411
415
416
421
422
424
423
421
421
423
421
423
425
424
420
423
421
422
423
422
424
429
432
434
437
441
443
442
441
440
432
425
424
426
424
421
424
427
427
430
429
430
430
436
440
441
440
435
435
430
424
423
427
432
441
444
440
439
435
434
437
441
440
438
438
437
435
433
434
428
434
445
448
445
442
442
440
437
438
440
440
432
431
429
428
431
436
438
435
434
440
446
443
444
440
441
447
440
441
442
442
444
448
443
439
438
440
440
446
450
452
446
444
448
448
452
460
460
460
459
460
465
467
465
461
459
453
453
457
466
476
482
481
477
476
482
489
500
504
509
510
508
507
511
504
495
487
485
487
492
498
499
496
493
491
490
484
483
484
489
490
491
485
479
480
483
481
477
474
469
465
464
467
468
472
473
472
471
470
470
464
460
453
446
439
431
423
417
416
421
432
435
430
430
428
422
419
417
418
417
419
420
423
425
429
434
434
439
441
442
440
433
427
422
424
424
423
419
420
424
430
424
419
419
424
427
433
436
436
434
435
440
439
437
439
439
443
439
432
431
431
428
428
429
424
423
418
417
417
418
421
422
426
433
438
438
435
432
436
447
462
488
506
535
575
615
649
678
710
749
787
815
843
865
891
911
930
951
969
982
990
990
990
975
925
849
749
665
594
533
461
384
307
229
145
61
17
17
17
17
18
18
17
17
17
17
17
31
57
84
115
136
150
169
188
203
218
232
254
273
291
306
317
331
345
362
379
396
411
425
442
449
453
464
472
481
489
489
488
493
500
510
518
523
526
525
531
536
537
536
538
536
534
533
536
535
531
530
528
522
525
531
535
533
533
534
534
534
539
546
546
548
552
550
550
550
547
544
545
547
548
547
544
547
547
551
554
554
548
543
544
552
556
556
553
552
553
555
562
567
563
564
564
560
554
553
550
557
562
563
565
564
567
570
573
575
574
576
575
579
581
586
587
589
591
593
594
599
595
595
600
603
607
609
610
614
613
612
617
620
627
633
634
636
634
632
631
630
637
643
643
643
649
648
644
643
646
649
655
658
663
660
651
643
640
640
641
644
650
647
647
644
644
645
645
646
646
645
645
643
641
638
634
634
630
633
632
629
625
622
616
610
607
600
590
584
582
583
581
574
570
567
564
557
550
547
541
537
536
527
518
503
499
498
492
485
483
476
464
450
440
438
431
427
426
417
408
403
405
408
403
396
384
376
372
371
368
364
361
361
359
356
359
362
363
360
358
357
359
361
364
368
363
362
362
360
356
351
351
353
354
356
362
367
370
374
378
378
373
371
363
357
352
354
357
355
355
359
360
364
367
374
382
384
381
382
384
383
381
378
374
376
382
382
381
388
393
391
391
395
396
396
397
401
405
405
408
411
412
412
415
416
419
419
420
418
416
417
416
418
422
424
424
423
421
423
422
422
420
424
432
429
423
423
432
432
431
430
433
435
435
435
436
435
430
431
436
440
446
448
446
445
443
437
432
435
438
442
446
447
449
448
452
452
447
447
451
449
446
447
449
445
441
441
445
448
447
447
444
446
451
452
450
448
452
450
443
439
435
441
449
454
462
463
458
456
458
460
457
452
453
457
454
449
443
447
446
447
447
448
449
451
452
452
456
456
455
453
445
444
447
448
449
453
462
465
468
464
456
453
454
462
462
464
466
466
468
469
474
474
471
465
464
469
473
473
471
474
477
482
484
481
475
467
461
459
462
463
467
471
481
491
502
501
502
502
501
507
513
517
517
512
510
507
508
510
507
502
500
499
496
500
509
512
507
507
507
506
513
518
515
510
513
513
501
494
493
489
489
494
496
490
487
488
494
501
506
504
499
493
494
496
491
478
465
457
450
442
440
429
416
412
415
422
429
435
438
443
444
448
448
447
450
453
453
448
445
449
453
449
447
448
442
443
447
446
445
441
437
433
434
441
443
438
440
442
443
443
440
439
441
445
449
448
449
450
449
449
449
447
451
454
459
462
454
450
447
448
443
439
442
446
447
445
444
442
443
445
449
451
457
482
517
549
583
618
640
660
692
735
776
811
841
863
885
905
915
927
942
959
973
990
989
982
946
883
790
697
618
545
474
405
335
272
206
121
48
17
17
17
17
17
18
17
17
17
17
37
65
88
109
135
155
175
200
219
228
240
257
283
303
322
338
352
361
372
381
396
420
438
452
463
473
479
485
495
497
502
510
519
529
538
544
544
540
540
541
548
548
549
549
547
545
546
553
561
560
557
558
558
558
552
547
548
553
554
552
551
551
552
557
561
562
565
566
564
566
564
567
569
568
565
563
563
563
567
566
560
565
571
570
567
565
566
573
575
577
576
573
568
567
572
579
586
587
584
579
577
581
586
590
590
590
584
583
579
585
592
601
595
599
600
600
601
604
603
602
603
607
610
610
615
623
626
628
628
625
618
613
619
626
630
634
638
641
645
649
651
651
651
651
655
660
656
658
664
666
664
663
666
662
664
666
673
679
679
679
670
663
658
656
656
662
666
666
667
662
656
648
645
645
641
639
640
644
645
642
641
639
635
634
635
633
630
624
618
611
605
598
589
584
587
584
578
565
552
541
534
527
521
515
511
510
510
506
499
489
478
468
462
459
452
444
440
432
429
428
420
413
409
405
402
401
397
395
392
389
388
386
381
374
368
371
369
367
367
366
359
359
364
367
365
366
366
369
372
379
384
376
366
361
362
365
370
367
372
377
376
375
372
367
364
366
367
369
371
376
378
382
387
386
387
385
388
388
394
400
402
404
405
406
403
399
397
396
403
408
410
416
420
422
420
416
413
410
406
406
413
415
415
418
420
424
421
421
420
419
424
430
435
439
438
437
438
439
433
424
426
430
431
430
436
439
442
445
445
444
445
445
449
449
447
447
452
458
463
461
461
456
452
448
444
444
444
448
452
454
456
454
452
453
454
456
459
461
461
461
458
457
457
459
463
464
463
468
473
471
470
470
466
463
463
464
466
469
463
460
463
463
465
469
468
472
477
482
486
487
487
485
485
489
488
484
482
480
482
477
479
483
480
478
479
476
477
486
496
505
511
511
511
515
520
526
531
534
529
529
530
529
529
530
524
518
513
512
508
505
505
507
513
515
514
511
512
515
515
514
513
508
504
498
496
496
492
486
486
486
487
487
482
485
492
500
508
511
503
497
494
489
479
463
449
438
434
436
441
443
443
440
436
435
438
441
445
449
451
449
448
443
441
444
443
445
449
453
454
451
452
449
444
444
443
444
444
443
444
445
447
448
450
451
447
449
447
448
447
446
447
449
449
449
451
451
448
448
450
447
447
452
454
454
454
457
454
450
448
451
458
463
466
466
459
451
447
445
443
449
468
500
530
563
606
646
679
709
742
770
784
807
831
859
889
909
925
939
955
962
964
966
955
925
867
788
711
635
562
490
421
354
281
207
124
49
17
17
17
17
17
18
17
17
17
17
26
50
77
103
136
163
181
200
215
225
238
257
278
294
310
329
349
365
381
396
410
430
445
458
466
478
484
492
499
510
517
522
529
538
545
553
560
565
571
573
572
566
559
556
560
563
563
561
563
568
569
571
571
569
566
567
568
563
559
559
565
571
574
574
572
574
578
578
580
581
583
585
589
573
555
552
557
566
572
574
575
577
579
581
585
590
592
589
589
587
585
585
582
581
581
582
586
591
592
587
588
590
593
596
600
598
594
593
596
595
597
603
604
607
612
612
608
607
610
615
619
619
617
610
613
619
623
625
627
630
640
645
645
641
639
639
640
640
644
648
658
662
660
661
666
673
677
673
674
673
671
672
668
664
670
677
676
668
665
667
670
672
666
659
662
666
667
665
663
663
656
655
653
652
649
648
645
644
645
641
636
633
626
621
615
613
613
617
611
608
601
598
597
591
582
570
562
557
557
552
548
536
522
507
504
505
503
495
483
471
464
463
457
451
446
440
436
431
427
424
421
419
419
415
411
403
399
395
396
391
380
373
371
371
373
373
373
371
371
375
375
369
369
369
370
375
380
380
377
372
371
370
371
376
382
384
383
382
379
378
379
380
380
378
380
383
387
391
393
396
402
395
384
383
392
398
395
390
389
390
394
394
395
400
402
404
407
409
412
415
417
415
406
403
408
412
415
418
421
425
429
429
431
432
432
434
438
438
435
433
434
435
426
422
427
434
440
443
446
446
446
447
444
442
444
448
446
447
450
448
447
452
458
461
461
458
456
456
455
452
452
452
453
456
459
459
460
465
470
475
474
470
468
466
463
460
463
462
460
468
473
471
469
466
460
451
449
453
455
458
464
466
464
463
466
467
464
467
468
470
472
476
481
482
485
482
480
481
477
477
478
480
480
482
487
491
495
501
497
486
481
484
488
488
480
476
480
485
491
496
503
511
515
517
523
533
543
544
543
541
535
528
528
528
529
528
526
521
514
517
517
517
516
520
526
527
524
521
524
525
523
517
508
495
489
492
494
495
492
493
493
494
498
508
515
513
506
497
493
489
488
486
478
471
463
455
453
452
452
451
451
450
449
451
454
457
460
464
460
461
463
466
464
456
452
453
456
458
458
457
459
461
459
457
455
454
453
452
453
452
453
455
456
454
454
457
458
459
457
454
453
452
451
448
447
452
460
460
460
459
466
470
470
472
475
477
472
458
446
448
453
455
453
447
440
437
435
441
448
457
476
501
530
564
606
645
678
707
738
769
799
826
852
877
902
918
929
938
950
957
968
969
959
926
866
773
676
591
522
460
396
326
258
192
109
34
17
17
17
17
17
17
17
17
17
17
28
59
83
112
142
162
175
192
208
223
241
262
281
302
325
346
359
375
393
405
418
431
443
462
477
482
487
496
505
514
520
529
539
549
551
545
539
539
544
550
548
550
550
549
549
550
549
550
554
557
559
562
568
571
572
574
575
571
569
572
578
576
572
567
564
566
567
567
563
564
567
566
569
571
570
571
573
577
580
581
580
583
584
583
582
573
567
566
573
582
588
591
591
585
580
579
578
582
587
582
580
577
575
576
582
585
585
584
586
591
595
595
599
601
608
612
613
615
613
607
607
612
611
611
617
621
627
633
638
635
634
635
635
640
647
652
645
638
638
649
650
652
656
661
667
668
662
658
658
659
656
652
653
661
666
668
671
666
660
663
664
662
660
660
661
662
664
663
662
663
664
658
652
652
648
642
641
644
643
643
643
634
620
617
615
614
613
609
599
593
590
588
588
583
577
572
567
561
555
549
541
535
532
528
524
519
511
495
481
469
464
462
466
465
462
454
447
440
433
434
433
430
430
416
402
391
385
385
382
378
378
379
374
368
364
367
371
365
365
367
366
372
377
374
371
369
371
374
371
365
365
365
366
371
376
375
377
383
390
400
396
385
376
375
378
385
381
375
373
375
379
390
389
390
391
388
383
382
384
396
399
398
400
407
408
411
411
412
414
412
410
411
409
407
409
411
413
416
416
420
425
430
432
432
436
440
430
427
428
423
423
430
435
436
434
434
436
439
438
435
438
441
447
446
446
447
448
448
446
452
453
448
446
449
453
459
459
450
442
447
451
450
445
447
450
451
456
451
455
458
461
459
462
460
451
441
442
449
456
460
462
460
465
470
468
470
475
466
459
464
469
462
455
453
445
444
450
456
459
460
463
466
466
467
471
473
471
471
466
464
468
467
467
465
467
463
460
463
462
464
464
464
466
464
462
457
461
468
473
477
477
478
476
481
487
489
485
481
476
474
477
488
490
489
486
484
480
478
479
491
495
506
513
518
526
530
534
536
528
520
517
513
515
514
510
506
508
512
513
507
505
511
507
504
506
509
512
516
518
521
522
515
503
499
497
491
485
487
484
485
491
488
491
495
499
497
492
491
487
483
476
468
463
452
443
438
431
434
439
445
448
448
451
456
455
453
456
454
455
453
449
451
454
454
447
444
440
444
445
446
448
451
451
450
447
446
448
449
452
454
454
454
453
450
454
452
452
455
457
455
454
456
459
458
450
446
449
457
462
462
459
456
456
457
458
454
451
449
444
436
432
427
427
435
431
433
440
455
475
500
527
548
577
614
649
681
718
754
792
823
857
880
906
927
946
961
968
974
984
990
990
968
922
844
744
651
579
518
458
400
334
281
197
106
48
19
17
17
17
17
17
17
17
17
39
83
96
102
129
186
214
213
226
229
240
259
270
284
312
330
331
352
366
377
388
390
418
447
466
459
463
467
469
501
499
493
499
502
510
513
519
522
529
542
553
559
557
540
544
549
557
564
557
537
539
549
550
541
547
549
544
552
550
545
548
534
535
546
552
548
550
563
568
567
569
555
546
555
557
564
561
553
553
558
559
556
555
553
559
559
564
577
573
573
558
554
563
566
570
570
576
577
578
580
576
569
567
567
578
587
584
582
583
584
587
591
591
590
595
603
604
603
600
599
601
599
598
596
598
606
613
618
621
622
617
615
616
625
630
629
629
626
629
633
636
635
638
641
644
647
648
651
655
656
656
655
653
657
663
661
660
652
654
653
649
650
652
656
655
655
655
656
651
650
645
642
641
640
643
641
635
630
624
622
622
625
627
626
623
621
621
613
606
605
599
588
577
575
578
572
558
542
540
535
532
521
526
538
541
530
519
510
486
473
466
454
453
452
455
458
449
432
428
423
422
416
419
410
397
390
379
374
363
376
384
393
388
377
368
361
366
370
356
352
363
371
374
373
358
351
367
358
346
341
345
343
350
363
360
356
359
371
388
391
389
386
375
367
363
374
376
375
354
346
363
377
393
394
386
378
381
386
386
395
400
393
385
394
403
411
417
416
419
411
403
404
412
406
403
403
406
408
412
413
410
406
414
418
420
427
429
430
424
422
422
426
428
426
423
421
422
423
430
436
435
434
431
428
433
441
447
444
438
436
434
432
434
440
445
444
444
442
445
446
439
436
435
443
451
451
453
455
454
455
455
453
451
445
437
434
438
447
444
440
439
436
440
445
443
446
446
446
450
458
459
451
442
446
453
456
456
453
452
456
460
458
455
456
457
460
463
462
465
468
464
462
461
461
463
463
469
471
473
472
467
462
465
470
476
474
473
476
480
485
487
488
488
489
495
497
499
501
505
502
497
500
508
512
519
523
523
530
539
540
536
537
537
532
524
518
512
506
506
510
511
511
513
508
506
508
509
509
511
513
511
512
514
511
505
499
496
496
495
488
484
485
482
479
475
473
473
471
468
465
467
466
462
456
449
443
438
432
433
438
438
439
435
432
431
435
435
438
433
440
449
444
435
430
427
432
439
441
443
437
432
430
429
432
435
438
444
447
448
450
447
448
452
451
452
447
448
454
448
445
444
439
433
432
433
437
431
428
427
424
431
442
448
452
453
452
455
448
437
428
425
418
409
410
410
421
425
425
432
430
427
440
471
499
530
564
611
654
697
734
757
778
818
843
864
894
922
943
962
976
990
990
990
989
990
967
889
784
687
612
543
468
391
320
249
166
84
20
17
17
17
18
18
18
17
17
17
17
28
57
88
115
141
159
178
194
210
225
243
266
282
302
318
338
355
364
367
375
387
401
420
438
456
469
480
489
494
502
505
511
519
528
541
546
549
545
549
548
541
541
547
550
551
551
554
560
561
557
551
554
558
562
571
566
564
567
565
559
555
553
555
556
563
568
569
574
579
580
574
565
562
561
553
555
558
560
566
567
563
560
562
561
568
570
569
570
576
577
579
584
587
589
591
592
597
592
587
578
575
575
576
575
581
587
589
589
591
595
598
601
601
600
601
603
606
609
611
613
610
616
620
620
620
621
620
622
622
625
629
635
636
638
637
638
640
651
653
657
660
663
665
667
664
659
664
670
669
660
658
660
662
664
668
674
674
674
675
675
672
671
674
679
683
676
669
666
661
654
648
650
648
649
652
652
649
639
628
628
628
627
621
610
602
603
604
601
595
588
590
590
586
581
580
577
575
570
555
539
528
522
515
508
499
493
488
487
481
477
469
459
456
454
447
440
435
432
427
421
419
410
405
395
388
379
374
377
387
388
387
385
381
378
372
368
363
358
359
361
363
362
357
359
356
357
359
365
365
360
356
355
361
368
374
380
382
386
386
374
362
360
355
354
364
371
377
379
376
371
373
377
384
386
386
389
386
390
387
381
380
383
388
395
394
392
394
388
392
395
399
402
410
415
415
419
418
414
412
422
433
437
440
449
448
454
460
460
453
446
432
415
415
426
434
435
436
435
429
425
424
425
423
423
419
417
430
441
442
437
436
439
443
442
438
441
445
449
446
436
431
437
439
445
451
451
453
454
451
445
440
442
445
447
448
449
451
450
443
440
442
447
452
455
458
461
458
458
460
460
459
454
450
448
452
456
455
454
460
466
462
458
453
452
453
459
464
462
464
463
461
461
466
470
469
470
475
487
493
487
478
476
472
472
472
476
479
479
473
477
485
494
500
503
507
514
520
523
530
537
541
542
541
536
533
527
517
512
503
504
510
521
531
534
531
529
517
508
500
491
483
485
486
480
481
482
480
473
472
477
480
479
479
480
480
482
487
490
489
483
477
477
475
471
467
465
454
442
436
425
420
416
417
417
426
434
436
437
440
446
450
444
436
435
442
443
437
434
438
437
438
438
437
440
444
445
448
452
451
456
460
462
462
454
439
431
442
448
450
449
449
437
436
436
434
433
435
440
443
446
444
440
436
438
443
446
447
447
444
445
443
439
436
433
429
430
431
423
418
417
413
410
409
420
440
468
496
528
567
612
657
699
728
765
795
832
864
888
921
958
989
989
989
989
989
989
989
989
923
829
736
654
583
513
439
363
285
203
118
45
17
17
17
17
17
17
17
17
17
17
35
66
96
128
152
172
190
207
224
237
249
265
277
290
303
319
341
360
374
383
398
412
427
444
460
468
474
481
491
501
509
517
522
525
532
537
537
532
534
539
542
548
548
549
552
549
549
550
550
552
557
557
555
557
559
560
557
557
562
566
565
560
558
560
563
561
560
562
562
562
564
568
571
574
578
575
569
566
569
571
571
565
561
563
565
569
564
566
570
577
584
583
589
594
588
580
583
588
584
581
577
572
573
576
581
584
591
595
596
599
605
610
617
621
618
612
606
609
604
592
591
594
595
598
600
607
617
626
622
627
630
634
631
624
629
635
641
647
651
650
652
654
659
665
670
666
661
665
666
663
659
656
660
662
661
660
658
663
665
666
662
666
671
672
678
682
671
663
666
664
655
651
640
638
639
636
633
627
624
618
617
620
620
618
617
615
611
609
603
598
593
585
577
573
567
561
553
548
540
534
531
529
524
512
503
495
486
480
480
479
470
457
450
451
450
441
439
437
436
433
430
426
415
401
389
384
381
384
380
377
379
377
373
370
366
356
353
361
366
369
373
371
370
369
374
371
361
362
362
364
365
367
360
360
363
364
364
362
368
373
380
381
377
375
377
380
377
373
369
366
365
371
374
375
378
383
386
389
390
391
390
390
391
392
394
401
403
403
407
411
415
418
419
411
406
406
404
403
407
414
420
424
426
425
422
423
433
429
424
427
431
430
426
423
428
433
436
436
437
444
448
448
441
439
441
444
443
442
443
445
448
452
452
449
456
447
439
438
444
445
447
449
451
449
448
451
453
453
452
449
445
449
454
463
472
468
457
450
450
448
445
445
448
450
454
458
461
467
474
471
464
459
457
459
460
463
456
450
451
452
455
461
468
473
476
475
468
460
458
456
453
451
450
453
455
458
462
469
477
476
478
483
489
488
483
479
478
478
484
491
489
486
488
489
488
485
485
483
474
473
479
487
494
505
510
510
511
517
522
525
524
530
536
530
529
529
529
526
523
517
514
517
521
523
523
521
522
520
518
517
512
506
503
502
499
497
493
488
497
499
502
505
512
510
507
503
505
504
498
499
497
488
478
469
465
463
461
453
445
447
451
443
440
443
443
437
436
442
447
446
446
446
445
445
442
441
441
445
447
450
446
442
442
438
438
440
441
446
447
444
443
443
447
443
438
440
443
444
450
454
454
454
453
453
453
451
448
447
449
451
456
458
458
459
459
460
453
456
461
455
448
443
436
436
440
450
461
460
459
463
467
472
470
461
462
475
493
520
559
605
643
677
716
756
792
820
845
866
898
929
946
965
982
990
990
989
989
989
964
898
797
692
609
539
477
410
339
267
192
103
29
17
17
17
17
18
18
18
17
17
17
28
64
97
130
156
175
192
207
222
235
254
280
306
323
337
355
368
387
404
409
414
429
452
460
457
467
478
485
495
502
509
513
520
529
542
551
556
558
563
563
561
559
561
555
555
561
568
564
562
571
575
571
564
563
563
563
562
556
557
564
565
567
569
574
578
571
571
575
578
580
581
582
586
585
580
581
582
576
573
573
572
576
582
586
589
589
589
590
588
582
581
578
578
582
586
592
597
597
600
598
594
599
605
614
617
615
606
603
606
609
609
604
603
603
603
603
600
603
604
607
613
619
621
620
617
621
627
634
637
640
643
642
641
645
650
650
651
656
656
661
663
662
659
662
665
671
676
671
659
659
661
668
677
680
676
674
675
674
670
672
674
675
674
672
670
667
670
672
671
667
664
659
657
657
659
657
650
645
649
649
655
655
650
642
641
640
638
633
627
612
601
594
591
588
583
573
566
558
555
547
538
537
535
533
527
520
508
500
496
486
475
467
463
460
459
455
444
438
436
432
422
416
418
414
406
397
392
394
390
385
380
377
374
375
375
375
378
382
376
377
379
383
379
373
369
372
374
376
376
378
375
368
370
370
370
371
374
376
380
379
377
382
385
390
391
390
387
391
395
392
391
396
399
404
400
395
398
398
399
403
407
405
404
410
416
421
425
420
416
416
416
416
420
423
419
407
399
403
413
421
425
421
416
418
423
429
429
428
430
432
434
437
443
444
444
447
444
438
438
439
440
440
446
450
455
454
443
441
439
443
445
441
441
444
452
459
460
456
455
452
450
453
459
466
463
462
463
464
465
467
467
464
454
458
462
461
462
461
462
464
469
468
468
468
470
467
466
466
462
465
467
470
468
469
472
474
469
466
464
466
465
468
472
467
462
462
461
459
462
466
468
471
468
465
462
466
465
467
466
465
462
462
461
466
468
469
471
480
478
470
465
465
465
461
464
468
470
471
475
481
483
484
484
485
482
487
485
478
471
470
470
471
477
483
483
482
485
487
494
499
504
512
520
526
524
518
520
527
532
533
532
531
530
531
532
530
528
530
524
521
520
519
518
527
529
527
519
520
518
514
514
509
503
502
499
501
498
494
498
494
492
490
489
497
506
497
490
485
483
485
481
477
476
473
464
454
450
450
456
464
459
449
444
448
453
454
451
449
445
446
448
450
448
444
442
447
454
456
456
454
444
442
448
443
440
443
447
453
450
445
445
445
449
450
449
451
455
458
460
460
456
452
450
451
456
456
454
455
454
449
447
448
447
447
448
449
453
449
446
443
447
444
438
437
438
439
439
443
442
443
447
452
469
491
510
539
573
615
661
705
739
769
802
828
856
884
910
935
950
963
981
990
990
989
989
990
964
898
800
702
620
563
501
422
344
271
185
92
22
17
17
17
17
17
17
18
17
17
17
31
62
95
125
148
165
181
194
215
237
252
270
285
293
307
327
347
365
385
404
413
425
447
462
469
471
485
496
501
501
503
513
516
526
531
534
536
539
538
540
541
538
542
547
561
563
563
563
563
566
570
568
563
558
555
547
546
544
544
552
552
550
551
557
555
552
550
549
554
559
561
561
562
565
564
568
576
575
575
582
588
592
587
584
584
579
577
572
569
568
571
564
564
564
570
579
583
584
584
583
588
591
587
580
575
571
572
577
576
573
570
574
585
597
593
601
611
609
611
607
604
605
610
612
617
618
617
618
618
623
622
620
621
626
629
633
636
638
643
647
643
643
649
655
660
665
663
663
666
662
655
647
647
659
663
660
659
657
659
664
666
666
666
664
661
658
657
653
655
652
647
645
641
635
642
649
652
653
644
638
635
629
624
615
609
600
599
600
592
585
581
568
568
574
577
568
553
543
542
544
534
523
511
503
495
488
482
477
465
459
459
461
457
456
446
442
437
428
420
413
405
399
400
406
410
405
392
384
376
372
367
369
361
361
362
361
358
359
357
358
359
362
361
357
354
352
351
353
355
353
353
355
358
360
354
360
370
377
380
376
376
377
376
370
366
365
367
376
374
357
353
358
366
371
371
375
377
381
388
389
385
375
373
381
383
387
389
387
388
395
398
398
398
401
406
411
412
410
407
406
409
410
411
411
410
410
415
420
425
430
431
433
428
418
417
418
416
423
417
419
420
423
427
434
429
429
431
430
427
426
428
430
430
431
434
440
436
428
432
433
434
438
442
447
448
446
443
441
446
452
449
439
440
444
448
448
446
445
447
450
450
442
443
443
446
451
448
442
440
438
441
435
437
439
445
452
457
454
448
446
447
448
448
448
450
448
442
443
440
441
444
444
446
445
445
443
445
448
447
450
450
447
443
442
443
445
451
451
451
452
446
440
439
443
447
446
449
455
455
454
452
453
451
452
453
455
454
447
445
448
449
445
442
451
455
455
456
455
457
455
458
459
464
454
449
448
447
441
433
436
442
447
452
455
460
460
462
463
458
462
459
451
446
447
447
448
448
447
449
456
463
467
467
472
478
477
480
481
480
478
470
464
471
478
479
475
472
472
474
474
479
478
476
486
499
499
499
503
508
501
499
508
519
529
528
529
531
529
524
514
508
500
501
506
509
508
511
514
518
516
516
521
518
511
506
501
489
483
483
481
480
477
477
481
491
500
503
496
491
485
497
502
490
468
455
453
461
464
466
454
440
429
422
419
423
421
421
425
437
443
449
450
452
450
452
457
448
421
400
400
396
391
395
403
414
421
423
424
427
423
426
430
435
436
434
429
431
429
427
429
430
434
435
440
438
433
434
441
443
445
444
440
438
434
432
431
430
429
431
432
428
426
421
420
425
420
415
407
405
407
410
410
410
419
428
445
469
502
529
561
597
635
675
713
749
784
819
855
889
904
917
934
956
980
989
989
989
989
989
984
927
831
715
627
569
501
416
335
255
183
93
20
17
17
18
18
18
18
17
17
17
17
17
41
61
79
106
132
154
171
189
205
220
246
267
279
294
307
319
328
349
375
397
410
421
436
454
462
472
479
486
493
497
499
497
493
494
501
511
521
527
530
531
536
537
539
538
534
536
538
539
541
541
543
544
542
536
538
544
538
533
533
531
535
539
536
542
550
551
554
562
567
567
561
549
546
549
560
565
566
566
564
563
566
567
562
559
557
563
572
572
553
538
547
552
553
558
558
558
559
556
554
556
559
561
564
567
576
585
583
580
584
585
594
595
585
580
576
581
586
587
588
591
595
597
591
597
604
608
609
611
621
622
620
628
640
647
649
637
627
628
631
630
625
631
638
638
636
638
638
636
640
645
644
649
652
652
652
652
653
658
659
659
660
657
655
655
655
658
657
650
640
633
634
637
634
630
629
630
633
629
623
621
617
613
609
613
615
610
608
610
607
600
595
586
581
576
566
557
554
548
545
540
532
530
534
525
512
503
494
487
479
475
476
471
460
454
445
437
425
418
415
416
413
409
401
387
380
378
376
370
369
371
366
368
375
377
376
365
355
348
349
352
353
353
351
350
351
353
355
353
351
348
342
339
342
348
354
361
364
362
355
352
352
354
354
355
366
366
364
366
367
364
365
367
369
372
378
381
380
379
382
387
384
379
377
380
383
387
389
390
390
388
391
397
395
389
392
399
404
405
409
415
418
419
420
416
410
414
414
420
423
425
421
418
416
414
416
419
413
409
411
415
418
422
425
428
431
432
434
435
438
440
439
435
436
439
438
441
441
442
445
452
455
458
449
443
440
439
439
437
436
437
443
447
448
442
438
435
433
433
441
447
448
456
460
458
453
452
457
449
441
442
450
453
453
455
454
448
443
445
441
438
439
438
444
446
446
450
456
455
454
453
457
455
448
449
453
450
441
439
443
447
450
453
455
451
449
448
449
448
452
454
453
454
460
461
460
464
463
459
451
447
449
453
459
448
442
442
442
447
449
453
453
459
464
460
455
452
450
448
454
459
467
466
470
475
470
454
446
447
438
434
440
449
456
457
455
460
472
483
489
492
495
496
499
485
463
451
452
456
468
474
477
485
487
480
479
475
476
482
484
480
470
463
467
475
486
498
509
514
512
510
512
516
516
515
519
521
524
519
512
506
496
499
507
512
520
522
517
513
512
518
523
527
530
525
520
512
502
497
493
485
483
481
484
481
482
494
503
502
492
486
486
483
478
471
465
456
447
438
438
439
439
441
445
445
447
453
459
462
460
458
447
435
432
428
432
438
439
440
440
441
440
438
438
440
444
450
452
449
447
444
439
440
442
444
450
449
449
450
451
455
464
468
465
464
459
452
448
445
444
445
445
446
452
461
463
464
459
449
440
440
439
436
435
433
431
429
426
421
419
425
432
433
437
442
459
489
515
549
589
627
660
695
733
778
812
845
880
899
922
941
956
983
989
989
989
989
989
989
971
889
777
678
601
534
458
380
303
231
148
69
17
17
17
18
18
17
17
17
17
17
29
65
94
115
133
149
159
171
185
205
224
245
270
288
308
321
329
340
360
384
402
415
432
449
453
450
445
455
472
487
499
505
509
512
519
527
533
536
536
538
540
542
547
547
540
535
535
531
530
534
538
545
552
557
559
560
557
554
549
552
549
552
557
555
553
555
553
549
551
552
554
557
562
562
558
555
555
553
558
562
566
574
579
577
576
574
575
568
559
559
562
561
570
573
572
570
576
578
583
580
580
583
584
590
591
593
591
586
580
577
574
579
583
587
587
584
586
587
588
592
595
598
608
616
619
621
615
611
613
623
625
621
625
632
636
641
647
646
652
659
656
645
645
648
649
648
647
646
651
655
654
657
656
658
659
664
667
670
670
670
672
671
667
663
655
652
657
659
658
659
657
646
642
644
653
653
650
643
643
644
641
643
639
636
623
614
608
602
598
599
597
591
590
585
579
575
568
558
550
546
543
530
527
528
520
514
508
495
485
483
480
480
479
468
455
445
435
429
424
418
413
406
405
400
395
395
391
383
382
385
384
380
375
369
371
374
371
369
363
363
367
369
368
366
365
362
351
348
351
357
368
378
376
367
366
366
370
372
368
362
361
367
371
372
372
374
383
388
394
393
390
383
379
381
387
386
383
380
376
381
387
392
391
397
396
391
390
392
394
395
401
406
410
413
415
413
406
407
409
409
410
411
412
415
416
419
420
419
419
428
436
436
429
424
420
423
427
436
440
449
456
454
456
451
445
443
431
421
418
423
431
435
439
443
447
445
440
436
427
429
436
445
450
456
461
464
462
461
460
458
457
461
457
450
454
446
444
450
451
453
456
454
451
454
454
455
453
451
447
451
456
455
456
460
462
464
465
468
470
472
475
473
465
453
448
451
453
456
461
458
456
459
459
459
461
464
467
467
467
470
473
476
470
465
466
467
468
466
460
452
454
460
457
449
447
447
452
456
460
463
466
466
460
463
468
469
467
462
460
459
454
457
460
462
465
464
471
477
478
477
478
477
473
472
468
464
461
464
467
465
469
470
466
461
458
461
465
469
471
475
477
478
483
482
476
479
486
488
489
488
483
486
483
483
489
494
494
486
482
494
501
498
488
482
485
493
500
504
504
509
520
530
535
539
537
537
533
522
513
515
515
508
500
503
506
508
508
511
519
521
520
519
522
518
519
519
523
523
518
512
510
502
501
501
502
502
504
499
493
494
499
499
501
501
505
508
503
499
490
481
470
460
452
448
448
445
448
451
453
456
455
455
455
456
464
464
461
461
466
463
457
454
451
462
465
457
453
450
452
459
461
466
469
464
460
456
445
442
438
438
443
441
446
449
453
459
457
458
459
463
462
462
455
453
456
457
459
460
459
460
462
464
463
464
456
446
440
437
435
436
442
441
443
439
430
428
432
446
467
498
533
572
615
651
680
702
738
779
817
852
884
908
931
950
968
983
989
989
989
990
990
952
889
806
733
666
599
525
466
409
346
278
204
135
81
37
17
17
17
17
17
17
17
34
71
100
121
140
167
194
209
216
223
235
251
267
279
291
310
328
343
358
372
384
395
410
426
442
454
469
483
497
495
485
485
493
509
521
527
533
531
527
527
538
543
547
558
560
561
564
563
559
550
553
557
562
553
539
537
540
540
541
541
536
538
541
541
542
547
556
563
568
564
555
548
547
553
559
559
554
554
560
566
569
565
565
572
572
566
568
572
577
575
573
569
567
565
564
570
578
576
574
581
587
590
593
588
579
575
585
589
588
583
578
578
580
585
592
602
608
606
603
604
608
609
603
601
610
619
622
619
617
615
616
621
626
627
628
635
645
652
659
667
664
667
668
664
658
659
658
657
661
658
657
660
661
658
657
657
656
659
666
671
671
668
662
660
662
659
656
654
659
664
665
664
663
655
648
647
647
648
647
642
641
636
634
636
635
633
631
618
604
603
606
605
603
591
581
572
564
548
542
537
537
537
531
523
514
508
509
504
499
490
478
469
464
459
453
447
445
446
442
432
428
425
420
411
408
406
401
398
393
393
391
393
387
381
378
378
376
374
371
370
370
368
370
368
367
366
366
365
367
369
369
372
371
370
369
369
369
371
376
380
377
375
376
379
380
385
387
392
391
388
390
388
380
380
376
378
383
385
387
390
396
400
395
392
399
407
414
413
405
400
404
402
402
401
394
390
390
397
406
410
410
408
407
407
413
414
424
434
429
425
423
420
423
428
433
439
434
433
433
434
434
435
432
431
434
443
446
446
454
462
468
463
449
437
430
435
440
446
454
460
462
462
463
458
447
444
452
455
457
455
455
455
453
457
459
457
457
457
460
464
462
465
470
465
453
444
443
446
453
457
454
452
453
454
455
457
462
465
467
467
464
466
468
468
470
470
471
476
473
475
473
469
469
460
456
461
460
454
453
454
460
466
471
471
474
482
488
491
487
466
451
451
452
456
460
462
467
470
476
477
473
470
474
479
483
484
487
488
489
491
489
488
491
486
482
479
473
469
467
473
482
489
497
504
510
516
523
527
531
526
523
517
510
506
510
511
509
506
511
511
511
518
520
517
511
507
505
506
508
502
500
497
503
508
511
505
502
504
506
502
501
504
503
496
496
494
499
498
489
477
476
481
485
479
471
463
456
454
457
464
455
446
441
443
446
451
454
453
455
454
451
450
453
447
446
447
446
448
450
449
448
453
450
448
446
443
446
448
444
445
448
450
452
450
448
453
457
456
457
459
461
462
463
462
461
457
457
459
465
469
471
472
475
475
469
469
464
459
455
455
459
459
449
441
439
444
441
442
441
434
431
435
442
443
449
469
498
527
559
594
633
666
699
733
768
798
826
849
876
909
933
936
934
938
948
959
965
959
925
864
781
699
631
571
511
447
381
313
242
159
93
44
17
17
17
17
17
17
17
25
56
82
112
135
159
184
203
211
227
243
257
270
283
293
308
329
349
361
369
384
399
417
428
439
453
468
477
477
484
491
504
521
524
509
503
504
509
520
531
541
548
555
559
557
555
555
553
549
542
539
544
548
553
556
558
559
558
551
544
545
552
558
564
566
566
572
576
570
560
554
550
545
548
552
553
554
559
563
565
572
573
570
568
562
563
567
566
566
568
569
570
573
575
577
577
581
583
578
580
576
572
576
575
577
583
582
582
587
594
594
597
596
599
598
597
598
597
597
598
607
616
615
612
614
616
617
624
628
628
628
629
626
625
622
619
624
633
636
640
642
644
645
647
655
658
662
663
660
657
655
660
662
665
667
668
675
678
678
677
678
676
670
662
655
647
646
649
649
651
650
649
652
651
651
652
647
639
637
641
644
642
643
639
634
629
632
626
610
600
596
596
592
591
586
575
565
563
568
564
556
554
550
540
524
504
489
476
464
461
458
456
455
453
451
447
440
436
432
426
424
418
405
397
394
393
397
397
394
385
381
379
385
386
381
374
367
363
367
370
373
375
375
369
367
369
371
377
379
368
363
368
372
374
368
367
371
371
373
375
378
377
377
372
370
369
365
365
370
377
385
392
396
400
400
392
385
379
378
382
390
401
411
418
423
420
416
413
403
394
394
399
402
406
406
404
409
414
411
409
408
414
420
422
422
428
432
429
424
425
432
431
426
418
411
412
412
413
415
415
425
432
435
434
433
436
446
451
455
453
446
442
441
439
442
443
446
448
449
450
455
455
453
451
448
449
447
448
449
449
453
455
455
459
460
461
458
453
453
456
456
458
464
465
465
463
467
468
468
464
459
459
464
466
459
452
453
457
457
458
460
459
460
462
470
473
472
473
473
475
466
466
467
467
467
465
456
447
441
442
449
457
464
467
472
478
480
482
485
482
477
478
475
475
471
472
473
473
473
473
475
481
483
480
476
479
483
489
494
484
474
474
476
481
478
475
481
490
499
502
508
514
519
522
526
530
534
534
532
531
530
527
514
502
492
494
502
509
516
517
514
513
518
522
523
525
521
516
509
504
501
499
499
490
490
497
503
496
491
492
485
490
492
489
487
486
481
478
471
464
459
452
444
440
439
442
449
456
455
449
446
448
450
452
453
458
453
446
445
448
450
449
453
455
451
450
455
454
454
456
458
457
459
465
466
459
449
441
439
446
455
456
455
457
461
461
461
456
451
451
455
461
465
466
460
453
449
449
450
455
459
463
466
463
461
455
447
440
434
432
426
427
431
436
439
444
452
456
462
479
500
524
547
578
617
652
688
729
772
807
840
870
892
911
928
933
949
968
982
990
989
990
990
966
893
803
722
649
590
527
457
381
304
229
140
63
17
17
17
17
17
17
17
17
21
57
92
125
156
180
195
206
219
229
241
260
283
300
308
311
317
328
340
353
368
387
409
429
448
461
471
478
480
483
492
502
506
505
506
510
518
527
530
532
529
532
536
541
545
548
550
549
548
545
544
547
554
555
545
535
530
533
540
542
541
543
542
546
552
560
557
558
559
558
552
552
557
564
569
563
564
571
577
576
574
570
562
557
558
558
556
557
561
560
561
561
564
569
566
567
573
581
587
586
579
576
566
560
564
575
580
581
579
575
571
572
579
585
587
592
593
597
601
601
598
595
597
605
611
614
621
621
621
621
620
612
609
613
620
627
639
647
649
654
661
661
652
646
646
645
645
644
651
649
645
645
650
655
659
661
659
658
658
655
657
660
659
659
658
660
659
657
656
652
650
649
650
653
651
639
634
638
640
641
643
641
640
641
644
636
625
607
587
587
589
587
587
581
576
572
564
560
554
545
535
529
527
522
517
512
505
499
493
487
479
472
466
463
457
448
445
441
433
426
416
410
411
413
411
403
397
396
385
379
379
379
375
381
385
384
381
380
383
381
378
372
363
355
358
361
364
373
376
369
365
365
366
369
370
369
372
376
375
370
373
378
384
382
380
373
366
363
360
361
370
380
391
389
385
388
386
388
393
396
395
393
397
401
404
408
407
397
390
390
393
399
405
404
403
405
409
410
408
410
415
422
420
420
422
421
421
425
426
431
428
424
423
422
426
429
433
436
435
431
426
430
436
440
442
444
443
441
442
443
445
448
453
451
443
439
439
444
451
450
449
449
451
455
457
454
456
459
461
459
458
459
463
466
469
464
461
457
455
460
460
458
453
448
457
467
468
462
460
458
457
455
455
449
453
455
458
456
454
460
465
466
466
468
466
466
467
467
466
471
467
462
455
451
451
453
453
457
465
474
482
480
477
476
471
465
471
473
468
468
470
471
467
471
474
472
472
478
477
474
470
474
483
491
495
496
495
493
495
495
489
478
469
469
472
475
477
482
489
489
487
496
505
506
506
509
511
518
520
523
519
515
518
517
515
512
507
508
508
511
513
512
511
516
523
527
524
520
514
511
510
514
515
507
501
492
485
486
494
498
500
502
504
506
514
509
502
499
495
492
491
488
477
465
462
466
464
456
452
454
444
435
432
435
446
453
452
452
447
442
444
446
453
460
460
459
460
458
458
461
457
453
452
462
473
475
474
473
462
447
439
436
439
443
440
437
436
440
443
446
443
442
447
452
455
458
459
458
458
460
464
466
464
466
467
461
452
449
448
446
448
451
453
451
451
450
446
449
455
460
459
463
464
474
503
525
538
554
585
628
669
714
758
800
830
852
879
908
928
933
942
953
975
990
989
989
989
990
935
840
736
656
598
535
454
378
305
236
150
70
17
17
17
17
17
17
17
17
17
37
71
105
134
162
184
202
218
230
239
254
267
284
295
300
308
323
339
358
379
399
410
427
441
456
473
487
485
480
486
491
496
498
504
514
519
527
534
534
538
539
538
540
544
552
554
546
543
547
551
553
555
555
558
556
549
548
546
545
552
554
547
544
544
552
558
565
571
567
568
572
557
540
536
544
549
557
559
571
578
575
571
567
566
564
564
565
560
558
558
567
573
576
575
570
574
569
564
565
575
582
581
573
574
577
580
582
584
586
585
586
584
588
594
603
608
609
607
606
606
608
607
607
612
620
626
630
624
615
618
627
628
625
631
633
635
632
632
630
634
640
637
641
643
647
649
650
646
645
649
652
659
665
666
662
662
664
666
664
667
670
667
667
667
668
672
674
661
654
656
656
654
655
663
659
652
641
635
635
638
639
642
643
636
629
614
612
614
611
611
605
596
586
578
576
575
569
562
561
551
539
534
536
531
525
514
504
496
488
478
468
459
453
449
445
445
441
436
428
423
417
419
424
421
413
403
396
394
386
384
377
370
370
379
383
380
371
371
368
367
367
364
367
370
362
358
356
354
358
360
359
354
356
360
362
363
366
371
369
369
362
362
371
378
379
379
381
380
379
387
390
392
396
405
408
411
411
404
391
380
374
379
392
394
392
393
398
392
387
389
391
400
404
402
399
399
399
399
405
408
412
414
416
420
419
417
415
418
428
425
425
434
439
443
450
452
445
448
450
440
432
424
424
430
432
430
428
428
430
426
434
437
442
447
447
449
451
445
442
445
448
452
452
457
464
464
463
465
458
447
441
440
444
449
453
462
459
445
440
449
458
460
464
462
453
451
454
457
459
454
457
453
451
455
461
461
459
456
452
460
459
459
463
460
463
468
468
466
466
466
462
462
461
458
459
461
469
474
468
465
460
463
467
466
457
454
458
463
466
461
461
471
474
475
477
467
465
468
469
470
473
475
473
473
482
482
474
473
478
470
465
473
481
477
473
468
471
478
484
487
476
476
478
478
484
489
494
499
503
506
509
514
527
532
536
531
527
523
518
515
511
513
515
517
516
517
515
512
514
522
523
526
528
531
532
523
508
502
497
496
494
491
493
493
490
484
488
490
493
498
507
508
503
497
491
491
495
495
493
482
469
458
451
448
446
450
451
441
430
422
424
425
421
424
428
434
437
442
447
457
447
443
446
446
448
449
452
456
459
457
453
449
449
450
442
438
439
445
454
454
453
455
451
443
440
448
453
452
454
459
461
459
457
454
445
443
451
447
448
448
445
440
436
439
448
455
461
457
450
442
441
441
436
437
445
449
441
434
435
444
456
479
510
544
579
613
645
681
724
769
807
831
847
869
894
923
944
965
977
985
990
989
990
990
969
910
810
708
630
572
503
424
348
271
196
117
41
17
17
17
18
18
17
17
17
17
17
45
76
103
125
143
166
188
204
217
236
246
261
282
295
311
329
346
362
377
398
418
428
437
453
462
468
479
488
497
500
502
506
512
520
527
526
519
522
522
523
526
535
540
537
534
538
548
550
552
549
551
554
555
556
555
554
554
547
544
547
553
566
565
555
547
539
540
549
552
549
556
557
557
557
555
560
564
563
558
556
553
559
561
562
549
542
549
556
558
562
564
564
567
567
564
561
561
567
574
571
568
575
584
584
589
594
595
586
578
577
584
580
580
584
583
587
592
593
591
590
593
598
598
597
604
608
606
609
610
607
612
617
627
636
643
639
633
629
631
633
639
648
651
653
654
654
656
656
655
650
645
642
647
655
656
660
664
664
668
665
658
648
641
649
659
656
658
663
656
640
637
639
636
629
630
630
627
626
621
619
616
618
620
616
609
602
598
593
583
581
583
575
568
563
558
552
549
546
538
526
514
513
510
507
499
493
484
474
471
467
464
459
450
433
426
420
420
421
419
408
391
380
374
373
373
375
374
374
373
365
354
349
347
345
349
343
330
332
342
350
350
341
339
338
341
339
345
350
355
364
376
378
364
356
344
332
327
315
308
312
319
325
329
335
345
346
343
342
337
344
348
346
354
363
360
359
362
361
366
368
371
370
359
357
364
368
366
370
374
379
385
390
388
384
381
382
376
374
377
383
386
387
387
386
389
392
392
394
392
392
391
390
398
402
405
407
407
403
401
404
403
408
407
404
399
403
417
420
411
409
411
412
412
415
413
408
408
415
418
422
417
412
417
421
419
422
423
418
414
408
403
402
408
414
420
427
432
431
424
415
409
410
413
412
412
415
421
426
430
433
431
431
429
432
434
434
435
435
441
444
440
439
435
420
411
418
420
420
423
419
419
420
419
417
423
428
428
426
427
429
428
429
427
425
422
422
419
416
419
416
415
415
416
417
421
426
428
429
431
428
429
433
430
423
419
419
427
428
428
430
432
435
437
435
434
440
438
441
445
448
448
448
454
458
461
458
454
451
450
449
449
449
448
445
449
453
456
458
457
467
479
488
497
506
505
493
487
494
493
482
475
476
479
474
471
469
466
468
469
472
480
485
479
478
476
469
466
471
474
467
461
457
454
457
464
467
469
466
459
455
452
455
459
461
460
458
455
453
453
454
449
439
425
411
408
407
411
412
407
398
394
395
397
400
407
411
413
415
415
413
412
410
407
405
406
412
411
412
412
415
421
423
425
422
416
411
405
399
401
402
406
404
407
408
411
416
418
415
410
409
411
416
412
409
412
416
424
427
421
418
423
423
423
417
413
410
410
406
395
392
387
390
394
400
401
403
400
393
392
395
398
410
417
428
456
483
507
541
579
620
660
705
747
783
811
842
866
894
913
925
948
969
989
989
989
989
982
930
845
732
636
553
489
419
342
270
205
123
46
17
17
17
18
18
18
18
18
17
17
17
25
52
75
105
123
144
161
178
192
198
208
228
246
261
276
288
300
311
329
352
377
395
410
424
436
442
453
466
467
462
459
462
475
485
493
497
496
499
501
502
504
507
509
511
514
509
505
506
512
515
518
523
525
520
522
525
526
525
523
529
538
538
529
519
514
512
513
514
512
516
520
518
516
515
516
519
517
517
520
522
528
530
532
535
537
539
540
540
541
540
541
549
556
563
567
573
577
569
551
537
530
533
538
543
545
544
549
553
556
556
553
551
554
558
558
561
569
577
575
575
579
579
580
582
585
589
591
594
596
596
598
600
608
611
608
606
606
608
612
621
628
628
627
629
635
634
636
643
650
658
655
644
632
620
620
625
631
637
635
630
631
640
645
637
626
624
628
630
627
615
605
604
606
603
606
610
614
612
610
609
609
608
609
607
601
601
601
594
583
573
562
556
551
546
539
527
523
524
522
519
515
504
497
494
492
484
476
469
464
462
445
432
425
423
423
418
414
400
397
403
396
385
374
375
376
374
371
361
359
361
360
364
358
349
346
343
344
343
336
332
335
337
335
340
344
344
345
350
350
341
331
333
337
337
338
345
352
351
347
344
348
349
353
358
355
353
349
348
350
353
354
356
359
363
369
371
367
367
370
370
372
372
374
375
376
374
381
387
389
384
375
370
373
378
381
384
387
391
388
391
392
397
411
416
416
414
411
408
412
415
411
408
405
403
410
412
413
416
430
439
438
426
418
416
412
406
403
403
406
413
417
421
425
429
430
428
423
428
434
435
434
434
437
438
444
451
444
435
431
436
433
429
431
437
439
444
451
453
448
439
439
444
440
429
430
438
446
450
451
443
438
445
452
445
440
441
437
436
435
438
444
448
449
445
446
448
446
441
438
436
441
445
444
447
442
437
438
441
446
449
452
447
445
449
456
456
445
446
446
440
445
448
445
445
449
452
446
447
448
448
450
449
446
446
451
457
461
455
454
462
470
474
477
476
477
479
471
461
461
466
473
478
477
481
478
476
485
493
493
485
487
493
501
506
511
510
508
508
511
508
510
519
521
515
508
500
498
499
499
501
504
512
512
503
500
495
494
492
489
485
489
484
476
474
473
475
482
487
490
490
486
485
483
485
484
484
489
493
490
477
457
446
438
431
432
439
442
440
440
440
443
432
425
425
424
419
421
426
434
438
444
445
444
447
447
447
446
444
435
434
438
447
444
443
441
443
443
444
445
451
448
444
440
439
444
448
452
449
442
443
447
448
447
442
443
440
434
436
443
447
451
452
449
445
446
449
447
445
445
438
435
433
434
426
421
417
416
415
418
427
435
447
466
492
522
556
591
623
646
670
696
733
777
813
837
859
884
908
928
953
970
981
982
976
961
938
894
822
739
661
595
528
462
402
342
280
206
143
92
49
22
17
17
17
17
17
17
31
53
78
102
123
140
164
189
204
218
237
253
260
267
278
297
317
330
344
356
364
374
389
405
420
434
448
462
477
482
483
490
501
510
519
528
532
528
525
528
533
533
528
527
528
531
532
536
536
539
544
544
546
548
549
550
559
568
565
563
557
546
541
545
544
544
547
546
542
541
544
550
553
557
565
569
566
556
546
542
543
551
561
562
564
562
557
554
557
558
556
558
558
562
562
559
556
553
559
563
562
562
566
565
566
570
572
574
579
580
577
583
579
579
583
590
592
588
591
593
595
604
612
616
614
609
616
626
621
624
626
623
619
622
633
639
635
633
638
638
641
642
646
650
652
648
649
652
656
659
667
671
680
685
682
675
668
665
672
676
666
656
646
642
641
639
639
645
652
659
655
646
643
649
646
648
648
639
627
620
618
619
619
618
613
610
607
607
605
602
599
589
579
571
568
562
560
552
545
541
535
531
526
519
514
505
496
492
489
482
472
461
452
453
448
435
430
434
439
437
425
417
412
404
402
400
393
387
385
385
378
373
368
369
372
375
373
373
372
369
369
365
361
359
360
368
371
373
377
373
376
379
383
374
369
366
366
370
363
353
355
355
355
364
369
366
364
365
369
374
380
388
391
394
397
395
386
380
379
381
385
390
397
397
393
395
396
399
399
395
396
400
403
407
408
408
412
414
411
407
405
404
402
401
405
406
411
421
419
420
423
425
422
423
429
438
439
439
444
440
439
439
436
430
427
431
433
434
437
439
446
447
448
450
447
448
451
451
451
448
449
452
451
449
450
454
462
465
467
468
469
468
462
454
450
452
454
450
448
446
445
450
454
454
448
448
449
451
456
459
461
462
463
469
473
471
462
456
458
464
466
470
474
474
471
458
449
458
465
469
474
472
465
464
469
474
476
477
479
480
486
489
487
486
486
488
493
495
493
492
494
501
505
514
515
518
524
530
529
524
526
529
529
531
531
533
526
515
504
501
500
504
503
506
511
517
521
509
499
497
508
521
520
506
502
490
476
475
481
479
471
466
463
464
471
477
483
485
483
478
476
476
473
466
455
445
441
439
434
435
444
453
455
454
452
454
448
441
435
434
437
446
453
452
441
434
432
437
443
443
444
448
451
457
455
453
451
454
457
450
442
440
441
443
445
450
455
456
449
444
441
441
443
445
450
458
464
465
461
454
451
444
444
448
451
454
457
459
459
462
460
455
451
454
451
445
445
439
429
428
435
436
436
433
435
437
449
465
490
509
537
575
611
641
666
690
725
757
786
812
840
862
882
900
917
918
925
930
935
931
897
841
771
700
641
583
524
470
406
327
251
170
105
55
23
17
17
17
17
17
17
17
31
62
85
105
131
162
191
217
230
236
243
262
280
294
311
331
345
348
358
367
376
394
414
432
455
472
488
494
493
488
488
496
505
513
519
524
533
543
547
551
557
559
553
547
544
546
548
550
550
551
556
559
559
557
556
563
566
568
558
557
567
574
575
567
562
565
570
567
559
557
558
563
571
574
569
566
565
567
569
571
568
564
568
576
577
577
577
573
569
568
572
577
578
576
576
579
574
572
579
581
586
583
581
581
585
587
588
596
602
602
599
595
594
598
604
609
609
606
607
611
612
614
617
615
610
614
615
616
616
616
621
622
623
625
628
631
635
641
649
654
656
656
651
654
662
664
660
661
662
658
658
663
663
667
670
672
672
673
675
674
667
667
669
671
671
667
665
665
668
668
665
664
661
656
647
642
642
644
640
635
633
634
630
629
621
616
613
607
599
593
592
590
590
587
582
576
572
570
563
552
542
531
518
513
510
503
494
486
491
494
476
457
446
438
437
439
434
417
410
410
410
412
407
395
389
388
392
393
383
378
379
380
381
377
374
374
372
371
372
369
368
372
372
372
370
372
373
376
381
385
386
388
387
383
380
379
378
380
382
381
385
389
390
383
379
381
389
397
401
400
396
390
385
381
377
377
383
390
395
396
397
402
406
407
409
409
404
403
405
406
407
412
416
421
416
417
421
418
411
409
413
415
416
422
428
435
433
432
430
433
433
435
443
444
444
447
445
437
429
426
428
435
440
442
443
445
445
449
452
450
453
457
463
465
467
463
458
460
458
454
455
458
460
460
460
466
466
456
448
445
448
454
457
456
457
461
462
463
462
463
460
461
459
463
465
467
463
458
460
466
468
469
471
473
475
480
479
479
484
493
492
491
489
486
485
487
483
480
485
486
489
494
494
494
494
492
492
493
490
483
475
467
465
472
479
487
499
507
515
524
533
533
531
527
521
519
518
514
515
514
515
511
510
510
510
515
519
520
520
522
520
521
517
517
519
516
513
509
505
499
496
492
488
487
485
484
485
490
497
499
502
500
495
490
487
484
481
478
472
467
464
461
459
457
457
454
455
457
455
453
456
464
465
461
454
451
455
458
460
463
466
464
461
453
451
453
455
459
463
471
470
470
475
478
481
483
479
462
443
438
434
431
427
428
432
442
453
458
459
459
458
458
459
458
458
461
463
463
465
463
467
467
464
461
456
454
454
455
456
455
460
460
456
454
456
455
451
448
448
455
463
484
512
546
579
619
651
679
708
741
781
815
838
862
887
910
924
938
953
965
970
987
990
985
956
902
826
741
670
605
545
475
396
325
259
181
91
22
17
17
17
17
17
17
17
17
38
69
101
135
159
179
194
212
226
242
259
275
293
313
329
337
343
356
373
390
405
425
441
455
465
475
489
497
506
509
516
520
522
532
537
545
556
560
559
555
550
548
548
547
543
546
549
549
555
556
554
557
563
561
557
552
555
559
564
568
572
571
570
569
572
572
566
564
566
564
562
565
567
561
555
558
564
572
572
575
579
583
584
578
569
571
572
578
580
584
585
581
578
567
565
567
570
574
580
583
580
583
580
583
591
597
603
602
594
592
594
595
590
591
598
601
605
609
612
615
626
625
617
606
602
603
608
617
619
626
629
631
632
633
636
636
636
640
645
651
657
656
655
655
661
664
664
667
671
672
673
670
678
678
674
678
675
669
667
663
664
668
668
663
665
672
677
675
674
674
669
658
650
639
636
631
629
641
654
656
654
649
645
640
640
639
632
620
616
610
601
589
581
578
569
562
558
561
564
560
552
542
536
535
521
516
506
494
487
483
481
476
469
464
458
450
450
445
441
439
433
420
404
397
395
393
395
390
388
391
394
392
390
387
386
381
375
369
363
366
372
375
377
376
377
379
379
381
383
383
375
366
365
374
377
371
371
376
377
382
384
384
388
393
398
396
386
383
384
383
394
396
390
388
388
393
396
397
397
397
400
403
408
410
417
423
425
420
423
421
416
407
406
403
403
409
414
416
419
424
428
429
427
430
434
429
425
424
425
429
442
441
443
448
450
447
444
442
432
432
437
439
444
447
446
442
433
427
430
440
443
449
456
462
463
461
467
469
461
454
452
451
455
461
464
467
464
460
458
456
458
458
456
457
459
461
465
471
467
462
459
461
463
462
463
462
459
451
453
459
469
477
474
467
466
469
467
468
468
470
474
472
463
459
465
475
487
473
465
463
461
459
466
471
478
480
474
476
474
472
469
474
477
482
487
492
486
480
488
491
491
490
485
484
481
486
486
494
497
494
487
486
486
492
496
507
512
512
515
520
527
530
531
537
542
539
535
539
539
533
527
523
519
513
509
510
515
513
512
517
519
517
508
507
507
509
515
518
509
508
514
509
507
505
501
501
499
495
490
494
495
493
499
504
505
498
489
486
480
472
465
457
451
451
453
451
447
442
442
443
443
447
449
452
455
455
453
453
454
451
444
445
450
457
457
462
463
458
460
457
454
454
464
467
471
471
467
470
468
464
455
445
445
439
437
440
439
440
442
445
448
456
454
451
451
453
454
453
455
461
464
465
464
462
462
461
453
445
439
441
438
439
440
437
436
437
442
439
437
441
449
468
493
523
557
598
641
679
719
757
799
834
860
886
910
937
955
971
989
989
989
989
989
989
989
979
901
804
707
630
574
504
417
334
256
174
90
22
17
17
17
17
18
17
17
17
17
27
62
98
129
153
170
188
207
224
236
253
270
285
302
319
335
353
366
380
394
410
431
452
470
471
462
462
472
479
487
497
508
521
532
538
542
545
542
535
532
537
541
550
557
561
564
564
563
558
554
551
547
547
555
560
560
556
555
556
561
562
555
548
549
553
550
555
560
565
568
568
569
566
564
569
573
570
568
567
566
568
568
566
565
566
570
573
576
581
584
585
586
582
581
584
586
588
585
580
579
578
581
585
586
585
590
592
597
601
600
597
597
594
591
596
600
606
609
611
613
618
620
621
619
623
626
624
632
638
640
633
631
629
628
632
639
648
655
652
652
665
672
671
667
661
660
662
661
655
653
657
666
670
666
668
672
679
680
682
685
682
684
689
687
680
662
648
643
649
657
661
658
656
650
647
649
644
642
642
640
636
636
632
634
635
632
628
624
622
619
607
595
584
580
579
576
570
560
552
544
543
535
528
522
511
504
499
491
488
479
470
463
458
452
446
441
437
429
426
428
435
433
420
411
406
406
404
398
390
390
384
378
374
367
364
361
356
354
356
362
369
377
381
377
370
373
375
373
373
372
371
368
365
364
368
378
377
371
374
378
367
363
368
378
382
384
385
386
381
382
383
386
385
382
383
385
385
389
394
392
390
392
401
402
402
402
400
399
400
402
409
414
422
426
416
411
414
413
412
414
417
420
415
413
414
419
428
432
433
431
433
433
433
436
435
439
440
444
448
449
448
443
440
440
444
450
452
454
454
447
443
441
438
436
441
447
450
449
449
447
449
459
465
461
454
451
456
455
456
459
463
466
463
464
462
462
466
462
457
458
462
462
461
465
470
468
456
453
455
458
455
451
451
456
458
463
469
474
476
475
477
479
475
470
464
461
457
457
457
456
457
460
460
460
463
471
474
477
481
478
469
468
469
472
474
480
483
488
494
498
497
495
494
491
490
489
486
486
494
492
488
486
488
493
496
496
497
505
505
494
485
483
491
496
512
521
527
529
532
536
531
531
528
523
519
519
522
521
516
514
513
510
506
507
513
511
510
513
519
516
509
504
503
496
499
503
505
503
504
500
497
499
495
483
488
498
507
498
491
480
477
480
472
465
464
451
441
443
446
452
452
455
454
451
457
461
459
456
458
458
455
451
447
449
447
444
450
456
458
461
466
465
458
458
462
468
471
469
455
447
444
445
449
450
449
445
447
450
457
468
469
466
459
458
459
450
449
459
466
468
467
465
464
465
456
452
452
453
449
443
436
429
427
429
433
433
436
439
449
450
442
443
438
438
446
460
483
515
543
577
617
656
690
729
765
800
829
860
882
901
931
947
956
975
990
990
989
989
989
966
902
813
730
662
602
538
474
406
334
251
170
107
54
18
17
17
17
17
17
17
22
55
88
116
137
164
189
202
215
223
229
238
251
267
276
298
320
333
346
357
372
387
400
406
421
440
460
474
483
489
493
497
503
507
508
515
520
521
522
527
537
543
549
550
548
543
537
534
537
540
538
539
538
540
543
547
547
550
549
549
549
556
559
556
553
551
552
556
559
556
564
567
567
570
572
573
570
567
569
570
566
564
562
560
557
552
551
552
556
559
565
571
576
572
570
576
579
582
590
591
588
595
594
592
580
571
572
573
571
570
573
577
579
584
584
586
590
596
600
605
608
609
606
605
610
612
616
621
622
617
615
623
624
626
631
630
626
626
628
630
633
640
643
647
646
646
647
649
649
648
652
660
663
665
671
675
675
673
670
664
665
665
659
651
643
647
655
664
664
659
657
655
649
640
644
647
643
647
647
646
639
628
620
617
618
615
613
612
606
600
593
592
594
586
580
579
563
558
562
562
552
544
534
526
523
519
509
502
493
488
478
467
463
460
456
447
436
429
423
419
413
411
409
410
409
413
413
404
391
390
388
384
383
382
381
381
385
388
391
387
384
383
376
373
376
375
366
363
362
357
356
362
370
370
370
373
380
382
384
385
379
374
369
370
369
372
379
381
379
384
392
394
399
409
413
410
408
409
405
395
392
397
403
404
402
392
389
394
400
400
399
403
408
413
419
427
432
433
433
424
416
417
423
419
419
428
426
427
427
426
428
435
436
432
436
442
442
429
423
426
428
431
437
446
446
450
453
452
446
443
442
437
438
444
448
448
449
450
448
449
453
457
463
463
464
462
457
458
458
456
456
458
456
458
462
467
465
461
457
456
456
463
465
470
475
472
459
456
463
465
468
468
465
463
463
459
459
462
463
465
467
469
469
469
470
466
457
455
460
471
478
478
478
479
484
489
484
476
472
465
466
472
473
470
466
468
477
479
480
484
482
478
472
470
473
475
478
480
484
485
485
489
495
505
507
505
505
508
511
518
528
534
534
536
531
518
509
507
504
507
513
513
509
500
498
503
508
512
510
499
488
489
491
498
510
512
512
511
507
502
491
479
474
474
475
478
481
488
493
496
499
498
498
499
495
480
465
461
453
447
439
434
434
434
436
439
438
437
442
442
438
451
453
453
454
452
452
451
443
437
435
448
461
459
450
444
444
448
450
443
439
439
433
429
435
440
440
438
439
441
444
449
451
456
456
456
461
457
449
448
459
468
468
466
470
467
463
454
451
443
439
440
447
454
450
450
452
451
450
447
451
453
452
446
442
437
432
430
429
431
442
458
483
515
550
583
606
633
659
688
721
752
787
818
848
869
886
902
915
926
937
944
947
939
905
854
782
709
642
587
536
475
413
346
279
203
140
90
56
30
17
17
17
17
17
17
22
47
77
107
136
165
190
206
209
226
251
268
284
289
303
322
337
346
355
364
381
397
410
423
427
432
450
468
481
491
504
510
514
514
517
519
520
525
532
543
541
537
539
543
545
546
545
549
554
554
556
555
552
548
549
548
547
557
557
552
546
543
542
546
550
552
559
563
563
568
570
565
560
553
546
550
552
555
557
562
560
558
560
562
560
565
563
567
571
573
579
580
580
574
575
572
569
562
567
570
572
579
584
587
584
591
597
602
608
604
592
584
582
586
586
590
595
604
605
594
592
587
585
594
599
598
604
616
625
627
627
630
625
627
630
625
619
625
635
636
630
632
635
640
648
658
659
657
660
668
671
664
659
654
653
656
653
657
659
663
662
659
657
659
665
663
662
662
660
655
650
648
644
645
647
649
648
650
650
642
631
628
628
619
610
611
609
602
602
591
583
574
567
563
562
557
549
547
541
544
542
534
526
522
518
502
484
481
481
474
466
459
455
455
457
445
429
411
406
411
405
401
400
396
393
392
392
386
380
375
371
364
360
364
359
363
371
367
361
353
355
361
363
365
366
368
366
362
361
366
367
370
368
365
370
372
371
367
372
378
380
381
374
365
361
361
365
371
373
375
378
387
395
396
392
394
396
398
397
394
392
386
384
386
387
394
397
397
395
396
399
402
404
411
416
419
419
427
419
419
423
424
428
429
416
405
399
398
406
416
424
429
425
426
431
436
435
437
435
438
436
429
432
439
439
429
422
425
433
438
443
445
447
449
451
447
436
431
435
440
443
449
452
449
449
455
453
452
451
453
453
457
459
459
457
458
458
459
457
457
461
462
458
457
461
464
469
464
456
453
452
457
461
462
462
468
465
462
465
467
471
470
474
473
463
457
461
465
465
464
462
463
465
468
473
476
470
467
473
479
477
482
489
485
484
482
473
469
470
471
473
469
469
468
471
477
482
479
478
471
471
477
473
473
478
480
484
498
502
511
524
533
535
533
538
537
523
511
506
507
503
506
508
503
505
502
502
501
502
501
497
498
503
508
513
520
521
516
509
498
491
485
490
490
489
485
484
481
479
481
483
479
475
474
476
476
470
471
465
458
457
451
444
450
461
465
468
465
458
454
461
465
455
449
447
445
443
435
435
438
436
438
443
444
448
448
449
449
449
447
450
450
441
448
458
463
461
460
458
456
446
440
438
444
448
448
449
451
455
457
459
462
461
457
453
449
450
456
452
447
447
454
464
463
462
464
456
454
451
443
437
435
437
441
441
446
448
450
444
437
442
456
477
502
528
559
599
637
673
706
743
782
814
829
850
880
906
926
939
958
977
989
990
990
990
964
906
832
743
670
612
555
486
410
338
260
171
90
24
17
17
17
17
17
17
17
19
56
88
115
142
169
192
207
217
228
241
253
270
284
294
300
311
327
342
361
376
389
405
419
434
449
461
467
477
483
488
495
499
503
512
522
525
530
534
539
544
545
546
546
543
539
535
535
543
551
551
551
559
560
551
546
550
545
543
551
553
543
533
541
546
549
553
557
571
576
573
572
570
574
571
566
554
549
549
547
553
559
561
561
562
563
557
546
545
553
569
574
571
572
577
579
578
565
561
570
577
580
583
588
587
585
579
580
587
587
584
577
568
564
571
569
574
583
591
595
592
592
599
603
603
604
604
600
604
608
615
614
612
617
628
635
636
633
631
631
635
635
642
649
649
653
661
662
660
656
660
660
658
656
659
668
661
662
671
675
673
670
668
664
655
652
645
641
639
645
646
646
648
651
650
646
643
641
637
635
634
626
626
630
631
626
617
616
619
608
597
587
575
566
567
577
573
568
556
544
532
529
526
524
519
511
503
493
492
489
486
470
463
455
451
453
443
436
435
432
428
423
418
417
414
408
400
398
391
385
380
381
390
390
381
374
375
372
370
373
373
370
371
377
372
368
364
361
364
372
368
362
362
361
364
370
369
371
374
376
384
385
382
379
380
387
391
388
379
372
373
379
382
386
385
389
392
397
393
386
379
382
384
384
386
389
398
404
404
403
396
395
398
395
400
405
403
405
412
413
411
416
424
427
426
428
434
430
428
428
427
425
429
432
434
434
432
430
432
438
444
447
444
432
430
432
437
439
447
457
464
464
463
461
451
443
437
438
444
441
442
445
448
449
452
459
466
471
474
463
449
443
437
439
438
447
452
450
453
459
461
457
450
446
449
454
459
460
460
462
464
464
456
452
453
453
454
456
451
450
456
457
454
458
461
465
468
469
470
468
458
461
463
467
469
469
469
474
480
479
476
469
456
457
457
458
455
456
461
463
464
469
471
468
464
459
459
470
478
473
474
475
468
465
466
466
462
476
482
468
467
461
455
457
463
464
466
464
471
473
475
478
480
481
488
492
488
489
493
493
489
492
493
496
502
501
496
494
480
474
482
490
491
496
500
508
511
523
529
531
530
528
529
536
542
540
530
522
512
508
508
500
501
508
513
522
534
536
541
543
536
527
520
521
517
504
489
484
484
486
491
499
500
490
491
492
493
496
498
504
498
492
483
471
464
465
465
463
460
460
456
454
449
441
444
443
442
444
447
454
453
455
459
447
436
431
436
441
434
443
452
460
466
472
468
467
466
460
457
455
461
458
445
437
441
442
444
435
435
444
447
445
449
455
462
462
461
466
465
463
470
468
460
452
449
446
449
450
455
453
454
461
459
456
453
455
454
448
442
441
443
440
436
435
434
437
436
435
448
461
480
517
559
602
643
677
718
760
800
837
865
891
914
941
960
971
987
990
990
990
989
989
989
990
938
844
740
654
595
533
459
378
303
236
140
52
17
17
17
17
18
17
17
17
17
30
69
102
132
152
165
177
193
211
229
243
253
270
291
309
326
342
356
371
378
389
410
425
444
456
472
483
491
496
497
498
506
515
520
523
528
535
532
534
543
539
535
537
539
547
553
559
562
562
558
552
542
538
536
540
543
544
547
546
552
556
553
554
557
556
560
563
563
561
560
561
564
568
573
576
577
569
559
554
548
548
558
564
575
585
583
573
568
564
562
563
561
555
553
559
570
576
577
579
584
590
594
591
595
604
605
603
600
598
595
585
578
579
580
586
591
594
593
595
599
600
604
613
617
621
622
619
617
619
620
624
626
628
630
634
636
639
642
647
653
657
656
655
659
665
669
673
675
676
680
678
672
671
673
672
667
664
664
667
672
666
664
670
677
678
673
670
667
664
662
664
661
659
660
657
651
645
644
648
647
643
641
643
640
635
632
628
625
619
611
604
597
594
587
580
570
571
567
564
562
557
544
536
527
513
510
502
496
487
482
476
468
463
461
459
457
454
446
434
426
425
426
423
419
412
404
401
402
392
387
389
389
384
375
366
364
365
367
373
379
381
388
386
377
362
351
350
356
363
366
364
366
367
372
377
377
374
371
371
372
374
374
375
376
378
381
380
378
377
381
381
384
388
394
403
406
399
386
387
389
392
399
396
393
392
395
401
406
410
411
407
406
411
414
414
413
415
415
413
415
418
420
426
433
436
439
444
448
448
441
429
421
428
424
412
408
416
422
427
435
443
446
451
451
447
441
442
447
453
461
456
451
442
436
440
442
449
456
460
461
461
462
470
470
457
448
442
441
443
444
443
450
456
455
451
451
456
458
456
456
458
458
463
462
458
456
457
458
459
460
463
464
458
467
473
473
474
472
473
476
476
478
473
473
472
472
472
470
464
470
474
468
462
461
460
466
466
463
458
456
464
469
469
465
464
466
467
468
468
473
470
467
470
460
461
467
475
485
488
484
472
463
466
473
479
474
466
466
470
465
457
456
457
460
460
460
465
471
476
476
474
475
476
475
478
480
478
478
477
473
467
469
476
484
492
496
497
496
497
497
496
493
488
483
483
493
503
502
497
498
492
487
491
498
497
498
503
511
506
506
518
532
537
533
535
537
536
536
537
530
521
514
513
514
523
532
532
530
527
522
520
512
518
520
519
518
522
521
518
512
502
497
496
493
490
489
492
492
500
505
502
502
501
501
502
499
489
483
480
480
481
482
477
467
455
442
437
434
434
433
439
447
455
459
464
463
460
456
452
447
442
444
451
455
452
453
460
465
470
469
462
458
452
444
440
441
445
447
445
446
448
450
451
452
456
462
468
474
476
477
477
472
468
468
470
467
459
458
449
448
448
452
457
457
457
459
456
452
453
451
444
445
443
447
441
443
451
447
437
439
438
440
451
473
500
529
562
603
646
687
719
756
788
818
848
873
897
926
947
964
985
990
990
989
989
989
990
948
869
780
705
640
573
496
423
356
281
197
125
68
31
17
17
18
17
17
17
17
34
70
97
121
151
179
196
215
234
249
254
255
261
274
292
313
328
342
356
370
379
393
417
437
450
455
464
478
498
507
508
506
505
497
494
495
503
519
527
528
528
533
533
535
544
543
539
538
539
540
540
538
537
540
540
545
549
549
549
552
556
558
558
551
543
543
548
552
555
554
555
560
558
553
551
549
550
551
549
551
553
555
560
567
568
565
561
563
562
562
568
570
563
556
567
573
575
573
567
564
565
573
578
578
577
583
591
592
593
590
579
570
565
571
579
580
583
588
590
591
592
594
602
607
608
608
609
609
606
617
625
627
630
631
626
625
620
616
620
627
635
641
643
642
652
653
651
653
652
655
661
665
662
660
664
672
676
673
667
662
652
647
648
653
652
649
646
645
654
650
648
643
645
648
650
643
633
630
635
637
637
635
639
637
627
614
603
597
595
596
594
590
587
581
575
567
561
551
549
554
553
542
529
512
498
497
499
495
487
481
470
463
460
462
462
454
444
437
432
429
429
431
422
421
416
408
403
396
391
393
394
386
376
363
360
368
371
374
376
374
368
361
358
362
371
376
375
371
372
371
369
368
360
358
362
366
367
368
371
370
371
365
364
368
371
372
374
377
372
378
377
376
376
382
388
395
395
386
378
379
383
385
386
384
390
395
402
396
400
401
403
403
408
404
410
414
409
406
408
404
405
404
406
404
405
407
415
423
423
422
423
422
423
433
438
433
423
420
422
429
431
434
435
436
440
443
445
448
448
450
453
452
449
446
438
434
436
441
446
450
451
450
455
451
450
453
453
453
453
449
448
448
451
451
452
460
467
466
467
468
461
452
447
446
450
453
454
457
464
468
468
466
469
473
467
465
456
450
450
454
461
458
459
464
466
466
464
457
444
436
441
448
446
443
444
447
455
466
466
464
458
458
465
474
474
472
473
475
479
483
485
480
475
473
474
470
467
466
467
473
470
469
472
473
468
469
473
475
474
474
478
481
485
492
501
507
508
510
516
525
527
525
525
525
524
528
529
517
507
500
494
487
481
483
490
493
498
501
509
506
501
499
500
497
498
501
504
508
505
500
499
492
488
483
474
470
470
474
477
480
485
483
481
482
479
469
465
459
461
458
443
432
429
427
427
429
434
438
436
439
436
441
443
443
444
447
449
448
449
448
447
444
442
445
448
447
445
447
445
443
442
446
449
448
445
444
447
455
455
448
447
449
450
451
450
453
455
456
455
454
455
451
448
455
459
464
465
466
465
465
462
450
446
454
459
460
458
453
444
440
439
434
435
436
435
438
434
430
425
422
415
415
427
455
484
514
548
587
623
658
686
715
744
774
802
829
857
878
899
917
930
943
952
955
953
936
891
832
759
692
632
572
509
451
387
317
242
172
112
63
32
17
17
17
17
17
17
17
39
69
98
123
149
183
206
219
236
251
260
275
287
295
307
321
340
358
370
379
389
403
413
418
423
435
453
464
476
482
484
488
495
500
507
517
527
534
537
536
537
538
539
539
540
539
537
542
540
541
545
543
535
528
527
527
529
530
535
540
542
548
550
549
549
553
548
547
549
551
553
552
553
552
551
552
552
550
548
552
558
562
564
565
564
560
558
560
563
561
562
560
560
561
559
557
555
559
564
569
576
575
574
575
573
570
572
575
574
575
579
581
582
582
585
591
595
590
586
584
584
593
600
603
605
610
617
618
620
619
613
606
606
608
612
616
622
625
635
640
646
652
652
649
651
658
661
659
662
657
643
641
642
644
643
650
658
659
654
651
648
645
645
643
641
641
643
646
647
648
648
645
639
638
638
638
639
637
629
621
614
615
619
614
606
599
591
588
592
589
583
574
574
572
570
562
552
548
541
526
516
509
504
502
499
491
479
471
467
466
461
456
450
437
426
419
409
405
400
392
390
389
388
392
396
398
389
379
373
369
366
363
359
358
359
359
353
349
351
353
356
360
360
364
367
365
366
367
364
364
371
376
371
364
365
361
359
359
356
353
353
360
362
364
365
360
363
369
371
372
373
374
379
380
386
392
397
401
402
402
409
412
397
385
380
372
377
388
392
396
405
409
399
390
384
388
392
402
408
412
410
405
401
407
409
403
405
411
413
412
411
408
404
410
415
417
417
418
425
427
424
425
428
434
441
440
431
423
421
426
432
436
441
442
440
446
460
462
458
446
437
434
438
440
441
438
438
444
448
445
440
440
443
445
443
451
460
465
463
459
455
455
457
455
457
464
465
464
467
467
459
447
439
439
449
458
464
467
472
465
461
457
450
442
441
447
452
452
452
454
459
461
460
453
449
448
456
463
467
467
463
458
455
457
452
453
453
448
444
448
456
462
462
459
462
467
464
469
470
466
469
474
477
481
486
486
481
479
479
476
471
470
469
465
464
474
477
476
476
472
471
471
472
476
479
482
486
493
503
511
518
524
523
521
526
521
511
508
508
503
497
495
489
486
490
492
496
497
499
501
501
501
507
507
506
503
507
506
501
499
499
499
499
498
495
492
487
483
482
487
492
497
492
479
472
469
469
466
463
457
448
444
446
447
456
460
459
458
451
450
457
451
445
443
436
438
439
441
445
447
449
453
450
444
442
444
445
449
452
448
449
455
453
449
451
446
442
442
443
449
453
456
455
457
455
447
446
450
450
452
457
457
454
449
448
447
448
448
447
449
448
448
448
448
453
461
464
463
458
457
450
438
434
435
441
442
442
443
438
434
440
448
454
471
501
533
566
602
640
685
723
752
779
808
834
859
874
895
919
930
939
955
972
989
990
989
976
921
853
758
678
615
561
495
418
345
278
201
112
42
17
17
17
17
17
17
17
17
31
64
96
128
156
175
190
203
217
230
245
258
278
293
306
318
325
339
356
376
396
414
427
438
444
450
459
468
473
484
491
496
501
508
514
523
526
521
523
528
532
530
531
526
523
529
528
530
539
536
532
536
544
549
545
533
537
537
536
538
539
545
559
565
562
558
555
556
555
546
538
532
538
542
547
547
548
553
557
561
559
560
562
562
555
547
542
543
544
550
550
543
540
543
545
554
564
567
566
566
570
574
575
573
573
575
572
570
574
577
578
577
583
585
591
590
589
589
588
586
587
591
595
600
603
606
605
602
601
603
606
613
614
616
616
616
622
628
633
634
635
636
635
636
639
640
650
657
657
658
653
650
655
650
643
647
654
655
662
660
655
656
658
657
659
653
648
646
648
647
644
647
650
645
642
638
637
635
637
640
635
628
625
622
620
614
611
614
605
598
592
584
582
583
576
563
553
554
546
535
528
524
515
506
502
500
500
500
496
487
476
465
472
460
443
430
427
425
421
415
411
414
413
406
397
388
387
390
389
381
378
374
373
375
374
368
367
368
362
355
350
354
361
369
376
375
374
375
368
370
361
354
352
352
357
360
366
366
368
373
372
369
375
384
380
376
372
371
366
366
373
375
380
385
395
400
400
401
397
396
387
382
383
385
387
388
389
390
395
400
407
404
399
394
397
399
406
416
417
415
419
418
414
412
405
403
410
418
421
426
430
431
431
430
429
425
427
432
434
429
431
437
448
450
440
435
433
437
434
427
422
426
428
433
441
446
448
442
437
437
449
452
444
441
441
439
445
452
453
458
463
456
449
447
445
449
460
462
460
461
457
456
459
459
450
446
450
454
457
460
458
459
461
466
468
465
464
465
464
457
454
449
451
453
457
457
459
459
461
462
463
461
458
456
458
461
464
466
468
470
470
466
461
461
462
463
464
466
466
468
471
468
465
462
464
469
469
466
467
467
466
470
467
459
454
459
467
467
469
476
476
478
487
486
484
483
485
486
487
486
483
478
483
484
482
484
487
485
482
480
481
483
486
495
503
511
519
518
519
525
533
536
535
529
515
509
509
508
512
514
510
504
505
507
511
516
524
530
529
518
505
507
516
524
521
512
500
497
503
500
489
485
490
491
493
498
497
497
501
506
508
500
496
493
484
471
462
459
455
441
433
434
440
441
438
435
438
443
445
445
445
450
454
453
450
448
450
448
444
440
438
438
445
447
449
453
452
447
444
443
442
447
451
453
450
445
442
439
439
444
446
447
445
450
455
449
448
450
455
458
456
459
461
463
463
460
455
451
451
450
449
449
449
452
455
451
449
449
445
436
436
436
435
445
447
448
446
449
457
457
461
485
510
532
564
609
654
694
726
753
790
826
859
894
921
946
968
980
990
990
989
989
989
989
989
953
866
770
689
620
553
480
395
318
247
166
76
17
17
17
17
17
17
17
17
17
18
49
81
108
137
158
176
191
203
216
228
242
260
281
299
313
329
343
359
376
394
414
426
437
451
461
473
480
487
490
495
498
507
520
528
529
529
532
538
536
533
534
540
545
551
558
561
564
562
550
535
540
547
545
541
538
539
538
540
540
548
551
556
556
555
542
540
539
540
547
554
557
558
554
551
556
561
564
563
562
560
560
563
570
569
566
560
552
549
557
567
572
573
575
572
568
572
577
577
573
571
571
573
580
588
588
588
588
581
580
586
592
600
605
604
600
597
597
596
592
596
606
612
613
607
608
613
617
615
617
624
628
635
639
639
638
631
629
636
638
642
643
649
652
656
655
654
653
652
656
662
671
679
681
676
673
673
678
673
664
657
658
672
673
665
661
659
654
651
651
651
652
654
653
649
643
637
636
641
640
638
630
624
621
621
619
615
612
607
602
599
594
594
595
593
588
583
580
574
569
556
548
538
522
507
495
486
481
479
472
471
466
459
453
447
442
438
437
431
425
426
424
417
411
402
395
387
383
385
388
390
395
396
394
391
385
379
371
361
359
361
362
357
355
352
353
362
365
365
364
360
353
353
361
370
378
383
385
374
365
361
352
349
355
362
363
365
369
372
377
381
381
377
378
380
387
391
389
390
390
393
391
391
393
394
393
395
400
400
402
404
408
408
409
407
401
399
398
400
403
406
411
417
420
421
422
428
432
428
422
425
430
435
439
447
440
426
420
419
417
419
421
432
442
442
443
444
441
437
439
443
440
446
449
451
449
443
440
439
443
449
448
440
434
441
446
447
448
447
448
456
461
460
458
465
472
477
471
468
464
452
444
445
445
448
451
455
455
458
463
468
468
460
454
457
462
463
466
469
468
461
457
460
462
465
466
464
463
464
468
463
457
459
463
464
465
463
465
462
461
461
462
462
457
458
462
464
467
471
472
478
480
476
474
475
473
476
481
481
483
487
486
483
487
496
503
500
486
476
472
475
477
481
486
491
493
496
499
505
502
500
500
493
495
498
508
523
533
537
537
535
531
532
530
516
505
502
503
506
509
514
517
519
522
516
510
509
508
510
515
513
503
500
503
509
512
513
513
511
504
504
502
503
506
506
502
499
493
488
484
478
469
467
461
456
449
442
441
436
432
435
441
444
447
451
451
451
451
453
456
454
453
451
455
452
447
440
440
446
446
445
449
452
457
452
444
444
448
452
458
458
448
444
440
441
453
457
456
448
445
444
442
440
442
445
448
444
443
444
450
452
451
449
448
449
451
453
456
463
460
457
449
442
445
446
448
447
450
448
441
442
446
446
439
433
435
441
457
485
520
556
593
633
660
689
724
765
800
830
856
876
899
927
947
962
980
990
990
989
989
989
982
913
820
731
649
589
531
456
377
300
217
125
44
17
17
17
17
17
17
17
17
17
21
54
80
110
135
152
168
188
205
224
246
268
289
303
312
324
338
352
365
372
383
399
416
438
452
463
473
481
488
494
500
503
509
519
527
536
539
541
541
541
545
551
558
562
553
545
549
550
552
547
538
539
545
546
544
546
550
552
547
550
552
556
561
563
561
561
563
560
559
561
558
558
561
567
562
557
556
565
570
575
572
570
572
572
568
566
560
558
563
568
569
569
569
568
568
570
573
575
579
580
581
588
589
589
588
593
594
589
587
589
590
587
586
581
578
581
587
592
595
601
605
602
605
616
624
629
629
628
627
621
607
602
610
618
624
632
642
644
644
644
645
651
654
657
658
654
651
658
659
663
667
669
674
673
672
671
675
681
682
681
686
689
694
688
663
649
643
639
640
642
648
655
661
663
657
650
647
645
642
636
633
632
627
626
625
621
617
615
613
607
605
604
600
590
580
573
568
563
555
545
540
538
531
519
509
498
493
485
478
470
462
456
451
446
442
441
439
436
430
423
417
410
404
400
396
395
397
399
393
384
376
369
369
368
369
366
358
358
361
362
360
361
364
363
361
362
366
366
362
361
365
370
368
359
360
363
363
365
372
372
371
375
381
389
393
399
401
393
393
403
409
404
379
362
358
360
366
367
369
369
368
370
373
376
380
385
395
407
407
406
401
399
402
402
405
406
402
399
401
405
404
405
411
415
416
421
423
420
424
425
421
420
424
421
421
423
429
429
432
440
441
440
442
441
439
439
439
439
441
440
431
421
425
434
439
442
446
452
455
454
450
450
453
453
450
448
449
451
455
458
459
462
461
462
468
467
467
466
461
457
461
463
452
447
443
442
445
449
454
455
454
460
464
468
470
474
475
469
462
465
469
468
463
461
464
471
476
477
476
474
466
461
459
464
469
480
485
488
485
489
485
487
486
481
478
478
481
481
484
489
496
503
509
517
524
533
542
548
548
540
534
531
525
517
512
507
503
505
504
505
508
514
517
519
518
513
506
502
504
497
500
503
495
492
492
493
495
496
495
492
490
489
490
489
485
484
486
478
477
477
473
473
470
463
454
450
444
440
441
441
440
443
447
450
448
443
440
444
448
439
431
432
439
448
455
455
440
434
434
442
445
446
441
437
438
442
447
449
454
456
449
442
440
438
433
433
438
442
446
448
447
447
448
451
456
454
445
446
447
452
452
450
448
445
444
438
435
437
439
443
444
447
450
450
447
442
439
435
440
444
449
454
456
451
448
448
448
450
466
491
518
545
578
617
656
691
722
762
799
832
862
879
903
919
933
954
973
985
990
990
990
971
916
832
735
643
571
517
460
387
307
231
148
65
17
17
17
17
17
17
17
17
17
17
17
43
79
111
143
161
175
190
210
224
236
251
271
290
309
327
336
349
372
397
416
433
450
465
476
481
489
506
514
503
499
505
517
532
544
545
542
543
546
543
544
552
554
546
546
549
550
552
563
563
556
551
547
544
545
552
556
564
569
571
567
566
567
567
561
564
568
566
567
567
561
560
562
571
572
568
559
558
562
568
571
568
569
575
576
578
582
586
583
581
584
579
572
569
566
563
564
573
583
592
590
585
580
580
578
575
576
580
586
589
590
594
601
596
590
590
589
588
586
593
602
612
609
612
613
613
619
623
629
633
638
647
652
649
642
634
627
628
630
637
644
648
650
655
658
658
662
668
675
672
669
666
667
670
666
666
666
670
670
665
664
660
662
662
657
655
651
645
646
651
654
660
654
653
647
642
634
631
634
634
632
629
628
629
628
622
615
611
605
598
590
579
577
574
568
561
554
544
532
529
521
513
507
502
502
496
482
466
457
453
451
449
450
450
442
436
421
415
411
408
406
401
396
389
381
376
378
377
374
366
360
356
353
358
359
363
362
366
366
369
365
361
360
360
362
364
359
360
362
358
353
351
354
357
368
371
373
369
361
358
354
352
361
364
362
362
366
368
373
377
380
386
396
402
396
389
386
395
401
400
388
377
374
374
374
371
376
381
391
395
402
408
410
411
408
410
402
396
398
407
414
417
419
416
416
418
418
414
408
406
409
421
428
422
415
413
412
423
436
431
427
425
426
430
432
434
436
433
434
438
447
451
453
455
456
454
450
440
434
439
436
433
437
436
439
439
438
442
450
446
452
455
453
457
463
467
469
469
455
447
447
454
462
464
461
460
465
467
468
475
476
465
467
470
472
474
473
474
478
479
481
479
472
474
481
486
491
495
504
506
508
518
527
530
536
543
544
539
539
537
537
536
524
505
494
485
487
485
482
489
495
500
492
490
493
494
493
496
494
490
485
478
478
473
471
470
469
465
467
466
463
471
478
482
486
484
485
481
475
465
449
438
424
414
416
421
426
431
437
440
442
443
443
443
438
425
418
426
433
433
430
435
438
441
436
433
432
430
432
435
443
447
447
445
439
440
449
456
454
439
428
435
437
440
450
456
450
449
444
441
442
442
441
432
428
427
427
435
439
436
433
439
448
451
452
452
450
446
443
445
448
448
445
440
430
423
423
423
424
425
425
426
431
441
456
474
499
527
553
584
620
655
689
721
755
790
821
847
870
885
901
921
937
940
942
943
945
928
880
810
734
671
611
549
484
420
355
293
223
154
90
44
19
17
17
17
17
17
17
17
19
48
81
113
142
168
195
211
221
234
255
274
282
296
308
314
325
337
344
360
376
396
413
434
454
467
475
477
479
485
484
491
498
499
499
505
513
516
517
520
525
531
534
536
540
540
539
543
543
551
551
550
555
559
559
559
557
554
550
548
547
547
543
540
544
551
554
555
557
555
555
556
558
560
556
556
560
560
561
563
565
565
564
567
570
568
572
572
567
562
561
567
573
575
574
575
577
572
565
564
572
572
575
577
579
585
590
593
593
590
589
587
589
593
591
585
589
597
603
613
620
621
616
610
612
617
624
628
628
624
620
619
621
625
629
635
638
641
648
652
656
664
665
660
656
652
659
660
653
651
654
655
660
661
661
659
662
663
657
651
649
651
655
658
660
661
662
664
664
665
663
663
661
657
653
651
651
647
642
638
636
631
629
619
608
601
594
591
594
592
585
581
576
569
557
548
540
536
526
518
518
514
505
505
503
494
484
477
463
449
441
436
432
426
425
425
424
416
408
401
397
395
394
384
381
376
373
374
373
367
362
362
366
368
366
365
365
360
352
343
341
348
351
353
355
355
358
356
356
359
359
362
368
372
373
371
370
365
357
353
354
356
361
368
374
374
374
373
379
383
381
380
377
377
376
379
380
385
390
394
397
399
394
387
388
384
382
386
391
397
404
408
408
412
412
408
398
392
395
406
414
421
422
417
412
417
421
420
415
418
427
431
435
440
432
424
427
435
440
439
436
432
429
431
437
436
432
427
419
421
427
431
434
440
442
442
442
441
443
444
445
443
441
439
438
435
433
432
440
448
449
451
455
458
459
457
455
454
454
456
462
469
473
472
463
458
464
472
479
486
484
478
481
483
477
475
471
472
478
483
484
479
477
474
472
477
487
490
492
496
500
499
503
509
515
519
522
527
528
524
521
517
511
509
508
507
504
500
493
490
493
494
494
491
492
494
494
497
494
485
479
475
474
476
475
469
469
467
463
462
466
475
478
478
475
477
480
479
478
474
474
467
459
453
447
439
439
438
432
430
432
439
438
437
442
444
446
443
435
433
433
428
426
428
432
437
445
450
452
451
451
449
443
438
429
432
436
445
448
444
440
438
439
438
437
438
439
442
439
436
436
430
429
435
443
447
452
450
448
449
451
454
453
449
448
449
452
446
440
435
432
437
439
437
439
439
437
440
442
442
438
435
441
445
451
470
496
522
544
571
602
636
665
691
723
758
785
805
829
850
868
886
907
924
931
944
949
937
910
851
771
689
624
565
508
451
382
312
238
161
88
30
17
17
17
17
17
17
17
17
17
47
76
106
133
162
183
196
208
221
235
250
267
278
292
313
328
346
365
379
392
413
433
451
468
475
480
490
497
502
502
505
512
516
519
520
526
534
541
542
542
548
554
553
548
547
552
557
557
551
549
549
549
552
560
561
556
555
556
557
560
559
557
563
573
576
577
574
563
556
558
563
562
562
567
566
562
552
548
551
558
567
567
562
559
560
566
572
572
572
571
571
572
576
579
576
579
582
585
579
572
571
574
578
582
588
589
586
583
584
589
583
584
585
588
593
596
600
605
612
617
615
611
611
614
616
616
617
621
624
632
633
638
643
641
640
644
643
639
639
636
632
635
639
645
649
652
658
656
652
650
654
652
655
664
668
666
664
663
664
674
679
669
660
660
662
662
658
654
654
651
645
640
633
631
635
641
644
641
634
629
623
617
615
615
608
599
597
596
595
588
587
582
569
562
561
553
549
545
539
535
534
530
515
500
497
497
493
482
474
467
461
450
438
431
424
423
421
417
412
409
412
411
402
398
395
388
379
374
376
379
374
372
377
381
377
376
374
375
376
370
363
362
361
361
367
374
374
370
368
367
366
368
373
377
377
378
383
386
386
382
375
372
374
376
380
382
380
378
380
383
385
383
384
388
400
402
400
400
399
397
396
398
399
402
408
412
412
403
400
406
406
403
399
398
407
414
415
413
417
421
423
419
418
420
422
423
424
423
425
428
426
429
436
437
441
443
437
434
439
443
441
443
448
453
457
456
448
443
441
443
450
452
456
455
453
447
446
447
444
448
453
454
450
445
444
448
449
451
449
452
459
461
460
461
461
455
457
464
462
463
464
470
473
476
476
470
472
476
467
465
468
471
474
466
456
452
448
448
455
462
470
475
477
477
477
483
485
482
480
484
486
484
483
477
475
477
477
474
471
470
473
483
491
499
508
513
515
516
518
525
526
526
526
527
527
529
528
523
515
511
510
507
509
513
516
516
513
512
514
515
504
496
499
512
519
519
511
498
493
485
487
487
493
500
500
497
498
501
494
479
474
475
482
483
477
470
464
458
454
449
444
442
447
452
453
452
448
438
432
431
431
432
435
435
440
449
451
454
453
445
447
455
451
446
447
447
444
443
441
439
439
438
439
440
443
447
444
441
444
452
455
456
460
458
455
451
447
451
458
457
454
452
451
449
447
446
453
461
461
461
457
454
461
463
457
454
452
448
444
443
451
449
445
445
442
441
440
442
450
461
473
476
487
509
536
564
605
641
671
700
730
770
805
834
861
896
922
930
947
969
979
989
990
989
989
954
893
812
719
643
587
521
443
378
312
235
139
53
17
17
17
17
18
18
17
17
17
21
67
96
123
154
177
194
212
230
245
244
263
285
302
319
339
352
353
365
378
392
411
434
453
468
475
478
480
480
487
502
504
513
526
532
526
523
531
537
537
538
546
554
561
559
555
546
550
550
549
546
552
558
559
558
552
556
559
560
559
559
553
546
549
548
545
545
549
552
558
561
560
562
562
560
560
563
564
562
564
563
566
568
566
566
561
555
555
563
571
575
574
576
578
582
580
574
575
582
578
577
579
576
576
580
584
590
597
597
598
602
602
594
592
594
596
599
603
610
607
611
612
605
607
604
602
608
620
629
630
633
639
644
644
638
624
619
622
629
637
637
637
642
647
651
653
657
658
659
661
666
668
672
670
664
658
658
664
671
667
663
662
665
666
662
657
652
655
658
656
654
653
652
648
648
652
648
645
642
646
642
626
616
618
624
623
615
613
603
593
589
582
578
577
565
560
555
551
549
542
539
536
535
529
515
505
498
497
488
476
468
468
465
461
456
441
436
435
425
417
410
405
399
392
394
394
380
375
372
371
371
368
367
361
369
370
368
366
361
359
358
357
359
361
361
366
367
367
367
363
358
359
361
365
373
375
376
374
373
371
368
369
374
378
380
382
381
379
378
387
388
390
392
390
385
386
391
390
395
397
395
393
393
395
404
409
401
395
398
400
408
413
416
420
423
417
413
409
402
396
398
409
424
430
434
436
430
432
438
432
429
427
422
421
426
433
433
433
433
433
435
438
441
443
442
443
443
443
442
440
437
437
444
449
452
452
452
453
451
449
450
452
454
456
456
455
456
460
462
462
455
453
455
456
457
457
464
465
468
465
462
466
473
481
484
485
479
470
463
457
450
449
452
455
454
459
464
462
461
461
468
474
477
476
470
469
470
470
463
458
456
455
455
458
462
466
468
471
474
474
475
479
475
470
468
470
473
473
468
466
466
467
465
459
456
456
463
465
467
465
466
468
471
480
486
488
484
481
479
480
480
486
490
490
490
490
492
491
493
496
500
503
500
492
491
493
499
508
506
493
480
480
491
505
512
513
518
525
534
537
540
536
538
544
541
537
531
521
517
514
510
508
506
506
507
509
515
517
520
522
521
522
521
518
521
523
524
525
528
531
520
503
494
491
488
483
490
503
501
486
478
477
470
467
465
466
470
470
460
447
443
450
458
464
462
450
441
445
447
440
438
440
443
445
451
455
449
449
445
448
453
452
454
450
445
445
444
441
441
443
449
455
452
449
452
456
463
466
462
462
459
457
451
450
452
449
448
448
451
453
458
459
455
453
452
455
463
466
456
453
455
460
462
466
467
465
461
457
453
447
445
448
442
432
422
415
421
434
448
460
479
512
553
593
637
676
713
747
787
813
839
866
886
909
938
955
978
990
990
989
989
989
990
972
901
808
716
642
581
512
438
362
284
200
110
38
17
17
17
17
17
17
17
17
17
50
87
114
142
163
179
200
222
233
242
258
275
297
315
327
341
347
355
371
394
407
426
435
447
462
472
479
485
488
490
503
515
525
532
532
528
527
533
530
529
534
535
537
540
540
544
549
548
554
557
558
556
559
563
550
544
542
537
545
553
554
551
554
557
553
549
552
555
552
557
561
560
560
562
566
571
573
574
567
560
560
563
569
574
570
565
561
557
555
558
562
568
575
575
574
578
582
587
592
590
586
582
583
584
587
591
596
596
594
604
609
599
582
578
573
576
582
590
591
593
601
608
606
605
608
612
615
616
616
618
625
627
628
633
641
645
647
644
639
632
625
620
623
631
634
642
650
652
655
660
667
667
665
663
663
662
659
665
671
673
671
668
661
661
659
656
655
653
653
648
647
649
650
649
649
650
645
637
632
641
640
634
635
628
618
613
612
609
606
604
595
593
589
581
574
569
564
557
549
545
544
534
526
525
520
518
514
510
501
501
498
488
469
456
446
443
441
436
435
430
425
422
417
412
397
392
391
383
376
377
380
381
385
388
389
378
368
360
362
364
367
368
365
363
367
372
374
378
378
374
370
373
379
381
376
385
381
367
362
366
370
374
384
391
398
400
400
399
396
391
379
378
382
383
383
382
384
383
384
391
401
406
403
408
416
423
423
425
419
411
408
413
417
418
422
421
411
410
417
420
422
420
419
418
430
435
431
425
425
420
421
424
417
416
422
428
433
437
440
444
440
436
433
439
446
453
454
454
450
441
441
448
453
456
454
454
448
447
452
447
447
452
455
452
449
452
453
457
462
462
463
469
469
469
467
461
456
456
466
474
471
473
477
469
458
457
460
462
465
462
458
459
464
466
462
462
475
475
470
471
467
465
465
467
473
477
469
460
460
461
457
456
453
453
454
462
469
464
456
448
449
456
464
470
472
474
478
475
473
473
469
468
466
465
465
464
463
458
459
459
467
469
467
467
464
462
463
462
459
461
467
468
465
467
470
473
477
476
481
483
482
482
479
481
487
493
490
487
494
498
495
493
493
493
490
483
477
474
474
481
486
492
500
504
508
509
511
519
528
530
525
521
516
512
512
519
520
519
516
514
513
517
519
520
523
523
513
507
505
508
510
506
501
502
504
500
493
494
494
495
499
498
493
494
498
503
502
499
494
492
487
484
477
477
472
466
463
457
448
448
448
440
437
441
449
456
461
463
463
464
466
464
462
458
456
455
455
455
453
452
454
459
466
463
461
450
442
443
450
456
457
451
454
457
457
454
453
456
458
458
457
459
460
452
445
440
446
456
456
455
455
459
460
462
466
465
464
466
462
457
455
452
451
454
458
453
448
448
449
449
447
449
445
442
442
441
442
440
443
455
473
493
522
558
599
639
677
714
749
781
807
831
859
886
897
902
907
918
928
940
951
950
932
891
828
753
680
618
563
504
449
381
306
227
152
95
53
26
17
17
17
17
17
17
21
53
81
102
122
142
168
193
210
226
238
252
272
289
298
306
320
339
356
368
381
400
413
421
435
449
460
477
488
492
501
504
510
511
511
517
524
535
540
541
540
544
550
549
548
552
550
550
549
551
553
550
548
554
555
558
563
565
570
575
575
569
566
556
548
546
540
537
548
557
560
564
564
562
563
565
563
558
552
554
559
563
566
567
566
563
562
570
581
583
574
572
575
575
570
567
565
568
573
568
564
569
573
580
584
589
584
581
579
576
577
584
598
606
604
601
599
603
606
607
608
608
611
611
609
609
610
618
623
616
616
625
628
627
625
625
633
642
647
652
652
664
673
680
664
656
654
657
666
672
673
673
670
662
658
658
661
662
661
664
674
678
678
679
664
657
662
665
650
639
638
643
648
641
643
646
645
643
644
642
637
631
629
630
630
623
616
607
606
597
598
598
596
586
573
575
575
565
550
537
531
527
522
518
510
508
505
491
482
476
471
468
465
461
453
444
439
429
427
424
418
413
405
402
400
397
395
395
393
389
388
390
386
384
382
375
369
364
362
357
356
359
362
365
367
369
370
371
374
374
373
379
379
383
387
382
377
378
369
371
370
363
362
371
373
378
387
389
383
374
379
390
388
383
383
383
379
380
384
389
396
396
391
384
383
384
386
386
387
398
406
417
419
419
423
422
423
412
400
396
397
400
399
396
402
412
423
432
433
429
418
419
431
433
429
430
428
433
434
431
430
436
440
438
431
426
427
435
447
453
453
450
446
444
444
446
450
458
462
460
459
459
459
460
459
461
456
453
452
449
449
448
448
453
453
458
465
477
477
470
460
455
457
462
460
460
458
458
466
466
465
463
464
463
460
464
471
476
475
467
463
470
474
473
476
477
474
470
466
457
454
457
463
467
463
456
455
460
465
468
472
476
470
465
463
460
465
465
457
454
460
473
474
475
471
471
473
473
466
464
466
472
478
478
467
457
459
467
467
463
466
465
469
477
476
476
482
484
485
482
481
479
479
486
491
490
488
487
486
491
495
503
503
498
495
496
497
496
493
484
478
482
490
502
507
508
509
510
515
526
531
536
531
518
510
517
517
508
503
501
502
509
519
522
518
516
520
518
510
506
505
505
508
514
514
508
503
504
498
491
485
482
483
491
494
494
503
508
500
496
495
496
492
485
486
482
475
463
451
440
437
443
443
446
451
452
455
455
454
453
457
464
463
456
449
446
444
447
456
455
452
448
445
447
453
457
455
458
458
455
453
455
458
465
467
467
464
460
455
451
451
453
453
458
462
462
462
453
446
450
452
456
458
461
462
460
455
451
452
455
458
456
458
457
457
461
461
455
456
450
442
445
447
452
447
438
442
446
448
441
444
458
475
495
534
563
599
636
667
701
737
780
821
849
868
888
910
924
938
964
982
990
990
990
990
986
935
846
745
664
601
546
474
401
331
259
169
92
32
17
17
17
17
17
17
17
17
22
54
86
118
150
174
191
210
233
242
234
236
257
275
290
306
328
344
359
371
384
400
422
445
463
471
468
470
483
493
502
507
508
511
520
528
537
547
552
554
558
552
541
539
545
548
553
556
559
561
568
566
560
560
557
550
547
550
549
550
551
552
560
568
572
577
575
578
575
570
570
567
564
563
555
551
549
547
547
558
564
570
567
565
563
561
563
566
565
557
559
565
567
564
565
571
573
571
569
573
576
578
579
583
588
589
597
604
595
579
573
572
576
583
585
587
591
598
604
605
603
602
605
611
616
623
629
629
631
637
633
617
613
619
627
628
625
628
628
630
637
640
643
651
656
658
661
660
663
665
665
663
665
663
671
678
679
677
675
666
651
642
648
649
652
654
649
648
645
642
640
640
643
645
642
639
636
632
633
638
632
628
634
637
634
627
619
617
608
602
596
592
590
586
582
576
569
561
554
546
543
539
536
525
512
505
497
488
485
480
474
467
461
455
448
441
436
437
433
436
432
424
416
401
392
386
386
387
383
382
383
383
381
377
372
367
368
365
365
364
359
359
361
363
367
363
358
361
362
364
365
360
358
360
358
360
365
366
366
369
370
375
381
384
385
384
384
383
376
370
369
369
369
367
375
392
394
390
384
384
387
387
390
396
397
397
398
395
397
402
405
407
408
407
408
409
412
413
411
404
401
405
413
420
425
425
428
428
428
425
428
421
426
431
434
446
455
452
440
432
428
424
427
434
438
443
446
447
444
452
457
447
438
430
429
430
433
439
441
437
440
446
448
448
449
447
446
452
458
455
455
455
455
457
455
455
461
456
452
452
451
455
456
459
457
460
467
468
469
473
474
468
464
462
465
471
470
466
456
452
452
450
454
458
461
461
459
457
454
455
458
452
454
461
467
473
474
473
475
480
478
470
464
460
459
462
459
458
463
469
474
470
468
464
462
463
464
463
462
464
467
463
455
454
458
462
471
472
469
469
473
470
467
468
469
471
471
472
470
463
461
468
475
478
473
467
462
462
466
468
469
469
467
467
472
472
470
467
465
467
472
479
484
493
499
492
495
503
509
502
491
487
477
474
483
485
475
472
474
476
477
483
486
486
487
487
496
509
519
519
515
514
516
528
530
535
536
533
528
515
503
506
511
512
517
523
529
528
526
529
530
531
530
516
513
517
519
518
518
518
513
507
502
505
512
517
516
512
505
504
503
498
489
491
496
496
494
483
470
460
450
446
445
450
454
455
452
448
449
453
454
455
457
460
459
452
445
441
445
450
451
449
453
460
467
469
469
472
470
462
454
450
450
455
457
465
469
470
479
478
463
446
438
443
447
450
452
454
458
463
465
463
463
456
458
464
467
465
463
459
455
459
462
464
459
452
453
458
462
460
455
445
450
457
456
456
456
459
454
456
450
445
443
451
470
499
528
556
587
632
670
706
746
778
805
836
865
887
911
933
945
962
981
990
989
989
989
990
970
905
807
705
625
561
498
438
362
282
209
123
49
17
17
17
17
17
17
17
17
17
37
65
93
125
148
168
193
212
224
241
255
267
278
297
319
338
354
369
384
399
412
424
433
448
461
