463
459
458
468
477
486
505
521
535
546
559
568
587
607
633
661
688
716
739
766
801
838
872
904
914
918
927
933
932
935
941
956
970
964
950
915
875
819
735
647
560
473
401
323
243
178
130
100
81
60
47
48
67
91
113
129
151
175
211
244
269
294
314
339
360
378
389
390
389
388
389
391
392
392
395
404
415
427
439
446
453
467
479
485
487
490
491
485
484
487
494
504
506
506
502
502
499
495
502
510
508
500
501
504
502
500
506
508
510
512
518
528
532
531
531
534
526
517
522
527
524
527
532
535
535
539
538
535
526
520
517
519
523
526
531
536
540
537
530
528
530
529
532
524
518
524
532
541
546
545
539
536
535
531
537
546
553
551
553
554
558
561
548
538
535
543
554
558
556
552
546
543
536
526
529
535
537
543
548
547
545
550
551
553
552
551
553
558
560
563
560
562
568
566
553
550
547
544
544
542
543
551
560
558
563
568
575
583
591
601
604
607
609
605
605
600
592
591
598
607
611
613
607
596
585
581
581
586
593
597
600
604
611
610
612
607
603
598
598
599
597
592
590
592
596
597
598
601
599
592
587
588
594
597
597
592
586
577
569
571
577
578
580
582
586
591
590
586
582
575
575
571
573
575
576
573
568
559
551
541
533
522
523
531
540
543
531
526
521
523
520
515
516
508
501
497
494
494
491
488
486
486
480
474
472
475
473
471
466
457
452
453
451
448
444
437
425
415
412
413
412
408
408
409
410
405
400
394
388
384
381
381
382
396
402
395
387
392
397
397
392
387
391
394
390
382
378
383
382
380
376
372
375
381
379
376
372
367
369
370
377
385
390
399
404
408
404
394
384
380
383
385
378
374
374
374
370
367
370
369
368
374
383
391
392
389
390
389
384
383
398
413
418
415
412
411
413
410
409
409
405
405
412
413
415
415
416
419
423
420
419
414
411
410
412
414
411
404
408
415
421
423
425
427
426
432
435
436
435
438
447
452
458
461
457
449
447
453
458
462
447
446
450
450
452
454
458
464
463
467
473
477
482
485
489
497
505
512
515
508
494
475
459
451
451
449
442
444
460
468
474
479
486
493
490
483
471
463
466
471
475
475
476
482
489
488
483
480
478
478
481
479
475
474
477
476
480
482
482
482
487
494
497
495
495
491
485
482
480
474
468
464
459
457
462
460
459
457
455
454
462
477
481
480
481
481
485
484
483
480
479
485
488
485
489
489
484
484
488
496
497
498
495
492
485
481
483
486
487
485
482
482
487
485
477
475
465
458
464
463
469
474
483
486
491
497
501
501
494
486
482
484
491
495
499
500
494
487
484
481
479
480
481
483
488
490
488
479
475
475
472
464
467
473
476
472
468
468
467
465
464
476
486
491
492
489
486
490
492
489
490
491
489
488
479
476
474
473
477
483
485
485
489
492
494
495
496
499
505
507
504
491
486
489
494
489
475
471
474
475
479
484
488
492
493
492
492
487
484
482
487
493
499
501
504
508
506
500
490
478
477
466
456
451
461
472
482
483
482
484
476
475
481
483
481
482
482
483
486
487
488
488
488
490
494
496
496
494
493
490
493
497
499
501
505
511
510
510
516
512
506
497
494
494
494
498
501
500
498
496
491
493
506
515
517
517
509
508
506
508
519
525
527
532
544
549
552
556
563
569
571
568
556
549
547
546
540
533
526
519
514
515
515
512
511
510
510
507
509
515
516
516
519
517
507
502
495
491
489
478
473
471
471
471
472
472
472
469
464
465
464
467
471
472
470
465
457
458
464
469
462
457
464
469
468
469
470
471
465
459
447
440
442
448
453
451
452
456
461
464
468
472
477
479
480
476
479
483
484
479
472
466
458
454
451
450
450
448
449
456
463
474
480
477
469
456
448
446
446
445
449
455
467
467
465
465
466
473
479
482
484
485
485
477
475
469
466
472
480
489
490
482
478
479
479
475
471
472
476
476
474
474
472
466
460
460
461
459
458
458
469
489
505
518
532
555
581
606
640
670
696
726
759
790
826
855
880
902
917
930
936
944
937
928
922
923
932
929
907
869
827
770
691
605
523
438
363
285
212
153
120
100
78
63
64
79
92
103
107
109
123
150
177
210
235
256
280
295
314
331
339
347
352
364
376
386
400
412
418
424
433
442
447
448
445
443
447
454
462
467
472
474
473
476
478
485
487
491
490
481
480
481
483
485
492
501
505
506
510
516
519
517
511
508
508
512
523
529
530
530
525
520
523
527
535
539
539
537
532
531
529
522
512
512
515
513
509
509
511
512
515
525
529
530
533
538
541
542
539
530
523
518
522
527
524
520
519
520
518
519
527
530
530
517
503
496
499
509
516
518
527
532
529
529
530
531
538
547
555
554
546
544
544
542
543
546
547
544
543
539
536
537
541
546
548
552
554
552
549
547
546
542
540
542
549
555
557
564
568
558
552
543
542
549
557
560
562
563
567
574
581
583
584
586
586
588
591
589
587
593
600
603
605
607
616
621
623
625
621
617
611
611
618
617
611
604
596
592
590
594
600
592
587
578
565
550
546
549
552
561
568
571
570
573
575
570
560
550
545
553
564
575
573
573
576
581
584
586
570
556
548
536
528
523
521
523
529
531
531
526
521
515
510
503
502
507
508
509
510
514
514
507
500
496
494
491
489
487
489
495
482
459
441
425
418
416
422
427
426
431
438
434
425
416
412
407
404
404
409
408
400
398
400
399
398
401
402
402
403
402
398
392
389
382
377
374
373
368
360
359
366
373
381
385
387
379
368
362
357
360
364
371
372
375
378
380
379
378
384
377
376
377
377
379
380
379
385
392
397
401
405
401
405
414
416
403
392
386
384
384
381
374
374
377
378
385
396
401
397
397
401
404
404
406
411
417
414
419
420
423
426
427
427
424
425
425
415
412
420
424
425
430
433
428
428
434
437
446
450
445
439
439
446
452
457
459
461
463
459
453
445
436
437
446
451
449
456
467
473
466
463
465
463
463
462
456
453
450
453
455
462
467
466
466
463
467
470
464
466
462
465
462
461
462
462
461
469
478
479
482
480
476
478
484
482
476
477
478
479
484
482
473
473
483
487
484
477
469
467
465
465
468
469
471
473
477
483
482
480
478
478
480
486
488
481
480
483
487
491
481
470
461
460
459
461
460
451
446
442
439
447
453
455
461
461
468
463
459
458
459
466
472
483
488
488
489
492
489
481
485
484
475
472
482
484
482
476
472
469
473
476
478
476
479
482
481
480
478
480
480
474
470
464
461
462
463
462
467
473
479
482
479
474
459
453
453
458
457
464
472
476
478
484
477
466
462
469
469
465
458
452
462
465
470
475
472
469
468
470
472
469
468
475
477
480
477
475
474
478
481
487
491
491
492
499
497
485
484
483
476
470
466
456
446
453
457
457
458
464
472
472
470
475
464
458
453
449
452
461
459
456
465
473
479
481
474
476
473
479
488
494
497
498
491
485
486
493
485
477
473
470
466
471
477
482
481
476
471
470
470
470
469
472
477
477
465
453
445
444
444
449
455
461
470
470
475
480
476
466
461
459
468
475
475
474
477
473
477
486
483
479
473
465
463
466
467
465
464
459
456
459
463
466
468
468
461
468
475
478
471
465
456
451
455
460
472
478
476
478
478
481
483
485
490
489
492
500
505
506
505
506
503
503
508
509
511
511
518
520
517
514
519
525
517
515
520
521
522
524
529
531
528
523
519
513
508
500
502
498
498
502
506
505
488
471
451
444
443
441
441
443
448
457
459
458
457
460
456
458
454
454
462
456
447
441
439
434
432
428
425
425
426
420
419
426
427
426
430
436
444
442
440
436
438
437
447
455
464
460
451
447
442
447
452
444
445
446
443
438
439
447
441
437
440
437
433
435
434
432
430
433
433
441
439
436
438
440
447
449
434
428
433
440
441
445
450
454
455
451
449
453
455
454
453
453
455
452
445
446
442
437
431
432
447
461
462
453
453
454
454
453
451
446
443
450
456
460
470
480
489
501
509
523
543
567
598
626
660
696
728
752
783
816
847
874
893
899
893
888
898
904
903
896
887
877
851
816
767
705
629
544
450
353
253
166
97
39
17
17
17
17
17
17
27
43
68
93
114
128
142
162
187
213
241
264
286
313
334
337
340
353
361
372
386
392
398
408
424
439
443
446
451
453
460
465
472
479
481
484
485
490
494
492
491
488
488
488
484
487
488
492
492
489
486
484
489
485
486
498
513
514
514
510
503
505
506
509
510
499
486
481
486
488
489
497
497
499
499
495
496
499
505
512
518
516
510
504
503
503
502
501
499
496
499
499
499
497
503
512
518
523
526
529
530
529
525
518
520
527
529
533
528
526
533
530
528
531
540
554
559
555
541
528
524
521
521
527
519
510
507
515
519
519
517
518
524
530
540
550
556
544
535
532
531
538
540
544
546
537
534
533
529
523
525
532
540
540
533
538
548
542
535
538
551
553
558
547
538
535
537
542
547
552
551
560
570
574
573
573
576
581
584
580
570
565
563
563
563
562
567
577
581
582
584
592
593
595
591
590
589
590
583
579
572
568
563
566
569
572
577
577
577
570
556
550
553
544
532
531
533
533
535
539
544
540
539
536
525
526
533
534
536
539
545
542
545
545
544
543
543
540
527
511
505
496
487
481
476
466
463
460
457
450
450
445
444
450
453
451
451
446
438
436
441
448
448
447
450
450
443
438
442
448
451
446
440
442
441
432
427
417
402
393
395
394
398
393
392
387
382
386
387
386
393
403
401
400
398
391
383
375
366
354
354
362
368
373
372
367
369
371
372
378
390
400
397
396
399
398
398
403
413
421
413
402
400
401
401
400
401
402
405
410
413
414
418
418
413
414
412
411
408
407
411
419
427
427
429
430
428
432
436
444
453
456
457
455
449
444
437
435
430
426
427
426
427
431
443
450
451
446
449
456
459
461
464
461
462
466
467
477
483
485
487
486
489
495
498
493
491
495
501
502
503
503
504
499
494
493
494
500
501
504
506
504
499
498
498
492
489
487
490
492
487
485
480
480
482
485
489
490
493
495
494
496
498
497
499
497
494
493
496
495
500
502
507
511
517
515
518
515
508
500
493
492
491
489
492
500
502
505
504
503
508
506
506
503
500
500
500
498
497
501
507
504
505
512
521
533
534
526
515
503
503
507
509
508
499
492
494
495
496
496
498
502
503
511
516
515
517
519
515
515
521
526
525
523
519
521
525
527
525
524
524
523
520
518
517
511
513
520
527
529
531
533
525
514
516
518
514
513
514
516
517
512
506
507
508
513
519
527
534
534
537
545
552
551
553
551
549
545
543
545
545
541
541
539
534
537
543
544
541
533
525
528
528
525
521
514
517
520
519
522
527
531
528
529
537
546
547
549
550
551
553
554
549
546
547
546
550
555
559
562
564
560
553
552
553
562
568
573
579
570
567
562
555
554
549
543
535
531
528
524
524
523
520
521
521
521
520
520
526
533
544
542
536
540
542
542
547
551
550
552
559
566
569
571
567
566
568
572
578
585
589
588
584
580
579
577
579
586
589
591
593
591
582
575
575
578
584
582
578
577
574
572
571
571
572
575
577
576
573
569
568
566
567
575
580
578


495
489
493
505
519
526
535
543
530
508
499
487
479
475
480
489
499
512
519
521
520
512
508
518
525
527
540
550
555
558
544
527
512
521
528
519
524
525
517
524
531
525
523
531
536
537
539
538
535
543
548
551
551
539
529
526
526
532
539
547
548
540
547
539
547
559
560
565
560
543
543
548
550
544
540
544
543
542
546
547
551
547
541
542
537
535
530
528
527
521
524
535
526
531
543
552
559
555
555
566
562
559
547
538
544
556
556
554
553
553
553
554
552
554
557
556
551
549
544
548
546
554
566
579
583
588
578
575
569
575
583
566
559
554
556
575
582
580
575
567
573
580
587
585
577
567
557
551
553
571
586
591
593
588
590
583
567
567
575
574
573
573
569
568
575
579
573
575
564
557
549
547
555
555
555
557
565
570
555
552
558
544
541
540
550
548
540
537
540
538
535
537
542
531
516
524
528
533
540
550
537
512
498
498
495
493
485
490
497
490
490
492
489
479
468
466
472
478
477
476
476
475
471
460
447
450
445
440
452
451
435
436
448
452
438
421
413
420
434
440
436
436
429
421
422
427
436
435
424
427
432
427
431
435
412
405
406
407
404
403
408
413
424
430
422
414
400
393
398
401
397
387
391
411
419
418
408
409
417
432
433
425
416
411
405
408
408
408
416
418
419
421
418
420
415
405
408
407
410
419
435
443
448
443
446
436
419
415
413
429
446
441
432
430
425
419
418
444
463
473
486
485
488
485
464
445
432
426
437
443
452
463
481
494
490
498
480
456
452
447
451
453
460
471
478
477
475
472
476
472
466
463
468
467
461
457
464
466
471
474
466
464
464
462
460
465
468
473
486
493
491
498
498
510
510
492
483
487
486
492
507
505
481
463
464
472
482
472
455
445
451
459
475
498
504
499
484
468
461
466
478
486
489
487
491
499
502
508
499
488
478
470
473
487
495
494
479
469
474
480
482
475
462
458
474
492
496
489
477
468
493
516
514
523
518
514
510
514
504
496
482
474
474
468
472
479
489
486
482
485
478
471
476
482
480
476
469
472
472
484
487
482
480
476
489
494
492
495
494
481
475
481
492
505
503
502
501
505
505
499
488
474
478
478
473
487
496
506
500
487
485
482
487
490
487
477
489
506
514
503
491
494
499
498
499
488
469
473
477
476
475
475
479
483
483
491
502
499
491
492
497
491
487
480
476
478
482
490
497
495
487
491
496
493
476
470
471
476
474
467
457
467
479
497
501
495
496
490
480
481
490
483
475
474
479
489
499
510
513
512
500
489
490
479
480
490
488
485
493
488
486
493
497
488
485
484
486
486
509
513
508
508
499
493
498
494
488
495
486
475
476
482
484
488
501
516
528
531
532
531
529
530
534
541
545
551
548
542
534
543
560
556
554
552
534
523
516
524
521
513
514
526
532
532
533
527
512
510
511
517
530
531
532
517
495
467
456
465
476
495
494
491
482
476
487
495
477
468
465
460
449
452
468
465
463
455
453
453
465
470
467
462
468
469
458
452
446
442
448
459
462
475
481
474
467
479
480
462
446
440
443
458
478
491
493
489
478
475
474
473
473
480
496
492
481
460
464
477
482
477
472
479
476
468
469
471
476
484
484
475
472
481
475
483
496
489
484
481
483
476
467
469
474
477
493
498
482
475
461
463
475
479
485
487
499
506
495
481
474
478
494
495
495
491
479
497
527
554
548
553
555
583
613
628
654
671
706
757
782
799
836
862
870
863
856
855
862
851
850
854
857
846
832
799
748
675
591
509
423
345
275
210
152
119
98
78
61
71
82
104
128
147
167
193
225
258
281
300
320
337
355
363
377
393
399
398
400
417
439
434
426
432
443
452
465
486
495
501
489
475
488
499
523
530
520
513
514
523
531
522
508
506
503
499
509
513
512
507
506
511
519
519
512
509
521
533
545
553
560
555
536
515
516
524
526
531
543
532
520
518
511
513
523
532
532
525
516
515
517
518
529
544
550
542
545
550
541
532
541
544
540
544
538
532
533
534
535
524
521
529
549
554
542
527
512
521
545
554
553
546
539
539
540
545
552
562
561
564
548
536
528
521
521
523
528
533
526
537
552
559
563
562
564
563
558
566
569
577
544
517
517
542
570
587
586
578
573
562
549
545
550
547
543
540
539
531
530
539
543
550
560
574
568
571
577
578
572
573
566
562
570
586
594
591
590
584
574
564
555
554
553
554
557
557
569
574
564
556
568
568
562
564
568
566
574
584
578
567
563
558
551
556
571
582
582
563
544
546
538
529
516
517
532
535
535
525
513
514
526
539
532
527
522
522
514
517
520
527
532
515
492
485
492
484
474
458
455
467
476
483
484
479
475
486
495
488
472
463
467
471
463
449
436
437
437
425
421
418
432
454
460
449
448
442
442
444
441
428
418
409
416
419
417
422
419
417
405
402
408
412
418
422
432
429
407
402
412
401
396
383
366
350
363
385
399
397
396
399
408
409
400
394
383
383
387
395
404
407
412
411
403
402
412
418
417
416
418
412
399
396
414
428
415
408
421
414
412
417
422
426
432
443
461
460
453
452
433
419
412
416
421
412
417
420
425
425
434
432
431
440
445
450
454
448
442
434
424
425
421
425
432
446
455
451
448
446
456
462
457
451
448
453
461
476
481
476
467
457
456
454
457
455
456
460
468
463
463
474
475
482
478
464
454
459
461
463
474
481
488
484
484
478
463
449
456
455
455
466
462
465
478
487
482
480
477
472
477
476
471
463
464
469
472
478
477
475
471
473
469
455
446
456
468
463
466
468
464
468
478
481
477
475
469
463
458
460
459
467
471
463
464
471
476
465
453
446
446
458
449
444
446
446
456
467
478
474
466
456
451
448
450
455
463
472
465
459
462
469
478
479
496
515
501
491
497
485
474
464
474
457
457
465
463
452
444
440
444
455
462
467
468
461
454
460
466
472
467
469
462
470
474
466
463
460
463
464
466
454
461
475
475
462
459
463
477
475
470
474
479
480
474
465
462
464
458
461
476
473
468
477
494
498
488
475
455
454
461
461
456
456
455
454
462
469
464
452
452
462
478
484
485
494
500
487
477
470
480
500
512
506
486
471
464
455
457
472
480
474
471
477
480
476
476
467
447
442
449
464
474
476
469
473
485
502
508
494
490
491
488
480
476
475
490
490
487
477
470
467
464
468
470
465
459
460
466
468
475
478
482
495
501
506
505
496
500
508
514
511
499
499
505
515
520
526
530
518
516
511
498
503
508
511
511
514
512
514
519
520
520
514
511
517
531
526
525
517
491
462
454
445
439
444
443
449
455
460
468
468
462
462
468
477
463
446
440
440
449
457
467
475
479
472
461
456
448
443
434
438
439
435
425
418
426
430
436
446
456
462
469
465
462
465
461
456
457
451
452
450
440
428
433
445
458
465
454
447
440
445
458
462
464
464
470
471
461
457
462
472
476
467
465
465
471
476
468
459
459
467
466
461
458
449
440
434
442
445
448
439
445
467
477
472
465
455
452
461
465
453
455
451
435
440
452
470
486
501
504
515
513
512
521
545
582
596
600
609
623
640
664
696
726
746
746
758
770
782
789
805
816
815
806
799
790
790
793
785
756
717
656
573
501
432
342
253
179
128
92
81
71
66
70
78
92
104
120
142
154
166
194
221
242
267
304
336
359
373
385
393
399
391
400
407
411
433
443
438
431
434
448
464
472
481
494
495
496
508
521
522
530
516
505
496
505
523
527
524
530
535
526
500
491
496
505
515
515
512
513
513
519
523
513
503
503
510
512
505
503
517
516
521
526
523
525
540
542
539
547
543
530
533
542
547
546
537
527
521
521
512
511
523
532
537
534
524
525
532
531
537
537
531
528
523
516
537
547
551
550
551
539
531
519
498
500
520
542
550
548
537
538
543
548
549
540
530
524
533
534
541
550
557
561
553
560
568
559
547
540
541
541
538
539
546
553
557
555
549
530
530
533
538
545
549
550
549
554
553
544
546
553
553
555
564
579
585
580
551
535
541
542
530
524
540
545
554
562
554
554
565
569
572
576
575
573
569
562
559
560
555
554
561
561
555
551
555
558
553
550
552
558
562
574
576
578
579
571
562
560
555
554
553
561
569
565
546
525
521
525
536
531
513
504
509
518
537
549
546
538
530
501
482
482
489
500
501
501
497
489
484
480
491
492
494
486
489
497
494
486
469
464
468
469
474
475
471
464
451
445
442
444
448
454
456
453
446
429
410
408
422
429
431
435
432
428
420
417
424
430
436
433
424
411
410
409
405
394
396
399
408
422
424
409
407
409
408
397
391
394
394
393
398
403
400
397
393
392
390
388
387
391
398
403
402
395
386
386
399
414
432
445
444
443
423
419
428
439
450
450
440
438
419
411
417
419
423
428
421
415
422
432
429
429
432
444
452
451
448
444
432
419
422
433
443
446
447
446
457
464
475
474
451
440
440
444
451
452
461
470
474
476
478
479
490
491
497
497
493
478
460
456
452
469
498
502
492
494
488
469
456
449
445
447
456
466
471
482
479
470
475
480
484
471
469
475
468
472
492
500
501
509
511
503
475
460
459
463
465
471
477
482
475
463
464
477
492
486
482
482
474
455
449
459
471
484
488
491
484
484
493
507
521
514
499
492
489
492
486
481
477
475
461
454
448
459
469
472
486
492
495
493
494
489
482
483
480
475
472
475
493
497
493
486
489
500
509
507
492
479
474
472
467
465
467
462
470
476
484
479
481
490
490
476
474
487
499
502
498
492
487
486
493
492
492
479
464
464
477
483
486
479
476
487
496
500
503
507
496
475
479
483
477
471
476
481
477
482
486
485
482
482
485
491
490
490
495
497
500
501
511
516
528
534
524
506
493
486
486
486
488
491
491
498
504
495
485
481
483
486
489
486
491
491
493
501
503
494
487
485
480
484
493
491
490
488
495
506
511
510
511
507
501
494
487
489
491
494
491
483
484
488
488
483
472
473
483
495
508
521
539
539
514
497
499
511
521
522
516
499
497
501
502
507
515
527
540
541
524
510
493
472
472
491
497
492
493
503
510
505
498
501
504
502
506
506
510
504
497
499
501
505
503
512
514
515
523
524
534
529
517
530
551
559
557
533
519
517
524
526
538
550
560
555
559
556
536
524
522
520
524
523
523
517
505
515
530
524
512
504
513
522
524
525
514
489
479
480
487
491
493
492
492
490
491
495
492
494
492
486
493
481
486
479
463
458
461
467
464
467
484
481
472
473
477
470
468
478
486
483
480
489
494
488
468
459
457
453
452
451
455
458
469
483
500
509
511
502
495
486
482
479
471
468
481
486
478
473
472
473
471
468
459
465
476
482
489
494
495
492
490
489
493
494
494
489
482
475
473
466
459
465
481
487
494
499
504
505
500
496
494
497
501
499
486
476
481
483
482
479
476
477
483
501
510
505
517
535
563
572
579
602
628
646
671
703
736
751
772
807
844
859
833
828
834
835
825
811
800
808
807
803
793
777
733
659
590
530
455
388
325
261
209
173
159
158
146
133
132
139
149
168
193
224
239
255
289
324
346
359
361
364
380
401
414
421
422
429
432
433
434
436
445
456
458
462
473
472
486
507
518
517
514
498
488
488
494
511
518
518
515
522
521
516
518
517
521
524
526
524
525
524
529
531
523
524
532
543
545
542
533
530
531
528
524
516
516
529
540
540
529
530
545
558
560
544
537
541
552
557
550
533
530
539
542
550
557
568
564
552
539
533
539
542
538
551
548
538
536
537
526
512
526
536
536
535
538
544
547
550
542
535
535
539
539
536
537
549
557
561
567
570
558
556
568
554
553
549
546
548
551
555
555
550
548
549
555
560
560
562
565
577
579
569
570
577
576
577
564
555
556
563
572
572
562
570
558
556
567
577
578
579
569
561
557
564
568
580
577
576
578
575
583
587
582
576
565
562
561
568
580
591
592
586
587
593
605
602
589
585
582
573
572
574
582
581
566
554
557
561
561
566
561
556
566
573
567
569
570
564
560
563
565
555
551
544
549
562
571
570
557
548
530
521
526
535
531
529
533
520
510
506
496
490
495
486
481
475
474
479
487
487
487
488
481
474
467
465
473
480
481
474
460
455
467
476
480
473
467
463
467
468
457
456
457
443
421
418
418
419
424
427
426
428
428
428
432
430
428
418
415
418
422
419
418
424
427
411
408
408
410
401
406
409
406
405
401
397
391
397
406
414
416
409
414
420
406
399
398
409
413
412
401
403
403
409
425
439
429
417
416
421
419
425
416
416
426
428
415
412
412
413
414
411
413
405
404
422
427
431
440
447
447
442
445
446
449
447
440
439
429
425
424
430
436
441
450
455
451
458
464
461
461
454
435
433
436
441
451
462
476
472
461
462
468
475
468
453
443
444
456
463
471
468
464
462
462
467
473
480
476
474
468
458
459
458
462
473
479
478
479
478
478
485
483
480
489
488
487
491
497
492
479
468
464
462
472
474
472
469
464
464
466
470
469
480
485
487
477
487
498
505
503
497
491
482
480
488
496
496
489
479
478
486
491
484
489
492
491
480
482
477
481
488
480
464
466
477
471
469
477
478
468
451
458
491
513
522
522
523
518
501
486
476
471
464
460
459
464
467
468
482
485
478
486
495
500
496
497
487
484
487
496
499
494
478
469
473
474
477
493
500
494
477
479
486
496
500
507
506
504
500
498
492
485
492
500
504
502
503
496
487
478
471
484
491
492
503
501
492
496
496
491
486
493
496
497
500
500
496
504
510
512
512
509
493
487
489
488
485
489
490
491
497
491
481
469
468
475
490
498
497
488
483
483
491
503
500
482
474
477
483
492
477
473
475
484
502
506
514
503
495
495
494
490
498
500
495
494
498
497
495
498
504
508
509
500
490
483
498
509
503
481
470
473
473
480
489
487
489
480
468
464
467
482
499
510
505
498
504
511
521
513
500
491
490
492
493
491
491
493
491
499
524
523
513
513
520
518
510
496
489
484
479
481
478
482
492
504
502
498
497
491
489
499
506
504
503
508
503
505
518
521
524
524
533
551
559
571
566
561
548
534
519
512
517
531
539
537
536
536
532
526
523
508
495
493
502
505
496
490
491
504
516
521
513
498
487
484
478
479
477
473
474
473
475
487
486
472
469
465
469
475
480
473
469
460
458
458
457
459
463
468
476
475
467
474
476
478
476
462
459
458
459
460
463
474
486
485
481
465
454
451
444
448
443
444
451
459
476
479
475
470
462
461
466
470
485
484
465
452
445
439
442
451
452
459
459
467
480
475
465
470
476
481
479
474
474
470
466
469
482
491
484
473
466
463
478
480
484
480
478
483
479
453
438
437
437
433
443
445
443
462
485
495
495
500
512
528
533
545
557
577
587
611
655
675
692
712
735
752
770
787
803
822
825
826
830
830
831
832
841
853
858
842
796
744
680
604
522
450
385
319
246
197
169
164
150
133
120
104
120
144
167
167
161
172
186
217
249
269
281
301
327
351
362
374
389
400
407
403
413
423
433
440
444
449
460
472
471
470
472
466
461
480
486
483
479
479
491
506
511
514
513
510
515
513
503
497
492
500
509
514
515
509
506
517
520
520
519
510
507
515
519
528
525
527
522
520
520
509
509
522
524
521
528
534
535
523
519
520
528
530
536
519
517
522
528
534
532
520
524
529
520
510
517
523
532
521
511
521
527
542
542
534
544
550
542
510
488
487
501
508
521
522
529
539
545
548
547
547
544
532
522
527
537
543
537
533
544
540
534
542
545
548
548
548
551
545
531
519
528
543
548
555
557
545
532
533
542
547
542
540
540
546
548
548
549
555
561
570
572
562
560
570
570
562
553
560
564
547
535
540
555
555
556
560
562
565
565
568
584
588
579
571
571
577
577
567
564
559
547
544
554
564
564
560
563
567
575
585
583
573
570
578
573
555
544
533
527
539
533
533
542
555
558
555
544
536
525
515
508
505
503
505
509
507
503
509
509
504
496
496
501
505
503
493
480
472
471
479
492
491
482
483
483
481
475
474
464
458
462
461
460
452
446
445
454
459
453
451
450
446
452
461
463
465
471
467
450
426
419
429
412
398
393
391
398
397
398
407
416
421
419
412
398
381
372
381
389
398
404
413
416
420
414
414
412
401
392
390
403
398
393
399
408
415
407
406
409
410
397
382
376
382
391
401
405
406
404
411
410
411
415
419
413
397
385
398
408
404
393
382
380
391
406
407
419
433
439
433
429
433
445
441
433
440
458
458
455
454
449
453
460
444
426
429
445
449
432
430
438
451
468
468
465
483
486
468
435
418
421
432
430
446
455
459
471
475
468
457
456
460
463
455
453
461
473
469
453
453
459
459
460
458
448
446
459
460
471
475
471
468
472
477
484
477
469
460
450
448
457
466
471
466
469
473
463
470
480
483
482
480
478
476
474
475
480
483
482
480
475
475
489
477
465
469
476
484
482
473
469
471
479
482
472
465
469
475
486
495
490
482
480
490
483
455
456
465
457
452
461
464
463
469
468
465
455
454
449
454
468
478
473
472
469
471
471
472
465
460
456
460
478
482
488
476
463
461
470
478
472
466
466
455
448
453
460
474
488
488
478
477
481
477
473
483
490
488
488
498
501
510
505
479
470
470
469
474
476
479
488
490
470
462
462
469
479
483
487
476
469
477
487
475
469
477
479
480
476
485
484
489
491
482
473
464
458
452
464
466
455
455
452
447
453
464
467
473
497
502
502
502
494
494
489
476
458
450
455
469
479
485
496
497
491
489
486
477
471
470
463
457
457
464
464
467
483
493
486
502
514
506
505
493
485
494
497
507
513
503
492
470
472
484
482
483
496
491
484
481
471
479
479
484
495
499
492
481
477
480
477
477
486
496
507
501
487
486
484
483
479
474
481
483
476
480
479
478
476
478
483
486
497
491
478
484
496
494
487
480
472
479
497
503
505
493
492
491
486
484
478
476
482
487
490
490
492
499
500
505
514
525
526
511
520
536
551
564
570
558
552
543
548
551
557
555
560
549
539
528
506
493
493
492
493
496
497
501
496
498
499
494
495
503
504
498
488
483
476
481
486
471
476
488
488
506
512
489
461
434
433
444
453
460
455
462
463
467
463
458
465
464
447
449
455
457
468
469
462
454
445
436
435
438
439
449
476
494
482
465
463
467
474
467
453
464
475
478
480
477
465
456
458
462
465
478
488
485
484
484
464
456
472
478
476
464
463
468
468
465
461
454
455
448
441
461
479
475
464
459
455
465
481
495
496
482
475
471
461
466
463
468
477
484
482
473
463
450
439
428
438
464
487
491
494
498
507
524
546
559
573
583
599
611
630
671
698
728
746
763
792
820
840
847
848
831
820
808
799
792
796
821
814
775
738
685
618
541
464
392
321
246
183
137
114
107
106
96
91
86
98
122
138
160
175
199
226
254
283
303
321
335
344
360
389
405
406
415
422
423
423
427
438
448
460
459
471
469
474
477
496
518
534
550
551
543
537
525
518
515
509
499
488
492
499
494
494
504
524
536
535
526
516
525
535
529
518
508
510
523
520
504
515
524
529
542
539
543
543
530
536
531
524
520
520
528
534
536
538
545
548
549
551
552
548
551
559
563
558
547
537
527
528
536
554
550
533
529
522
524
524
531
538
548
554
555
538
521
526
539
546
548
549
555
563
569
573
570
567
555
543
547
549
535
529
525
532
538
538
542
550
560
559
554
549
545
543
535
534
538
538
540
523
527
537
537
537
538
553
565
565
549
555
565
557
552
567
575
577
586
573
561
571
574
574
563
569
574
578
584
585
580
584
578
577
576
566
552
550
561
565
558
563
577
579
579
573
569
565
551
552
569
573
576
569
562
560
564
572
575
576
578
582
570
556
528
518
530
536
536
541
542
543
546
536
530
528
525
537
543
542
547
535
515
509
500
504
511
505
504
506
497
499
499
492
487
488
506
516
510
500
493
496
489
481
477
475
465
459
467
481
492
493
481
469
443
433
435
442
437
435
432
433
429
427
424
423
414
406
413
423
431
442
430
424
438
445
425
400
389
396
409
405
397
388
391
399
404
409
415
415
405
401
387
385
397
405
395
393
402
417
419
402
391
387
395
408
399
391
385
382
405
405
400
409
417
416
418
416
417
413
410
413
417
425
426
425
419
410
410
422
435
435
429
441
435
432
430
429
443
458
451
447
443
446
453
438
422
420
422
424
444
466
460
450
452
447
442
442
445
454
453
447
452
458
466
476
483
495
494
487
474
465
480
472
465
458
457
463
475
471
459
456
448
445
445
450
452
459
463
465
464
470
475
474
482
482
481
497
502
495
482
472
473
478
484
487
495
497
498
493
488
476
470
456
457
468
473
464
469
479
488
484
484
483
486
486
475
483
483
472
473
482
494
497
499
484
475
477
484
479
480
479
479
459
447
451
462
472
476
472
466
465
468
466
472
480
486
489
482
478
481
484
478
478
484
476
470
458
452
454
450
451
460
472
476
488
500
505
500
490
477
467
453
448
459
466
462
463
473
484
485
485
483
483
477
474
475
476
476
484
487
482
476
472
474
471
479
485
489
501
507
498
488
488
486
475
474
475
483
496
489
484
486
489
482
477
479
475
480
485
497
498
491
491
497
500
499
496
488
477
467
474
480
477
476
488
500
489
479
478
478
475
478
481
496
502
490
484
486
488
477
471
486
495
498
497
499
492
484
481
494
497
491
482
486
504
509
497
482
473
467
465
465
475
488
506
521
530
526
512
506
485
480
496
496
486
490
500
504
506
508
507
499
495
500
494
482
484
488
490
486
491
494
503
510
512
510
523
529
524
522
515
524
529
531
533
533
528
526
527
529
545
554
552
550
557
546
537
531
528
539
541
534
524
517
510
503
507
505
510
506
505
509
510
503
494
483
479
483
484
481
487
492
489
482
480
462
457
457
453
457
468
480
484
482
472
464
467
476
484
485
474
462
456
451
444
448
466
473
477
479
483
487
488
490
484
472
477
470
467
465
464
468
470
469
469
470
469
465
460
454
462
463
463
463
461
470
480
484
477
463
457
455
464
461
464
471
468
464
462
473
485
492
480
470
457
464
469
484
490
490
489
480
469
475
478
474
478
481
478
482
495
497
483
467
455
458
474
485
491
483
479
488
495
501
512
518
525
538
555
566
575
595
627
655
692
719
743
770
796
825
833
835
831
821
809
811
813
806
812
821
814
777
716
667
630
571
502
430
348
278
221
177
150
141
143
136
125
122
115
106
119
154
184
203
224
245
271
292
311
339
369
392
407
418
421
419
419
425
428
432
440
454
468
475
483
495
505
505
502
511
516
513
505
508
514
521
522
518
507
505
517
519
535
539
541
537
530
526
519
520
515
527
525
520
525
525
530
531
539
539
539
542
549
552
556
567
579
585
575
568
560
540
525
523
525
526
523
526
525
520
534
542
546
541
544
548
547
541
534
529
527
523
525
524
526
533
534
536
543
547
552
554
553
552
554
564
567
559
552
552
561
567
547
526
535
552
549
546
552
556
551
545
539
529
527
527
524
527
541
558
563
568
565
558
552
559
563
573
578
563
547
547
546
539
547
553
555
559
560
558
558
559
569
574
573
580
579
570
577
578
569
560
554
556
562
584
602
588
571
563
566
574
575
574
568
558
565
575
569
565
567
574
573
573
573
580
584
593
594
589
583
570
553
544
543
539
549
559
572
576
574
571
561
561
569
576
584
581
561
537
528
522
526
532
548
558
558
549
543
533
526
521
523
526
524
516
512
513
512
502
510
510
504
504
503
499
484
478
479
474
470
474
477
481
484
481
482
478
473
470
467
469
459
448
431
433
433
429
426
427
427
428
442
455
463
462
453
446
438
421
402
404
409
419
432
434
427
409
392
385
390
394
397
404
404
407
415
429
430
427
422
420
420
415
395
377
366
367
373
385
395
398
403
406
414
416
409
403
405
411
420
431
430
424
422
414
409
402
404
409
419
422
414
415
417
418
415
416
410
405
414
420
427
429
430
433
436
452
456
464
461
444
429
419
411
412
428
438
438
436
433
445
448
448
444
454
465
466
457
462
461
460
454
463
465
466
457
444
445
453
464
469
465
469
477
480
484
496
496
497
487
482
470
467
477
487
487
492
487
461
442
453
465
467
471
470
458
456
465
476
474
483
489
500
499
495
496
490
482
472
471
473
473
471
471
481
490
503
500
498
487
478
483
499
497
486
491
489
482
474
474
472
469
485
480
466
470
478
475
473
476
479
489
486
489
498
507
512
505
496
491
484
469
464
468
469
468
472
480
479
483
481
484
485
503
506
497
479
476
469
465
467
478
484
482
481
475
467
470
477
490
498
500
499
501
498
497
498
496
492
488
483
480
476
462
461
473
489
495
500
489
480
473
473
474
470
473
471
470
470
469
478
481
484
491
486
485
487
479
476
477
475
477
479
485
498
510
497
491
494
495
503
509
500
504
506
479
473
470
467
467
469
468
467
473
474
477
484
490
494
492
489
491
493
488
491
483
482
489
499
491
483
488
491
484
483
487
493
500
510
513
509
512
511
511
520
525
509
493
497
495
480
476
479
480
484
484
483
475
466
467
469
472
469
476
484
486
488
496
491
478
476
485
495
504
508
498
492
489
489
493
493
491
497
501
494
489
489
495
513
506
512
515
507
498
491
482
477
487
496
506
509
513
517
514
499
491
488
494
498
506
515
511
506
510
517
522
535
538
544
557
550
537
530
534
547
559
564
559
547
520
509
517
532
546
550
541
532
518
509
503
500
499
498
506
513
512
506
500
506
499
476
464
466
468
477
466
460
462
471
490
496
493
491
481
484
488
476
471
471
479
477
471
464
467
476
487
485
487
481
471
473
483
486
473
462
453
452
454
454
455
456
462
464
462
470
472
475
476
471
467
467
462
458
449
457
464
459
463
465
465
469
476
481
481
479
482
490
498
491
484
479
490
483
471
470
471
469
464
460
457
459
461
469
483
485
492
501
494
488
478
471
464
468
476
489
497
500
495
486
473
466
468
477
476
473
470
467
478
489
504
510
527
524
526
545
567
584
593
608
640
670
685
709
721
736
758
780
794
810
823
828
826
831
831
826
826
835
841
827
780
734
676
589
520
467
407
339
273
222
180
161
154
143
122
103
113
134
150
163
181
192
210
243
280
301
319
347
370
386
417
425
419
420
421
415
411
423
428
440
458
462
462
461
467
468
466
472
475
492
513
511
498
500
497
501
512
525
527
528
523
517
514
519
516
511
507
508
508
512
519
517
511
512
514
514
524
528
528
530
526
521
515
515
514
523
527
529
523
523
529
535
536
532
539
543
540
544
554
564
561
537
520
519
521
512
508
514
514
514
520
519
518
527
538
544
542
539
535
526
532
525
528
536
531
527
531
537
539
544
542
538
538
540
540
543
542
538
541
535
538
541
543
544
543
551
543
538
549
553
560
566
560
557
560
563
555
554
558
565
562
549
549
549
548
548
550
556
562
564
560
555
548
552
555
562
563
561
565
573
578
571
564
560
545
537
543
550
555
562
568
568
566
560
550
548
557
565
568
569
573
571
568
572
580
585
589
591
586
588
579
581
571
552
553
543
538
554
557
549
542
547
561
568
572
569
561
553
544
532
522
529
542
543
541
523
517
513
514
511
518
528
524
534
539
531
524
514
506
497
490
487
492
491
491
493
490
487
482
473
469
459
463
464
467
467
466
476
487
496
493
495
498
489
447
415
416
419
418
423
427
419
417
423
430
434
436
449
442
428
423
415
417
416
417
412
413
412
402
397
395
393
389
376
377
382
398
403
408
411
427
428
408
401
402
402
403
403
400
401
397
404
400
401
402
410
413
413
402
387
387
391
396
386
385
381
386
388
387
391
401
411
405
407
410
418
426
423
424
421
424
431
432
433
437
442
436
425
427
434
441
452
441
431
421
417
419
421
416
421
424
431
434
436
437
447
464
480
491
480
463
454
458
448
444
451
454
451
455
462
451
439
436
426
426
439
442
446
446
452
459
446
442
446
453
471
485
488
483
476
467
466
472
472
476
480
484
492
489
479
470
469
468
469
469
478
488
487
482
483
490
489
496
491
471
459
451
460
481
486
482
487
499
499
493
501
502
502
487
472
476
475
466
453
455
464
479
491
490
481
485
491
484
474
470
480
482
484
495
488
469
472
485
494
499
490
471
468
476
482
492
492
496
495
500
499
501
492
479
473
467
476
482
484
478
473
469
463
472
474
470
460
458
468
484
494
491
486
482
477
490
503
499
506
518
514
502
476
473
477
481
490
498
503
513
512
508
503
491
480
477
485
489
486
493
495
501
495
487
487
479
471
476
480
490
502
505
509
496
484
477
483
478
473
470
478
491
496
489
477
480
486
496
505
496
487
490
486
481
471
472
469
462
465
471
483
486
477
468
477
498
507
514
505
503
500
495
488
488
473
473
481
489
491
492
483
478
472
480
480
483
488
504
511
505
508
510
513
492
471
472
481
489
490
493
486
479
489
493
489
483
478
470
466
473
485
498
484
483
491
482
483
501
508
511
517
516
514
516
515
506
499
502
495
485
474
463
459
462
477
480
491
501
507
515
523
524
528
521
510
503
493
498
496
494
490
489
484
475
480
496
507
508
491
483
487
499
497
494
496
506
514
523
520
515
524
534
526
524
521
506
511
525
534
530
532
538
545
549
550
542
536
539
538
540
540
533
533
530
511
505
502
510
509
507
500
495
492
483
466
465
476
472
471
479
486
487
474
461
460
471
477
471
470
473
478
470
474
489
494
495
496
487
483
477
475
458
434
441
459
469
456
454
463
471
474
470
472
465
458
461
467
466
468
466
466
468
468
472
487
490
476
472
462
452
455
461
476
486
487
487
485
466
447
448
461
480
482
474
483
492
491
496
508
508
502
496
489
488
474
451
448
455
460
465
466
466
461
456
460
463
474
477
473
474
488
485
477
473
473
473
484
491
480
481
485
489
498
506
518
522
527
529
533
543
561
585
608
639
670
684
697
718
752
793
819
832
833
842
849
847
859
865
858
851
857
854
844
821
795
733
633
554
472
399
336
258
181
140
116
109
96
99
107
126
145
160
174
184
202
221
240
268
292
303
315
329
351
376
380
386
395
408
425
430
424
438
448
456
454
458
467
472
471
482
486
490
494
495
496
504
508
510
503
510
527
533
536
522
506
498
493
494
504
522
530
535
540
541
536
531
536
534
537
543
543
539
529
515
498
494
502
513
518
529
522
510
529
549
541
520
520
531
534
530
538
544
539
526
522
525
527
526
535
543
554
541
542
548
556
547
542
533
529
521
496
480
495
519
533
536
543
541
548
547
536
547
561
565
568
559
550
544
546
544
536
539
550
554
546
537
532
542
548
556
563
559
543
542
544
536
535
535
537
538
546
558
567
556
552
552
558
561
565
563
560
557
559
563
551
563
568
564
562
554
558
564
570
574
572
565
564
551
550
556
558
560
560
563
570
577
572
571
586
591
589
582
585
592
600
591
590
597
581
563
554
547
541
555
552
554
565
572
573
589
587
580
575
570
569
567
565
562
558
560
559
562
551
534
521
524
542
538
538
532
533
534
536
530
524
517
526
536
536
539
529
519
510
501
502
501
491
482
473
475
473
470
465
475
472
462
466
467
463
459
466
478
481
481
480
479
474
468
460
454
454
446
442
431
424
422
422
436
441
430
425
424
416
406
409
411
412
411
407
413
416
401
395
405
413
406
405
400
397
389
386
397
398
398
392
389
392
396
413
419
411
400
399
391
380
363
372
389
407
408
409
401
406
404
401
398
395
384
384
401
417
424
425
419
425
420
403
393
387
390
399
415
434
445
446
432
422
431
441
437
445
445
438
432
430
431
434
436
446
450
452
450
440
432
421
416
427
431
432
444
444
432
429
436
444
446
447
451
447
448
450
455
458
466
470
475
478
472
476
483
483
476
466
467
461
438
436
427
433
446
465
475
490
497
487
477
468
472
474
477
482
477
474
475
483
480
473
457
460
460
458
452
450
467
476
479
485
490
499
495
496
486
479
470
460
456
466
469
464
461
463
473
477
482
491
494
490
483
476
462
452
447
441
439
454
470
486
502
499
486
478
477
476
480
487
479
476
475
474
472
462
457
451
457
469
480
493
494
490
481
482
488
476
478
479
488
484
489
490
476
466
472
472
474
475
482
487
468
456
463
465
466
471
486
496
495
501
510
507
493
488
479
463
453
457
464
467
476
478
474
466
465
470
482
488
490
500
509
508
507
502
493
490
484
477
479
483
482
477
480
483
482
479
485
500
498
491
494
499
506
503
486
478
472
472
480
491
502
505
507
513
512
500
493
474
448
451
470
484
485
480
484
492
496
489
476
475
488
496
508
517
504
492
486
479
477
484
495
496
495
496
495
497
498
499
490
480
471
473
484
503
510
504
501
499
509
528
534
517
500
501
500
505
515
520
508
489
504
507
494
498
499
500
508
504
502
502
505
510
497
490
491
498
512
521
522
525
517
528
538
542
546
549
550
539
523
521
522
520
523
539
553
564
556
541
531
521
532
545
542
539
542
539
533
529
522
514
517
517
509
498
508
511
499
499
491
507
522
506
496
494
494
490
478
465
459
455
464
467
464
469
465
468
479
480
476
476
473
465
463
467
476
477
471
478
482
481
481
477
478
476
464
458
459
463
458
456
460
467
480
484
491
492
479
471
467
463
466
461
463
470
475
480
481
484
471
461
459
460
462
468
467
468
475
473
466
470
479
479
471
468
466
470
481
490
491
483
484
486
489
484
475
475
472
474
484
494
500
500
490
482
468
464
475
492
504
504
488
479
481
473
475
491
510
515
514
518
528
542
562
586
610
634
667
697
731
758
790
808
832
835
824
815
816
816
814
802
791
780
770
778
777
752
694
624
555
480
397
320
244
171
110
70
63
72
81
102
108
96
103
113
134
151
174
205
234
257
276
296
316
347
380
398
408
405
415
422
435
448
459
465
475
481
482
490
491
495
502
511
520
519
498
492
493
492
502
506
516
525
536
537
537
539
533
528
529
524
521
531
534
538
538
532
531
532
536
534
530
531
541
544
537
527
517
508
521
525
529
541
552
561
555
552
556
552
551
551
563
570
562
551
546
525
509
509
506
528
543
544
539
535
523
524
521
516
520
531
542
553
560
566
562
558
550
542
542
541
540
540
539
539
543
549
559
560
553
555
554
543
540
545
551
553
543
537
539
549
555
561
548
548
542
528
528
525
540
543
554
562
564
557
553
556
560
559
560
562
545
525
527
540
549
559
569
575
580
585
582
581
589
579
572
564
568
576
572
572
574
571
570
571
572
583
588
584
567
568
575
570
572
573
576
569
574
570
562
558
561
560
560
567
573
587
592
586
580
566
566
575
580
567
566
567
557
547
562
571
567
563
553
549
545
524
531
544
522
495
497
504
518
521
524
522
516
515
510
515
518
523
527
523
519
515
512
510
504
489
478
484
485
479
473
482
483
472
461
462
470
475
474
469
468
475
479
477
470
471
472
455
441
442
446
444
438
428
417
417
419
417
412
408
418
420
418
418
410
417
417
410
408
410
409
410
402
391
390
380
385
403
398
398
403
402
387
386
395
393
385
380
386
394
410
437
440
423
415
394
387
397
406
403
397
388
382
389
401
414
414
417
424
427
429
436
423
409
412
422
427
429
431
437
433
429
424
430
438
436
440
438
444
460
467
447
440
442
444
451
447
444
451
449
445
454
457
458
462
461
459
454
463
471
481
484
477
464
458
462
465
457
455
459
466
471
476
482
474
465
474
481
483
489
478
474
488
475
454
454
461
475
498
502
494
485
480
487
487
480
471
470
467
463
466
465
468
477
486
481
475
478
482
498
511
500
486
489
488
492
502
502
500
500
504
498
503
502
488
471
469
473
477
484
486
486
488
480
474
474
481
485
473
466
467
477
483
486
491
492
494
489
480
482
475
473
483
491
486
476
461
460
461
461
460
462
467
484
492
491
484
488
501
506
505
513
517
514
505
493
496
480
459
457
463
474
470
463
466
471
479
494
506
507
510
521
510
485
460
452
459
470
485
482
477
472
468
470
466
476
479
489
495
502
502
507
512
509
517
523
510
499
484
475
478
483
491
491
492
494
487
470
466
469
472
480
471
475
475
470
470
469
467
474
484
481
476
478
486
488
491
495
502
511
505
505
514
517
520
513
499
490
481
481
481
489
493
484
481
483
488
479
476
484
493
503
521
529
521
512
498
476
458
456
468
484
491
505
507
491
478
482
494
500
496
494
498
500
505
510
512
505
494
487
484
491
495
492
490
485
487
499
503
503
501
504
504
504
494
491
497
512
516
520
528
529
526
526
537
546
548
549
550
549
552
556
557
549
544
542
544
552
549
541
535
529
529
529
521
508
506
514
519
516
518
521
520
521
508
503
502
503
493
486
490
484
484
477
474
475
477
469
458
463
469
466
455
463
462
463
472
482
486
483
480
478
475
476
476
477
474
465
462
466
472
468
463
465
468
468
469
494
494
472
453
443
446
459
462
467
478
482
473
474
474
477
474
469
455
450
461
481
488
476
465
466
474
476
480
480
485
482
482
486
488
481
474
466
471
473
477
474
467
463
456
450
458
472
481
478
482
489
501
497
487
478
469
470
474
471
469
470
465
465
465
465
468
469
479
495
511
530
525
522
525
526
541
566
595
617
638
662
689
716
742
773
800
820
824
830
837
835
854
859
844
824
809
810
806
791
764
732
676
590
515
453
383
313
245
193
150
126
120
122
125
135
161
173
171
164
184
212
231
254
282
304
316
323
342
368
383
392
396
396
394
402
416
424
423
430
448
467
479
485
473
469
472
484
491
498
504
503
493
490
497
507
506
504
507
517
528
538
539
535
530
524
522
529
523
527
525
514
498
499
504
510
516
512
515
523
530
524
513
509
511
514
512
511
512
513
510
516
537
539
539
535
528
531
534
542
544
552
548
537
527
528
538
538
529
512
515
527
538
542
537
528
527
529
536
530
517
509
510
523
532
542
552
557
556
560
558
549
556
539
533
541
542
532
527
517
523
530
528
532
536
542
542
540
539
533
530
537
539
534
544
561
569
573
574
575
566
553
547
544
550
556
554
551
549
552
560
564
562
560
568
581
588
578
565
551
551
553
558
564
562
557
561
563
565
565
562
568
578
584
586
583
588
595
593
588
580
569
564
567
567
566
572
572
574
576
571
561
560
568
574
572
576
573
569
578
573
561
557
563
578
592
585
575
566
554
544
540
533
526
535
548
557
556
551
540
537
532
525
513
505
521
522
515
500
497
499
503
496
498
492
492
500
509
520
513
503
480
461
453
455
461
461
455
454
456
454
470
474
466
460
459
461
449
434
419
414
422
425
423
419
420
421
419
416
414
418
422
426
429
419
412
413
411
409
404
407
418
426
425
420
414
422
411
408
406
410
413
417
416
419
425
423
419
407
390
392
391
383
368
374
395
406
395
385
379
359
359
370
390
409
415
421
426
424
418
417
420
421
412
393
392
402
408
407
406
410
429
439
437
434
419
411
415
422
436
440
435
441
435
435
440
448
452
454
441
431
435
444
435
423
421
424
439
443
441
449
457
460
449
443
444
444
456
461
449
446
435
434
436
434
447
452
456
462
470
491
497
494
477
456
446
447
458
466
465
464
462
465
467
467
473
479
481
487
480
473
470
480
481
482
483
483
475
476
481
485
483
486
478
478
482
472
468
468
462
464
463
464
464
457
461
466
474
489
493
496
497
487
469
465
465
470
471
468
473
483
491
495
493
489
481
472
476
485
492
498
497
488
482
480
466
457
468
467
472
478
486
480
480
493
500
502
505
502
489
479
464
465
469
469
471
473
481
481
473
480
495
493
478
463
459
458
458
456
447
454
480
496
497
499
491
480
480
486
500
498
498
494
491
476
465
459
461
462
458
461
469
479
491
489
488
483
484
486
479
470
466
463
462
465
475
484
492
500
504
498
492
492
498
497
502
511
514
502
493
485
481
489
506
505
508
507
492
488
485
493
490
493
492
494
502
498
494
496
499
506
512
485
463
464
464
461
470
469
486
486
479
485
486
487
473
470
472
473
480
483
480
475
471
472
476
485
486
482
479
478
481
477
479
484
487
493
493
492
501
508
506
499
485
480
482
484
491
497
498
504
509
512
518
521
508
484
473
480
481
488
487
488
483
482
498
512
504
497
485
480
486
495
507
520
525
527
522
523
531
532
525
526
532
534
538
535
539
552
553
545
544
547
560
575
564
551
535
524
532
533
528
529
521
508
494
493
511
522
530
533
523
508
498
492
486
481
479
475
473
473
475
465
458
460
466
463
458
455
458
467
480
484
489
486
481
485
489
477
464
458
466
474
481
479
472
471
472
467
463
465
468
481
477
474
483
491
489
475
467
462
457
460
470
476
473
472
467
461
469
480
480
475
468
468
468
473
476
474
468
466
466
457
457
464
472
483
490
486
485
481
477
478
477
479
488
492
487
467
455
456
460
466
468
470
467
467
479
480
479
485
495
491
477
467
467
468
458
454
456
455
456
466
473
479
489
498
505
509
520
531
545
552
563
576
598
630
653
674
703
736
768
795
819
835
836
847
860
862
860
855
846
846
859
863
850
819
785
738
660
579
498
427
357
287
233
185
155
136
124
115
119
130
142
157
165
179
200
226
251
269
291
314
341
363
373
380
393
399
400
400
396
397
411
420
425
429
451
480
495
501
489
480
483
487
494
507
501
493
501
515
521
520
525
525
515
503
503
506
510
511
498
501
512
519
519
529
537
537
542
545
535
536
536
533
526
521
525
521
510
505
514
523
530
530
520
516
520
526
535
537
552
557
548
541
540
543
554
554
546
539
540
540
534
530
525
526
524
530
531
523
523
527
527
532
531
535
542
542
541
548
563
570
561
553
550
536
514
508
524
535
535
538
539
527
523
545
559
556
555
553
557
556
542
528
530
546
559
565
564
564
551
532
532
532
533
537
549
556
561
554
549
545
555
568
566
563
550
553
568
565
566
565
565
569
569
565
565
565
569
575
559
551
549
539
539
544
552
565
581
571
576
588
591
582
589
593
586
577
568
580
581
580
583
585
578
578
589
599
591
580
569
568
567
559
551
549
550
549
557
549
544
551
557
562
563
553
536
534
541
546
539
530
537
545
548
545
538
530
533
539
542
536
534
533
523
520
518
506
491
484
480
468
467
468
480
492
503
508
497
483
478
479
478
472
458
450
446
443
443
452
447
442
433
422
422
430
434
431
431
435
441
444
428
417
422
426
427
435
432
412
404
391
398
403
392
385
384
387
393
394
396
399
409
409
402
397
400
398
399
401
400
396
386
380
384
378
363
371
383
391
397
408
413
409
412
411
398
391
388
392
402
410
407
404
393
390
396
404
407
403
394
398
415
416
421
431
445
450
454
451
446
437
431
421
415
413
427
428
425
430
440
440
435
426
423
430
446
455
452
441
436
442
435
424
420
427
440
442
448
455
456
454
452
459
471
459
455
457
451
452
452
447
447
449
461
461
468
469
469
463
451
451
457
463
461
468
473
466
457
455
465
475
475
475
480
487
486
476
468
466
463
458
457
464
474
480
480
475
478
484
489
500
511
505
487
482
483
478
484
490
497
504
495
493
506
511
491
465
450
451
447
454
462
468
464
458
466
477
468
468
481
480
481
484
489
497
505
503
499
498
484
473
473
474
474
482
493
498
494
488
485
483
471
461
469
478
488
497
486
466
459
464
471
480
483
485
483
481
474
468
474
473
468
474
496
502
500
502
502
496
483
472
467
463
461
463
460
467
475
482
489
496
503
497
485
486
489
491
494
490
489
493
481
469
468
469
469
478
478
472
462
467
477
478
483
484
493
506
508
507
494
484
486
489
491
492
487
475
459
453
466
482
496
488
482
491
501
497
494
485
489
482
467
465
461
463
472
483
482
482
481
480
491
499
489
484
479
471
474
481
494
504
499
492
492
487
484
486
486
492
494
502
508
496
486
473
470
468
463
476
486
490
486
483
492
489
484
481
476
473
476
480
486
501
499
500
496
490
492
496
496
493
498
512
514
511
509
508
505
500
493
490
486
481
485
486
480
482
487
496
493
479
470
477
490
492
483
485
484
478
477
483
489
495
504
505
511
511
519
534
535
541
533
530
542
559
571
565
552
547
540
529
529
527
526
533
545
544
539
539
525
518
509
497
497
491
478
473
469
478
485
488
486
486
502
498
497
508
521
528
522
512
497
487
474
473
482
490
482
468
460
460
455
450
461
476
478
482
483
464
459
461
472
469
476
480
485
487
480
469
463
473
480
483
475
476
469
462
472
474
472
472
470
468
471
482
486
477
469
465
461
457
459
464
463
466
463
444
445
459
448
436
439
453
451
460
462
460
458
459
461
466
474
484
496
499
490
488
483
472
472
473
472
477
479
484
486
480
472
467
478
486
485
488
496
498
484
472
465
472
472
471
467
475
482
483
499
514
525
531
541
553
572
591
611
629
655
678
703
730
759
786
812
835
844
843
840
839
853
860
851
837
846
862
840
795
759
713
637
553
471
382
309
231
162
119
96
92
97
108
107
111
120
135
159
174
192
206
226
230
241
271
304
328
353
360
369
385
388
402
415
432
450
458
478
478
477
483
484
485
481
478
483
495
503
503
504
507
505
494
493
491
498
509
511
522
529
533
534
538
547
548
540
543
545
540
535
526
516
517
529
536
545
541
535
520
498
491
498
504
506
508
510
515
516
524
531
529
534
540
545
549
550
554
556
547
540
537
538
539
530
528
538
543
544
546
552
560
557
552
548
542
535
540
537
531
530
536
529
521
523
538
556
561
559
550
531
523
525
527
528
541
543
538
548
554
549
541
533
539
544
541
530
533
541
546
549
539
532
527
536
533
528
535
542
550
569
576
579
583
579
574
563
554
551
547
546
534
533
547
556
564
566
563
560
575
578
577
583
603
607
597
578
575
567
560
571
584
592
603
587
575
581
581
584
585
569
561
560
558
555
561
566
566
565
562
562
561
563
566
581
588
590
579
562
552
547
549
560
560
551
557
567
571
563
543
533
541
546
557
553
544
543
537
528
526
535
536
539
544
539
530
519
507
500
505
506
505
514
508
508
517
521
496
493
492
486
480
476
462
452
450
446
449
454
463
455
458
469
468
464
451
431
427
431
437
445
446
438
434
430
416
409
422
424
427
427
424
413
405
403
403
408
404
401
398
396
400
400
408
406
402
408
408
404
395
388
384
392
395
401
398
389
387
395
392
379
385
386
384
396
403
406
415
432
418
394
380
380
404
402
402
406
407
404
409
422
423
421
430
433
431
426
425
424
426
429
428
432
439
443
444
438
433
420
404
406
422
432
443
451
457
463
462
456
445
445
445
441
434
429
431
439
450
451
451
452
449
457
466
476
477
472
467
466
469
455
446
455
469
480
476
480
488
477
449
444
456
461
461
463
463
470
478
481
475
468
470
471
478
478
469
464
462
467
478
479
476
480
484
496
501
504
500
498
478
471
477
482
481
480
475
476
476
473
477
471
474
480
479
475
472
475
485
495
490
466
454
459
479
486
478
488
500
505
497
483
479
473
471
476
483
488
494
492
483
476
477
474
476
482
484
492
491
486
486
481
468
462
466
473
480
478
470
460
464
477
490
489
480
469
473
468
470
474
467
466
470
476
485
487
481
480
480
487
486
487
494
490
485
471
464
450
459
457
462
470
480
482
482
480
483
495
497
495
494
491
486
488
498
495
487
486
486
493
486
491
499
490
481
479
476
473
474
477
471
461
459
471
483
491
494
496
492
485
482
488
493
502
503
499
494
485
479
480
488
494
494
498
484
468
465
466
469
466
478
486
493
493
498
500
505
498
493
495
498
492
490
479
476
485
489
486
479
469
460
461
467
483
490
494
494
508
511
493
480
478
481
481
479
493
509
507
502
492
493
504
500
491
491
499
510
508
499
497
503
512
510
509
499
485
489
492
491
508
515
513
505
501
497
502
509
521
529
531
533
530
529
514
516
523
529
537
534
531
532
541
545
547
544
545
535
522
520
526
520
514
498
494
493
490
482
471
473
476
484
488
481
471
465
460
467
478
494
496
490
482
471
463
454
452
462
478
476
474
498
490
470
462
456
462
472
484
478
470
461
465
460
448
456
466
463
464
468
479
481
481
476
469
462
457
468
482
490
482
476
471
462
467
453
451
453
469
468
466
482
467
458
463
471
489
498
499
495
484
466
457
455
462
460
460
457
444
444
453
462
448
442
457
455
465
491
506
502
499
498
501
475
462
460
464
469
461
459
464
471
481
488
496
497
489
476
476
477
475
482
506
534
547
550
551
573
587
608
633
644
663
694
725
746
765
779
811
831
823
816
817
817
813
809
810
807
804
800
779
743
696
627
560
486
412
341
275
208
147
108
96
97
100
113
121
131
152
170
193
208
211
227
252
260
267
287
306
333
367
398
408
411
419
432
437
445
451
452
456
455
464
479
492
502
496
493
496
511
516
518
515
502
507
516
518
519
517
513
512
517
518
522
532
538
543
541
540
541
561
556
555
562
560
567
562
548
538
535
532
538
548
544
541
536
532
537
541
549
549
549
554
565
562
544
532
514
494
501
521
532
534
538
543
535
530
547
557
556
550
553
553
547
548
546
540
531
524
523
532
546
550
541
549
563
569
564
561
557
559
560
555
555
544
543
545
538
544
549
554
564
563
563
563
559
557
562
568
570
567
557
552
549
543
543
548
556
561
566
567
562
557
543
545
553
568
577
578
577
564
565
572
579
574
561
567
583
582
576
571
566
557
563
563
567
582
592
601
598
592
591
584
580
583
581
581
571
571
584
591
581
565
555
552
564
570
573
577
581
589
595
592
585
573
568
561
561
563
572
579
585
584
578
570
566
559
559
561
567
563
553
549
557
559
550
541
539
534
534
534
533
528
521
522
527
532
520
520
516
503
500
514
518
499
485
481
488
480
473
479
483
481
485
490
497
489
477
473
463
454
445
442
443
438
447
459
457
453
444
433
413
402
390
391
408
416
416
424
432
445
444
427
410
396
382
391
405
417
429
427
410
403
413
411
408
416
403
389
386
397
406
397
379
384
397
402
408
406
405
395
392
387
388
391
394
400
406
407
401
398
401
415
418
408
410
418
417
404
396
406
414
422
432
434
430
423
414
407
398
397
414
411
407
418
436
445
444
435
430
424
426
431
437
447
447
442
443
446
452
446
437
432
431
432
427
423
425
434
446
452
462
470
470
463
457
462
462
463
462
475
467
457
450
451
453
455
463
470
475
474
471
469
459
460
464
464
476
484
481
476
471
462
461
474
482
478
474
476
476
479
476
476
480
481
482
479
478
478
485
492
490
485
482
482
475
471
470
478
486
482
474
473
484
497
501
499
494
483
477
471
468
473
478
478
468
466
460
457
460
457
468
478
486
485
477
480
484
487
488
484
486
486
489
488
478
463
453
455
469
479
487
485
481
483
480
476
470
461
458
467
478
482
485
493
493
488
489
488
483
485
482
474
469
456
462
491
503
495
495
498
502
496
486
482
481
476
477
479
467
461
466
473
481
485
483
485
494
497
508
495
487
489
491
490
482
470
466
454
444
449
454
462
473
476
477
483
482
471
467
471
472
480
481
481
483
481
480
491
504
507
495
489
480
477
483
478
476
486
490
492
490
487
488
492
486
482
480
479
478
474
466
470
485
494
495
499
496
489
478
480
486
491
487
482
477
478
479
478
489
493
496
494
482
479
481
483
485
476
473
476
483
482
486
486
479
468
464
461
459
461
469
478
483
487
483
483
469
463
464
465
465
471
478
488
490
496
487
491
508
522
533
531
527
514
511
510
511
521
533
543
538
526
523
522
508
492
483
475
475
478
476
478
481
491
503
516
524
506
492
491
489
496
507
492
491
497
501
517
532
544
544
543
538
531
533
537
545
552
553
547
554
559
555
541
539
534
522
523
518
514
519
524
526
529
532
534
536
525
522
520
504
494
499
491
480
465
448
442
443
453
466
477
479
482
474
471
463
467
467
464
476
477
484
490
494
496
482
471
472
475
478
466
466
466
471
478
471
462
457
461
467
464
469
472
473
476
470
477
481
487
489
487
488
488
489
490
490
486
489
488
478
467
468
476
469
459
463
460
466
469
471
468
478
484
475
475
473
478
472
471
483
477
473
479
483
490
498
501
499
497
487
485
487
483
477
479
474
475
478
478
476
480
486
484
479
479
491
485
481
481
491
505
511
495
487
492
504
512
515
522
537
553
573
591
622
640
668
686
693
726
751
782
805
822
830
837
841
839
836
844
852
854
861
854
829
794
764
726
658
601
544
479
418
347
282
223
179
159
136
123
130
146
160
175
189
206
218
230
237
262
296
320
340
357
372
377
386
405
411
410
419
430
439
455
468
472
467
468
476
471
469
483
496
507
507
504
509
512
512
509
509
506
505
519
530
533
549
557
552
541
518
490
487
507
516
513
510
527
543
544
540
539
544
548
538
524
513
508
502
502
509
506
506
510
511
514
516
520
519
522
527
526
536
548
558
561
565
561
536
518
516
528
531
529
523
524
530
537
542
548
549
540
533
531
531
530
527
530
527
523
517
523
520
516
528
544
551
554
548
546
541
534
543
558
559
563
568
560
567
570
561
556
555
545
541
541
540
543
542
535
534
538
540
545
552
552
560
556
558
560
563
559
548
536
523
525
530
533
542
554
567
581
583
586
579
562
547
553
568
568
561
558
564
570
574
576
585
583
583
590
578
577
588
600
607
604
592
596
597
589
605
615
603
590
577
567
569
562
559
562
566
570
573
582
581
563
542
529
527
539
554
559
545
536
554
563
559
559
562
560
544
537
534
541
543
546
543
538
529
521
519
517
514
512
504
503
506
515
517
509
511
515
506
493
487
481
480
472
458
460
472
485
495
498
484
467
455
458
465
459
445
441
443
440
434
429
438
444
441
435
426
419
419
427
422
420
413
407
404
411
417
416
424
428
422
419
410
396
397
396
396
401
393
385
380
382
381
383
392
398
401
409
418
422
418
413
416
421
422
417
414
416
396
377
366
358
350
363
377
387
390
397
408
407
395
400
397
399
401
389
395
409
414
418
435
440
436
437
438
433
432
431
420
411
407
398
400
406
421
439
452
452
443
445
440
424
422
432
436
437
439
443
446
446
446
448
448
446
446
451
455
462
466
469
454
437
424
420
421
418
423
437
457
481
494
485
481
480
480
473
459
448
455
462
469
483
487
479
479
467
453
458
458
460
465
468
480
468
457
462
471
474
474
474
478
477
469
465
468
471
478
480
482
489
492
485
489
490
493
498
503
503
504
499
497
483
478
472
478
486
488
493
489
485
489
490
474
472
477
486
488
486
484
483
476
474
482
487
479
480
480
473
477
479
493
484
472
477
482
481
477
478
481
480
480
479
488
498
492
487
486
497
496
486
496
499
492
492
488
481
484
495
496
497
490
472
467
477
493
506
497
501
488
484
480
471
470
471
476
490
502
502
498
492
483
481
488
491
487
481
496
514
518
509
495
489
478
483
489
474
461
473
483
481
478
482
489
492
496
495
493
491
483
478
479
492
494
493
490
478
480
482
480
479
478
463
461
469
476
478
476
475
479
479
477
476
486
495
503
505
514
511
500
485
484
487
492
487
483
482
471
465
465
478
491
500
505
508
506
505
510
504
506
512
512
514
513
502
490
472
448
439
446
462
471
477
480
477
486
492
493
497
497
492
478
480
490
498
499
497
497
509
511
500
490
489
487
487
478
473
488
487
483
486
478
473
470
464
468
483
491
505
512
508
497
495
496
497
484
482
477
481
497
507
506
504
504
498
500
512
515
505
487
482
491
500
497
496
500
503
507
505
506
508
515
516
518
515
504
496
495
494
490
494
489
493
493
501
509
511
502
497
505
512
529
540
532
535
540
536
529
530
540
545
544
536
537
540
543
548
553
558
560
552
533
532
538
540
527
519
514
499
500
493
487
494
497
501
498
491
486
483
478
472
470
472
486
501
504
502
502
484
470
457
450
457
468
479
485
479
477
478
470
468
478
477
471
470
468
467
467
472
484
491
481
474
483
484
480
477
470
459
444
442
462
466
469
457
456
454
458
462
464
465
463
455
456
460
457
457
455
462
466
462
461
465
471
471
473
482
487
483
483
484
471
454
455
463
466
467
484
486
472
463
465
469
462
464
469
469
463
462
461
475
485
491
487
487
500
513
506
493
491
489
477
462
448
450
451
463
471
474
487
499
501
513
531
536
549
569
582
595
617
633
660
690
730
767
795
804
815
823
829
837
847
854
857
858
853
846
837
831
815
791
759
690
607
531
458
391
330
261
206
167
141
131
136
151
150
151
166
187
201
219
230
247
270
289
297
310
333
345
358
373
389
400
399
399
405
416
420
419
421
432
447
467
476
472
475
490
504
514
519
528
527
529
512
495
486
497
502
507
520
527
529
546
535
519
519
522
505
493
497
506
514
512
518
523
527
531
529
523
514
508
508
518
512
500
501
507
516
523
523
526
541
540
533
539
551
550
552
553
548
540
537
545
543
533
529
534
532
534
537
531
527
532
528
527
529
529
530
538
547
548
555
560
558
558
557
551
540
538
539
539
538
539
538
535
545
542
543
541
538
545
539
535
542
548
556
558
559
563
560
551
549
543
542
551
553
541
546
553
556
555
548
548
562
566
564
564
571
590
579
557
553
556
559
570
570
562
555
564
572
573
570
568
577
584
576
563
559
558
566
576
584
582
580
576
577
579
582
583
591
601
598
585
578
577
584
596
611
618
611
592
583
573
578
588
569
573
581
571
559
569
576
575
561
546
542
548
556
554
559
563
561
554
556
564
567
553
545
537
531
530
535
536
533
530
530
529
527
519
518
515
505
499
501
513
512
500
499
493
486
484
484
480
477
464
464
468
465
462
458
458
462
458
455
456
456
460
458
455
456
462
459
444
431
428
423
424
432
430
431
435
441
447
436
421
416
412
417
411
405
410
412
401
372
362
368
370
382
391
378
377
388
392
386
373
373
386
393
387
392
401
399
393
395
394
392
389
392
395
396
394
387
388
387
390
396
398
406
407
399
400
403
409
405
404
406
420
431
443
444
448
443
442
437
432
427
413
405
400
406
417
422
426
430
427
430
431
433
428
433
441
444
430
425
427
432
447
441
420
413
431
445
450
450
446
454
460
459
454
449
447
451
445
436
431
428
431
438
452
462
463
462
460
464
467
480
489
491
496
494
481
475
475
481
481
479
483
485
488
476
466
474
486
499
497
492
485
474
454
445
446
432
429
441
457
467
484
495
487
478
479
488
500
515
519
514
499
486
484
486
484
478
479
481
478
471
470
471
472
472
483
489
477
461
456
464
468
468
468
475
489
501
505
501
504
509
501
483
476
475
470
466
470
475
473
479
491
491
487
476
464
465
476
494
506
501
492
489
480
482
493
492
487
488
496
498
488
477
478
487
495
490
489
495
494
489
488
482
474
475
469
464
467
474
496
511
506
503
504
488
479
475
473
473
478
482
486
477
473
478
490
494
497
501
495
494
501
494
492
479
461
455
474
491
492
495
501
497
480
472
469
470
467
456
458
471
473
461
471
489
500
501
503
506
498
495
492
500
508
503
496
498
504
494
480
474
473
475
477
470
488
508
500
497
496
489
489
488
485
499
497
493
490
480
488
500
510
512
499
483
473
474
480
488
487
487
490
491
495
497
500
498
484
480
476
473
476
488
491
496
504
502
501
506
507
498
491
491
495
507
511
504
495
492
486
484
468
461
461
480
492
492
482
482
495
496
496
502
518
526
535
542
530
524
528
524
525
521
506
498
497
498
491
491
486
488
495
497
496
487
481
478
481
482
491
491
488
493
503
513
521
522
522
532
527
514
495
484
492
502
506
524
549
561
560
554
554
549
545
553
557
549
552
561
562
550
540
530
521
515
512
516
525
531
538
534
526
524
529
526
521
531
532
520
511
520
528
514
502
483
486
499
502
494
486
481
469
462
455
454
457
460
460
468
486
482
473
474
474
489
496
499
501
509
512
506
501
502
500
495
472
466
474
480
485
474
452
438
441
457
477
468
458
457
465
471
478
477
467
466
473
485
493
492
483
482
486
481
477
475
473
480
479
476
484
486
494
503
501
496
491
487
481
467
467
471
472
470
471
473
483
489
499
506
496
492
496
488
478
478
482
488
494
493
498
501
495
485
486
487
480
484
474
464
454
450
457
472
482
484
488
506
519
528
530
540
564
592
624
655
674
700
716
726
745
763
789
806
822
835
852
858
857
858
849
845
840
833
807
771
735
689
624
554
471
399
329
252
193
142
109
97
94
95
95
101
118
136
156
179
197
212
238
271
285
298
321
344
366
381
408
416
406
399
404
419
429
431
443
448
454
455
462
469
477
491
503
525
534
533
537
534
517
511
510
519
525
510
521
526
523
515
513
521
524
525
527
534
534
529
531
543
552
553
544
537
533
532
532
532
532
532
540
545
542
536
535
531
528
538
541
545
545
546
543
543
546
550
553
553
549
543
545
543
539
546
549
556
551
545
547
552
559
566
573
572
576
572
561
555
553
557
565
544
530
535
546
543
526
517
514
537
560
569
567
554
541
548
553
546
547
564
557
541
549
561
566
550
542
544
543
539
536
535
540
549
564
563
558
557
548
556
560
551
553
564
572
573
578
589
580
570
566
543
534
539
554
559
565
570
576
581
585
585
584
577
571
580
582
593
596
583
562
548
552
557
567
585
591
606
606
598
593
597
605
606
592
580
585
589
587
590
597
613
604
594
591
577
566
561
560
555
552
554
560
565
573
573
568
557
547
537
538
541
546
553
556
566
561
556
550
549
544
540
531
525
524
514
510
513
517
515
515
506
497
500
491
486
481
485
493
499
505
501
484
471
466
461
454
446
450
458
460
458
456
464
474
471
457
439
440
442
443
438
435
434
428
421
420
420
413
414
415
415
426
434
431
425
425
420
412
406
398
409
413
403
399
401
410
414
410
400
401
398
395
399
403
403
402
410
415
414
406
408
414
412
403
399
394
386
375
372
383
397
402
410
420
425
429
425
425
425
428
433
433
430
431
426
419
419
425
421
412
408
418
428
439
445
447
440
436
441
443
439
435
436
436
442
448
468
478
480
468
454
450
443
443
435
433
437
444
444
445
447
446
446
444
441
448
456
464
467
463
452
446
444
451
451
457
465
468
471
474
477
481
485
488
485
480
474
473
482
478
476
465
451
452
463
473
469
458
446
456
483
496
500
491
487
487
484
477
476
481
487
494
499
505
506
503
486
469
457
451
459
468
481
470
463
476
493
491
480
490
481
471
473
484
489
485
477
473
476
474
462
464
466
468
466
466
466
468
471
467
460
456
457
465
470
473
471
467
480
494
488
489
497
500
494
474
462
471
473
469
463
466
480
484
486
483
479
466
458
454
457
458
448
447
451
451
446
441
440
451
469
491
503
512
503
491
489
499
504
511
516
513
505
486
478
471
455
448
456
464
468
467
462
460
457
461
474
481
483
480
473
476
479
479
480
483
485
480
476
475
474
480
479
474
475
485
497
504
499
494
493
494
497
507
502
502
490
484
482
472
475
478
474
474
482
483
487
489
498
494
494
492
490
494
490
482
484
488
480
483
483
487
488
490
493
499
501
500
504
511
502
502
498
500
506
507
496
486
488
489
494
487
488
483
487
482
477
470
465
470
481
486
489
493
500
508
507
509
519
518
513
507
512
525
496
485
487
496
504
496
493
484
483
485
483
486
489
491
499
504
502
499
502
513
529
538
544
554
561
560
552
548
552
544
542
547
559
569
555
541
529
515
514
519
521
513
514
516
517
512
517
512
508
502
501
489
474
467
466
468
452
450
448
463
480
487
488
496
526
536
529
516
495
484
476
463
457
455
450
447
437
442
457
465
469
464
453
453
461
456
447
441
453
465
480
485
473
478
491
490
487
479
483
491
496
479
473
490
499
499
484
486
474
467
458
462
458
464
472
477
484
490
482
473
476
486
493
488
486
484
474
474
471
468
468
462
461
469
480
479
473
469
467
478
484
485
476
473
475
479
475
473
482
489
479
464
455
454
463
477
477
484
471
462
463
469
472
481
478
482
497
507
520
532
543
564
597
625
646
659
659
676
705
741
771
799
821
829
833
831
833
821
800
777
770
789
821
816
783
738
686
613
543
481
419
359
285
205
155
131
125
125
129
125
124
131
142
155
175
202
223
242
256
284
305
331
352
371
387
394
395
389
384
388
400
421
441
451
457
469
478
481
487
488
487
487
490
498
504
513
526
536
541
540
532
517
506
493
497
514
518
514
509
511
510
510
527
538
544
545
550
546
540
520
518
517
517
515
519
522
520
525
538
552
554
548
548
549
543
542
541
547
554
557
561
544
533
524
519
515
510
505
513
536
551
555
550
541
537
532
526
528
538
549
548
543
541
541
539
535
552
564
572
574
566
557
560
560
546
545
551
549
541
543
551
541
538
532
537
541
541
538
538
551
558
558
568
569
559
548
548
558
559
551
552
563
564
566
563
557
555
563
570
567
557
556
561
567
567
561
557
558
561
558
554
555
564
570
582
590
574
568
562
560
564
583
589
579
579
591
608
604
586
582
579
588
592
594
601
591
585
587
586
578
575
577
574
583
573
570
558
558
567
569
573
582
576
582
582
577
580
579
576
572
571
572
574
577
573
563
559
559
551
556
560
545
525
520
513
516
526
532
537
535
527
521
525
528
518
509
509
507
512
510
509
507
499
501
496
480
467
463
467
468
466
466
465
460
467
473
471
465
452
446
442
442
453
452
453
451
452
457
467
460
440
432
427
421
417
424
421
419
419
421
419
413
421
431
431
426
417
419
420
412
395
391
400
404
404
401
395
388
383
386
386
391
393
392
386
380
379
392
399
400
403
407
416
421
414
411
417
418
412
397
390
402
413
415
416
409
394
388
395
406
418
425
429
435
437
437
432
425
433
434
428
429
428
429
419
419
437
441
440
439
440
439
432
423
430
436
441
448
446
440
435
437
446
457
456
456
459
448
433
427
426
433
441
451
462
466
465
485
494
506
512
497
488
479
469
463
459
460
466
473
479
485
486
482
475
467
464
466
474
475
468
470
472
478
480
483
488
494
495
491
475
460
459
459
456
462
470
471
468
469
472
475
480
482
484
489
497
497
476
454
451
462
466
484
491
487
487
495
514
526
519
503
486
472
462
462
476
487
491
488
487
479
483
482
485
484
484
484
480
482
481
478
470
478
481
486
497
496
485
496
503
500
492
488
500
512
518
504
490
472
466
462
464
466
464
464
460
462
471
482
482
483
482
473
477
487
487
496
497
500
497
494
496
498
489
489
485
482
478
466
452
444
447
456
465
469
476
481
481
490
486
475
476
483
498
514
517
520
512
506
496
486
483
484
494
498
498
493
470
452
453
473
493
487
481
481
484
490
488
485
477
483
492
500
509
511
502
486
480
483
486
485
488
487
488
493
493
492
486
485
488
491
488
495
490
488
491
488
492
485
471
457
438
438
458
476
494
498
495
492
492
492
485
488
486
493
503
499
494
494
492
484
479
477
476
478
477
474
466
458
468
475
476
488
504
516
521
517
504
507
514
519
508
503
499
492
488
484
481
477
471
470
477
473
476
483
485
496
513
540
537
517
499
494
492
486
484
486
485
484
477
469
461
460
466
460
461
468
479
487
498
501
510
522
532
529
515
510
516
507
505
506
518
521
516
509
510
521
519
519
522
534
548
560
564
566
567
567
566
561
551
545
541
548
551
551
542
546
554
544
523
498
502
501
513
518
510
507
507
488
476
465
456
467
473
475
475
473
470
471
476
474
463
458
461
472
476
480
491
484
476
469
470
475
466
447
435
439
448
456
458
460
456
463
465
461
464
469
468
466
470
472
468
472
480
490
489
488
486
480
480
477
471
463
456
459
467
475
480
478
478
492
488
483
482
472
464
469
474
475
477
465
461
473
483
500
501
506
504
489
485
496
501
492
480
472
470
472
483
490
493
495
491
485
476
471
478
481
476
465
460
457
453
461
467
472
476
478
486
495
512
523
528
537
552
560
566
579
598
617
640
672
708
727
763
797
810
817
825
827
829
840
845
854
846
841
861
863
836
808
778
729
653
585
521
452
386
317
247
192
162
148
141
125
115
121
137
155
178
198
216
233
247
259
283
305
328
357
369
382
383
385
404
414
415
415
421
422
436
455
453
456
459
468
485
494
498
496
497
496
492
492
495
504
499
493
491
497
501
514
526
520
514
521
523
506
503
521
532
532
524
514
502
505
515
517
516
513
507
508
515
532
543
526
507
502
510
505
503
515
533
538
537
537
537
535
537
548
563
564
563
560
562
566
554
538
535
529
517
517
522
528
531
528
528
524
516
515
518
514
509
511
518
528
518
510
515
540
552
545
547
546
544
550
558
556
556
556
547
544
559
568
572
572
557
545
528
516
515
525
541
534
525
526
538
542
540
538
532
525
536
543
546
557
568
572
565
558
549
542
542
547
559
568
563
556
555
559
561
573
579
589
582
576
573
572
581
582
575
569
568
569
566
566
572
581
587
592
591
587
584
580
573
578
598
595
581
569
566
564
566
562
557
553
555
564
568
572
578
580
583
582
572
577
589
597
575
555
549
561
566
563
552
542
545
554
557
557
547
539
527
502
493
491
487
483
481
489
501
507
505
501
503
497
483
486
489
490
490
490
491
490
490
485
481
487
482
476
469
469
473
454
433
434
433
426
435
438
444
445
442
444
443
437
420
407
404
412
421
426
424
430
433
429
419
415
409
407
397
407
415
403
400
398
391
389
393
400
407
402
408
408
404
403
404
411
402
393
393
384
375
380
385
384
381
386
400
401
404
408
410
401
379
359
360
373
379
386
389
393
395
391
384
383
387
396
412
417
417
420
419
427
448
453
448
449
459
462
450
428
412
410
420
423
430
427
424
420
419
421
422
424
430
440
450
454
451
447
452
457
458
456
442
433
436
449
450
443
441
454
462
464
466
464
457
456
457
461
460
461
451
442
443
451
457
475
486
480
490
497
483
479
467
453
431
421
425
431
438
445
451
448
441
442
453
465
471
468
470
475
481
486
488
489
489
494
488
486
487
489
498
501
495
489
484
474
467
462
467
471
468
477
491
496
493
486
473
471
478
475
480
486
499
503
505
495
476
478
476
478
476
473
471
471
479
476
474
461
464
470
477
489
491
494
495
487
481
472
472
474
477
487
483
480
483
483
486
479
478
480
494
502
504
507
517
513
499
488
470
474
473
472
470
462
459
462
464
466
471
474
477
472
479
493
504
502
493
489
491
487
486
492
502
508
502
485
470
469
472
469
468
473
483
483
477
486
497
490
477
480
491
493
496
494
480
475
480
477
469
459
465
477
487
493
491
485
486
500
496
485
477
480
492
495
483
477
478
470
460
460
467
477
487
487
486
488
494
501
500
504
515
517
513
502
492
488
489
493
498
496
481
479
486
485
485
486
467
455
460
471
487
496
494
490
490
489
487
491
499
506
516
517
514
506
496
490
473
478
477
476
485
490
494
496
502
508
504
480
470
480
478
472
469
478
483
478
467
461
461
471
476
495
510
505
508
502
496
502
509
504
498
500
490
496
509
518
522
510
500
487
488
492
486
479
469
467
467
476
488
489
498
506
505
505
501
493
490
496
490
482
475
474
479
487
493
494
486
488
493
496
501
508
511
511
514
506
517
533
554
560
555
543
535
536
539
538
542
544
537
544
554
555
547
543
542
537
528
542
551
548
536
529
530
539
530
510
493
492
498
502
507
509
498
490
489
478
475
478
481
480
489
495
498
503
479
462
459
464
468
477
489
483
483
477
452
448
455
457
457
459
464
473
481
487
483
482
474
468
479
486
484
481
479
479
476
475
463
454
449
445
460
471
476
481
480
476
471
469
465
462
468
478
489
493
481
476
499
509
498
480
464
456
448
445
446
459
469
470
471
480
494
498
503
490
471
455
460
473
481
475
471
475
480
482
489
491
486
484
491
479
470
470
476
480
489
487
489
469
456
451
456
457
460
467
479
496
510
525
537
549
553
568
589
618
642
670
689
716
745
754
766
795
830
839
838
849
855
843
836
830
832
842
847
835
804
771
726
656
582
512
439
367
298
232
175
144
130
125
117
114
124
143
164
170
168
196
225
259
282
287
292
311
327
350
373
385
403
408
413
410
395
399
414
432
448
454
457
455
456
470
479
488
495
501
502
508
511
516
519
521
528
540
532
515
509
520
521
514
513
518
514
517
509
500
490
493
500
500
501
513
517
516
523
517
517
522
520
528
544
539
536
540
540
542
553
540
532
520
518
526
538
552
562
569
552
532
521
515
510
514
526
534
537
533
533
532
524
513
512
525
528
521
523
529
522
521
525
535
537
534
532
534
545
547
556
561
558
554
556
554
558
569
568
567
565
567
566
541
528
516
505
505
502
508
515
525
514
516
526
536
549
553
563
578
578
572
579
588
586
581
582
575
569
568
561
549
548
549
550
543
534
542
563
588
589
576
565
565
567
567
566
564
566
559
559
574
583
594
583
585
590
587
587
579
567
559
555
559
567
570
572
573
584
592
591
595
588
577
572
568
570
561
552
552
558
561
567
562
556
554
562
560
549
550
550
544
539
544
548
531
525
532
535
528
524
514
510
507
505
514
520
513
509
512
511
516
516
502
485
484
482
484
486
482
472
468
475
480
477
478
476
475
469
466
462
447
448
454
461
468
454
444
448
454
451
443
435
435
435
439
428
411
410
415
415
412
424
438
438
435
428
424
411
399
402
415
421
411
403
413
416
417
416
411
412
407
400
390
388
386
389
391
390
388
395
400
411
390
386
391
394
387
392
412
406
409
404
396
387
382
385
392
402
407
416
420
427
427
421
417
420
430
430
433
435
429
412
399
406
415
429
428
422
424
428
432
435
436
438
431
420
413
409
415
420
433
438
446
457
461
453
449
444
447
451
446
435
424
419
426
438
449
461
466
454
456
450
449
464
480
485
489
480
464
454
451
459
462
463
467
472
477
478
485
490
488
483
485
476
465
464
466
461
468
472
466
463
471
480
499
501
494
482
472
480
481
475
473
469
464
472
479
481
493
496
482
469
467
466
474
483
475
476
478
495
503
485
469
468
476
482
486
489
486
485
482
481
474
483
485
481
476
473
469
463
459
460
476
487
497
510
510
490
460
451
453
458
465
477
481
469
463
472
486
481
469
466
461
468
482
485
490
498
508
502
480
473
480
476
464
464
473
475
478
481
479
487
493
488
479
487
502
505
492
475
475
474
463
469
483
499
501
492
478
469
479
480
465
464
478
488
490
471
467
475
477
473
474
470
464
472
475
475
478
486
495
491
494
498
503
494
490
492
488
491
494
491
484
475
477
471
478
476
481
486
485
488
485
483
477
482
490
486
480
479
483
492
495
490
475
470
463
467
489
505
504
494
484
478
475
472
471
478
499
501
503
503
500
494
494
491
496
504
509
506
501
502
494
479
476
480
484
477
480
495
506
505
498
500
501
500
484
469
456
460
470
475
481
475
487
491
480
469
475
494
513
515
505
492
491
500
507
508
502
496
490
492
489
486
492
496
501
505
504
497
497
512
519
521
508
494
489
490
495
507
512
499
494
496
480
469
472
479
477
481
493
503
500
501
499
494
497
502
495
496
504
511
512
508
506
503
507
511
514
525
522
519
524
517
504
502
507
510
528
544
558
561
546
534
528
523
515
515
522
523
515
520
530
534
537
541
547
541
530
515
504
497
493
501
502
495
484
484
480
467
471
472
466
459
454
456
462
469
466
468
480
488
485
473
469
466
459
452
453
457
459
477
485
489
488
486
488
480
475
465
481
494
486
476
449
438
447
453
462
471
475
469
466
468
472
477
473
466
471
477
494
491
479
468
457
445
442
444
441
448
453
458
467
471
458
459
471
476
472
487
491
499
510
519
506
487
473
471
469
479
483
478
475
471
474
476
471
460
455
447
452
462
466
482
497
502
505
490
472
465
463
467
488
522
540
555
570
589
605
619
641
663
685
715
748
775
796
814
834
850
851
843
832
833
832
806
793
794
800
786
761
729
668
599
521
434
353
273
212
160
117
93
92
80
74
81
96
119
136
153
163
172
194
217
245
275
302
321
334
347
360
374
388
398
411
419
425
428
426
425
435
453
471
487
503
511
505
499
489
487
496
497
496
514
520
526
532
523
511
503
503
513
530
542
544
534
518
510
511
517
522
514
516
526
532
526
520
524
537
541
538
541
548
550
536
528
526
518
517
530
541
539
541
547
544
531
520
513
512
522
526
529
536
545
540
548
550
549
556
558
547
547
539
552
557
550
554
541
529
523
516
509
516
518
521
526
530
533
534
536
542
539
537
534
536
539
528
531
537
535
539
542
542
544
550
553
554
545
533
528
530
535
544
544
549
556
558
568
567
566
569
565
565
561
556
559
561
557
561
560
552
549
549
552
564
568
564
572
572
560
542
531
520
528
541
559
581
586
594
594
579
576
586
588
589
581
572
583
580
573
571
561
551
563
565
564
557
556
557
563
571
571
573
584
590
585
575
573
566
562
566
560
561
565
546
543
556
561
565
559
547
536
545
553
542
542
536
538
527
522
522
532
529
523
516
517
518
513
510
502
491
485
496
507
510
508
502
499
499
506
519
507
495
487
492
491
477
468
466
475
480
475
472
474
465
469
469
456
445
434
435
430
427
418
415
421
425
426
415
414
414
422
411
402
408
417
401
392
395
407
411
412
402
400
408
421
415
397
379
372
372
377
376
367
364
375
381
403
415
426
429
430
427
422
414
407
408
413
404
401
405
404
390
384
390
392
402
419
420
420
421
421
419
415
427
446
451
429
415
415
412
410
410
413
407
397
405
413
425
437
448
450
446
439
437
434
433
441
447
445
437
443
450
458
466
477
485
477
474
479
466
453
442
445
458
473
483
482
483
472
455
435
432
434
434
440
461
468
471
471
472
476
479
477
477
467
469
468
464
466
477
468
458
455
461
473
488
504
512
504
497
478
471
467
459
454
455
470
475
480
483
488
480
469
473
478
476
469
466
468
478
483
480
482
483
492
501
496
485
471
475
470
469
476
472
473
471
460
460
468
478
487
488
485
476
462
454
461
465
479
478
473
465
461
459
465
473
478
479
483
474
466
460
481
487
491
483
472
457
456
470
480
483
482
481
482
479
476
474
477
482
486
488
484
483
479
471
470
477
485
484
480
467
463
474
470
461
463
460
455
461
462
472
479
485
504
510
503
486
482
485
484
480
479
480
474
464
468
468
466
464
475
480
471
473
481
485
484
480
492
494
492
488
473
457
465
480
481
474
469
475
487
501
497
477
457
452
458
475
494
499
498
498
497
489
492
492
497
501
504
489
493
500
490
485
483
493
494
493
512
531
521
505
501
498
493
500
503
498
493
490
479
468
470
476
492
491
489
494
507
501
485
494
499
496
492
491
490
486
479
472
478
476
472
479
481
493
497
504
504
506
509
499
500
514
529
529
518
516
516
512
521
528
540
546
550
544
537
528
513
516
523
524
528
531
533
538
535
536
538
545
558
557
542
528
518
521
535
529
537
530
516
501
483
474
480
474
484
489
487
474
465
468
461
446
439
448
460
464
471
474
467
466
475
478
471
470
470
475
480
482
473
451
456
465
480
497
502
489
489
481
468
460
454
437
435
433
438
445
439
430
427
437
456
471
480
488
481
478
485
494
494
484
484
494
491
488
482
484
471
454
461
467
467
469
469
463
460
459
460
466
478
487
490
491
482
476
476
480
492
490
484
476
471
485
489
483
459
452
451
466
472
471
477
481
482
483
479
471
475
481
477
484
481
482
499
514
524
539
554
571
596
612
624
649
669
676
695
730
748
764
786
796
805
823
830
832
833
834
836
830
825
817
802
783
760
715
650
574
497
412
342
281
217
157
115
97
109
126
128
132
140
145
147
155
174
205
234
260
280
293
305
324
356
384
415
436
446
451
445
433
438
444
449
459
462
462
466
471
471
481
494
502
512
517
505
498
512
516
523
523
513
519
528
533
539
538
536
539
538
535
533
533
532
531
533
529
530
530
531
540
541
537
536
554
576
568
537
532
528
528
525
531
539
531
524
535
540
544
550
549
554
550
534
521
514
521
528
529
529
529
536
537
538
527
522
522
530
538
540
535
534
545
555
563
557
545
545
554
573
576
565
571
578
561
556
548
549
544
540
539
540
549
546
541
539
537
538
542
532
522
529
536
543
549
554
548
550
552
553
559
556
546
547
552
561
559
557
563
566
560
559
565
575
570
563
558
559
568
570
566
558
557
562
566
567
563
549
543
555
574
591
598
605
614
598
592
583
578
572
562
561
563
564
563
568
570
582
596
596
583
563
552
563
563
563
569
574
588
591
590
576
551
544
540
540
546
555
559
562
565
569
566
572
577
566
564
547
540
545
554
547
525
526
532
534
528
530
534
529
514
505
507
507
505
511
525
522
508
502
502
500
490
483
486
478
481
480
477
475
470
473
465
458
452
446
447
444
447
448
451
454
459
460
449
443
435
427
421
428
438
448
460
448
435
432
428
426
439
451
448
432
420
422
427
428
422
420
407
396
388
389
397
397
388
375
375
386
394
406
399
400
414
411
399
391
398
406
418
416
410
396
387
391
397
407
415
423
420
414
412
415
426
435
440
439
432
428
418
420
419
424
422
413
399
395
401
399
409
423
432
436
433
430
435
436
436
435
445
435
434
444
454
456
455
457
443
436
438
440
446
455
456
457
462
458
455
458
460
462
454
457
462
464
466
468
461
461
465
475
483
483
472
460
452
458
462
469
473
479
482
480
468
461
471
474
473
481
486
492
481
469
470
476
490
488
480
477
483
489
485
486
489
484
467
455
466
480
482
473
474
487
494
488
485
479
466
473
482
490
495
505
505
497
491
483
478
476
473
474
479
486
489
489
479
463
476
477
471
465
470
484
492
492
492
493
492
486
488
490
490
485
483
485
481
467
463
471
482
486
487
493
499
502
501
497
490
488
478
478
486
484
488
497
497
492
488
491
495
497
496
491
481
482
481
482
487
492
499
491
486
493
497
494
491
495
505
506
488
486
466
452
449
447
455
462
467
474
485
494
502
508
512
511
504
508
510
497
490
491
487
492
491
495
498
492
489
485
474
467
464
465
464
460
461
459
462
459
467
475
485
488
484
488
494
503
511
520
516
520
512
516
512
512
509
516
524
520
516
504
496
487
479
480
473
477
481
488
498
488
467
461
460
464
468
471
484
488
487
486
499
509
508
506
508
508
508
508
510
511
502
494
502
510
510
503
506
504
501
506
496
484
481
475
466
461
471
486
485
479
486
500
510
513
512
514
519
526
529
535
535
530
530
545
557
561
559
552
546
556
548
530
516
516
506
497
496
503
503
505
507
510
515
517
518
525
524
511
504
499
503
500
490
485
488
483
471
481
484
481
485
487
481
465
457
460
476
481
483
470
462
457
447
440
447
459
472
473
471
475
476
472
477
485
494
492
486
473
463
467
465
460
452
449
466
464
468
471
472
472
476
478
486
486
486
484
478
460
442
441
448
461
472
472
477
476
465
461
469
473
482
479
472
485
490
489
488
484
471
466
462
455
457
461
458
458
472
481
484
481
474
471
467
468
474
476
483
493
490
480
478
478
484
472
465
477
489
498
507
510
494
485
492
507
513
526
540
562
586
613
645
667
694
718
747
768
796
821
840
847
843
847
841
821
810
817
818
830
834
818
800
775
740
662
570
494
431
371
324
271
217
175
147
135
123
106
104
120
139
152
170
202
222
248
275
308
328
341
343
350
367
379
392
402
407
414
423
417
414
421
434
449
465
480
497
511
507
507
508
510
515
511
507
511
508
511
515
513
512
514
515
508
511
507
505
507
500
498
515
517
506
506
516
523
528
532
531
529
530
524
523
531
528
526
520
518
517
511
515
529
534
532
525
523
526
531
540
548
551
546
539
536
536
539
542
547
542
535
540
547
548
550
553
550
550
551
545
543
549
553
549
543
535
522
510
514
532
546
547
541
539
536
538
545
539
537
547
560
560
545
543
545
547
542
545
549
543
548
550
543
533
527
530
534
545
556
570
574
577
576
570
570
567
558
555
540
528
531
538
546
555
552
544
553
568
571
566
565
562
560
568
585
592
577
569
571
580
597
592
587
590
587
579
578
585
592
603
597
578
581
581
583
584
585
587
587
585
588
585
579
566
569
571
565
558
565
575
579
569
556
552
548
555
565
570
573
569
567
567
566
557
556
557
560
559
553
552
547
543
545
543
533
521
513
510
514
514
521
523
524
525
525
520
518
522
514
511
503
489
486
490
489
490
493
495
500
503
491
482
475
476
468
459
444
429
422
428
432
436
443
460
463
455
457
458
451
433
415
403
406
409
400
387
392
404
414
411
403
399
403
410
422
420
416
412
413
427
432
421
410
399
389
388
381
371
375
390
401
411
415
408
399
392
398
402
413
425
421
423
424
433
424
406
400
403
411
415
412
403
410
416
426
429
425
408
403
407
407
411
418
425
434
442
451
446
437
430
423
421
417
411
402
404
419
437
441
437
444
456
460
456
451
447
450
445
441
436
437
443
446
443
440
439
446
457
454
439
440
445
447
443
440
441
454
462
462
468
467
458
462
463
464
466
473
484
481
478
473
474
466
461
459
461
470
472
474
471
476
474
478
480
473
466
467
475
479
483
482
479
482
491
487
483
474
462
463
475
485
488
491
482
482
486
485
482
481
475
470
471
470
474
482
476
472
476
461
470
482
494
491
485
490
500
498
497
499
496
489
483
485
478
478
483
484
486
492
487
483
493
506
514
499
474
468
474
484
487
479
477
477
475
477
481
485
487
478
480
486
484
478
473
480
485
489
493
508
514
502
484
469
464
462
470
478
476
469
475
482
481
493
501
488
478
480
483
493
493
500
498
501
506
499
496
493
484
486
486
478
480
480
471
469
473
486
500
510
504
487
480
475
476
483
487
491
487
488
496
498
497
498
503
512
511
513
508
508
503
495
490
487
478
486
487
480
485
481
468
474
476
473
471
481
494
501
501
491
496
499
501
501
496
493
487
486
482
482
494
507
514
506
490
484
486
488
484
485
490
499
509
507
502
497
485
489
491
497
497
495
492
496
511
520
503
487
485
478
467
471
482
491
498
504
501
497
501
492
494
501
506
507
510
517
518
530
536
537
545
551
554
566
565
554
561
559
550
543
537
543
540
537
526
523
514
516
521
525
531
542
538
532
530
523
527
530
520
514
504
498
486
479
485
478
473
473
483
477
489
490
479
467
462
467
471
463
453
460
468
478
487
480
476
469
466
463
461
468
471
478
475
454
449
447
445
446
450
464
474
476
481
486
492
489
491
491
493
494
480
475
470
466
472
491
494
488
486
481
475
470
474
475
479
473
466
462
461
464
473
477
467
465
467
459
455
452
453
458
468
473
472
476
483
491
501
510
497
483
470
467
473
471
470
479
492
475
456
457
459
467
484
479
482
493
488
488
484
486
480
473
476
492
503
509
521
536
548
549
553
568
576
597
616
647
675
698
735
771
797
830
842
848
849
853
858
855
856
850
863
878
875
852
816
785
724
655
595
526
456
363
278
212
144
112
110
113
103
98
113
135
155
170
185
203
225
253
278
296
311
330
346
360
376
390
400
405
407
414
420
427
443
459
467
468
464
468
474
477
485
495
509
512
503
496
503
507
501
501
504
505
504
489
488
505
529
537
543
554
558
546
537
521
510
516
525
519
514
508
510
518
532
536
534
539
540
539
528
519
517
527
535
528
520
523
531
538
545
549
552
550
537
524
524
534
535
537
527
522
517
522
535
546
545
542
542
543
550
561
558
541
525
520
530
543
551
549
544
542
543
542
535
537
550
567
567
557
549
560
566
554
548
546
553
562
548
546
528
521
527
541
551
553
545
541
538
532
536
553
572
575
579
575
567
576
577
567
554
559
569
569
569
552
563
569
571
570
559
556
566
569
572
577
579
576
570
567
563
552
552
556
568
571
576
582
586
589
584
583
588
588
590
593
588
579
562
553
566
587
595
588
586
587
587
590
599
583
565
558
561
569
587
589
578
575
581
582
584
577
564
558
552
555
553
555
556
548
544
549
555
558
553
544
540
531
518
520
525
534
532
534
528
514
508
497
495
496
494
496
492
490
494
488
480
476
476
474
468
462
462
469
483
486
492
476
462
455
454
458
469
487
482
466
441
426
421
412
413
424
425
423
421
413
420
429
434
426
421
410
406
403
403
403
402
405
410
410
407
398
391
399
413
419
419
418
422
420
416
412
407
408
410
405
402
400
397
399
405
406
406
405
408
404
413
411
410
411
407
406
405
413
415
410
400
401
408
426
442
443
432
423
413
409
418
421
421
415
418
427
433
432
421
422
425
431
432
430
441
449
448
442
444
457
465
469
466
463
460
465
465
461
446
447
453
455
467
468
467
467
484
469
449
456
471
480
482
468
452
437
442
447
447
448
451
465
461
455
453
461
462
460
462
460
458
455
455
458
462
475
488
495
498
487
487
486
483
488
485
478
473
465
459
464
476
467
466
473
469
461
463
472
487
493
496
486
481
483
477
481
476
476
489
494
490
489
487
484
473
469
471
474
481
485
496
498
494
486
472
481
484
484
479
481
486
499
503
497
481
467
472
461
457
472
476
472
477
494
506
497
487
485
485
478
470
469
462
457
453
461
466
463
459
466
478
492
501
498
490
490
483
479
473
465
472
484
491
495
490
486
479
488
501
504
495
500
503
496
490
489
481
464
464
472
471
467
451
448
454
461
467
476
476
475
478
481
490
491
497
491
474
462
460
477
489
494
494
500
504
507
500
487
473
468
475
491
496
503
493
482
486
493
501
500
502
495
499
490
473
471
474
472
477
488
503
513
520
519
514
496
482
466
466
475
490
491
491
500
500
503
510
507
496
481
477
479
483
471
466
476
480
492
498
504
513
527
521
499
481
472
476
479
478
478
480
486
491
489
477
481
483
485
498
500
505
517
520
512
506
512
521
530
542
545
539
529
529
526
516
509
499
506
518
529
534
549
563
565
553
556
563
562
552
532
518
536
544
538
531
527
512
521
537
540
534
524
513
487
480
471
470
471
468
467
475
480
477
485
483
477
474
478
481
479
478
482
475
462
456
453
455
458
463
471
469
470
465
453
462
478
490
494
492
475
464
467
485
482
469
461
459
458
469
471
471
468
460
457
464
474
475
474
472
472
485
485
484
482
472
463
460
462
466
463
465
470
463
459
467
476
477
478
478
486
485
483
479
471
471
475
473
470
465
465
466
468
469
475
471
477
486
498
510
507
500
492
484
473
465
474
494
486
478
474
463
457
466
484
498
498
496
505
515
524
525
535
551
569
583
609
647
672
712
734
761
786
821
854
881
892
892
883
888
874
836
809
796
804
799
777
730
670
584
508
438
361
285
203
143
106
92
94
97
100
97
103
133
151
163
178
191
212
233
254
283
312
324
340
359
378
393
407
412
422
420
427
439
454
464
469
474
475
473
468
468
481
492
507
519
530
543
531
520
514
519
522
528
527
524
522
517
516
521
525
526
523
517
521
529
530
536
548
544
544
541
536
538
547
548
542
544
545
543
542
537
534
540
540
539
545
544
542
546
555
546
551
553
554
556
556
544
530
527
524
543
552
548
550
549
546
541
545
550
551
540
538
538
536
538
546
546
535
523
525
538
552
569
570
565
564
553
534
521
529
538
536
525
527
533
547
546
527
510
506
505
514
526
531
538
552
562
568
571
564
557
549
547
559
559
560
558
562
562
561
565
562
564
567
569
569
575
580
574
571
566
562
568
571
570
573
577
587
587
582
581
582
581
574
564
556
555
566
572
590
597
596
586
568
570
571
562
558
568
580
576
566
564
568
567
572
575
586
579
575
567
554
560
562
559
556
548
538
535
536
546
555
560
563
560
561
556
552
550
547
557
551
546
541
529
517
514
521
526
515
499
490
489
489
494
505
513
503
496
497
507
516
514
508
511
502
494
490
477
478
481
483
482
483
478
473
469
459
457
460
453
452
443
435
430
436
445
448
438
432
427
425
424
425
433
430
428
427
419
416
412
401
398
401
405
413
413
408
396
391
403
397
388
393
400
403
398
398
390
382
383
385
385
386
390
397
407
412
417
422
422
416
417
422
410
411
404
399
401
400
400
417
421
415
416
417
433
433
428
427
415
411
421
437
439
430
425
427
433
435
437
440
437
440
437
432
439
440
437
438
442
437
432
432
432
444
461
468
465
463
461
464
459
446
445
450
452
440
441
452
466
460
454
456
468
466
461
453
458
456
462
465
465
463
463
468
466
469
468
470
473
475
480
493
504
503
489
478
469
454
441
444
457
468
476
474
484
489
492
500
506
513
523
510
477
464
461
465
473
483
486
489
492
483
481
481
485
495
502
500
508
498
470
456
451
446
446
453
467
477
478
470
464
454
449
451
460
472
486
492
492
493
490
485
486
477
474
483
487
480
472
470
470
474
486
486
483
482
483
484
479
470
469
477
475
469
476
480
473
466
470
474
475
485
491
489
486
483
481
484
492
492
486
492
503
503
497
478
467
461
459
468
475
490
493
487
501
502
480
468
464
462
463
470
475
489
489
482
473
470
479
479
482
493
493
487
476
476
480
485
492
508
504
485
477
475
466
463
462
466
485
498
498
492
481
490
492
494
492
494
499
506
507
509
507
502
493
487
490
490
492
492
489
495
506
517
508
493
480
486
495
498
489
482
488
497
500
500
500
503
509
509
513
519
529
532
530
534
530
516
503
499
496
501
511
531
535
537
534
546
554
536
527
534
542
544
535
524
516
521
533
534
531
520
510
506
500
500
500
497
498
482
470
458
452
453
450
453
459
473
485
490
490
501
502
484
476
477
477
477
473
470
467
464
471
487
494
487
482
480
475
478
471
467
460
465
470
466
464
453
459
472
482
484
479
473
473
478
478
476
471
471
468
462
461
467
476
468
476
481
484
477
462
447
448
457
472
470
464
461
471
457
441
430
427
438
448
454
451
453
463
470
478
475
469
466
471
483
496
501
492
485
481
475
482
487
475
475
487
479
478
481
492
487
474
462
464
464
455
469
481
487
496
512
523
543
566
583
606
626
641
657
675
687
694
713
745
773
801
814
823
817
811
809
805
794
780
774
789
796
781
748
700
639
574
512
445
369
297
232
170
134
120
110
117
119
120
123
138
158
173
202
213
209
227
248
265
275
291
313
330
364
391
408
417
428
438
435
439
450
467
472
463
470
475
490
498
511
519
520
527
526
524
529
524
518
523
527
528
529
533
531
524
530
539
528
525
523
529
528
516
518
528
531
549
561
562
555
540
536
536
544
553
568
570
567
561
560
553
548
540
533
533
538
546
540
534
525
530
540
547
548
547
543
540
542
556
562
563
560
544
537
535
537
529
525
533
529
523
526
529
535
534
544
542
550
551
547
547
561
567
558
555
556
551
551
548
544
547
541
535
532
532
537
540
547
548
550
551
550
552
560
576
569
560
554
550
554
564
580
587
589
585
580
580
579
568
562
563
567
557
541
529
519
530
546
552
560
562
565
575
578
574
574
570
565
557
558
571
580
581
577
572
578
594
600
597
600
595
594
588
570
567
567
568
567
565
571
580
586
576
567
561
569
579
565
540
536
542
544
541
548
568
580
595
585
568
553
552
550
537
533
542
549
557
566
566
554
554
550
543
532
527
526
535
536
530
528
527
520
508
496
490
495
494
494
491
484
481
470
467
469
466
461
467
483
476
465
460
455
459
466
473
473
465
450
444
437
434
428
420
411
408
414
416
410
400
401
408
417
424
427
430
445
447
442
430
411
398
391
386
390
396
408
409
412
410
404
398
401
405
399
395
398
401
398
396
396
399
400
398
394
394
400
407
414
410
416
427
413
405
403
396
385
383
387
387
394
409
424
425
419
419
420
416
424
432
432
430
423
420
429
431
427
423
432
442
449
448
443
438
432
440
452
449
448
451
457
449
449
447
440
418
404
409
416
426
428
436
457
464
469
463
453
449
444
438
451
465
467
465
469
479
485
485
484
490
468
457
458
463
454
443
450
458
465
482
487
487
485
477
475
474
474
470
467
469
475
482
484
474
479
497
498
487
475
475
480
473
477
476
493
502
502
488
469
468
481
490
482
479
459
446
458
478
489
487
482
483
487
494
498
488
482
479
483
480
476
473
471
474
481
480
478
475
474
475
483
485
493
488
482
479
472
468
470
477
489
484
481
484
484
483
489
487
478
471
468
471
479
485
482
475
474
487
491
482
478
479
484
472
462
454
460
468
465
466
471
482
496
506
503
491
481
480
479
482
487
481
476
478
483
493
492
493
482
463
460
484
495
482
480
495
492
483
492
507
517
506
495
495
504
494
481
483
483
481
481
478
482
491
489
484
489
490
494
491
496
503
505
496
476
457
454
466
478
488
497
499
492
486
484
487
487
489
490
477
475
486
492
498
496
494
488
492
494
490
505
500
491
481
484
482
476
476
480
477
477
483
494
507
521
526
523
520
515
502
499
502
501
493
488
489
491
486
481
489
493
490
487
490
504
507
507
505
508
521
527
518
511
519
527
529
531
538
535
540
543
537
538
545
544
538
529
528
537
538
529
527
526
535
543
534
521
500
487
494
496
494
503
502
488
483
480
489
497
504
494
493
507
503
483
477
468
459
467
471
460
460
465
464
460
457
461
477
480
475
464
459
455
458
465
467
466
469
468
462
469
465
463
467
471
470
468
471
468
462
456
453
463
474
484
480
478
480
495
486
467
459
455
452
452
450
449
459
474
478
473
468
471
476
477
479
479
484
477
474
460
455
462
470
477
484
476
458
460
462
454
453
466
479
491
485
482
491
491
491
488
485
488
482
475
468
468
474
482
491
488
479
466
458
458
460
483
501
507
500
495
504
513
533
558
579
597
614
644
673
705
746
781
807
834
848
847
840
841
843
829
818
814
817
830
837
823
794
764
714
636
569
498
414
348
287
226
183
156
138
129
106
102
123
138
145
169
204
231
254
282
309
325
329
342
364
375
383
406
418
423
420
415
413
423
433
446
457
460
462
458
461
461
462
459
454
463
470
480
493
497
498
510
524
529
527
522
523
527
521
522
527
527
518
504
517
521
517
517
516
515
522
524
534
539
544
547
545
541
532
524
510
501
503
510
521
526
522
519
521
515
516
511
522
526
533
532
532
536
536
540
551
554
557
556
553
547
539
540
540
548
552
543
545
544
533
519
508
514
514
515
532
534
523
526
533
541
564
568
563
559
549
544
541
539
537
531
527
527
537
546
559
571
573
560
545
537
541
553
555
555
548
531
524
529
525
520
518
525
529
532
536
541
546
549
557
567
573
576
578
578
578
567
560
561
567
573
582
590
598
599
590
572
557
549
550
562
575
579
578
582
578
575
573
570
572
570
571
581
587
582
570
567
570
572
569
566
555
554
562
566
564
567
579
587
607
605
600
578
557
543
526
510
517
527
532
525
519
522
529
545
551
548
543
546
558
558
542
541
541
524
515
519
533
545
529
508
495
490
491
499
490
486
488
486
481
475
480
483
489
491
480
477
477
462
446
448
445
450
453
456
453
447
451
449
445
443
433
428
422
413
421
434
432
430
432
419
421
419
421
434
432
426
422
413
401
408
415
420
426
424
410
400
397
388
383
383
382
385
398
400
404
415
412
409
413
413
411
411
401
393
395
403
402
402
398
397
395
396
393
384
384
383
389
410
423
428
441
442
435
428
409
402
400
408
403
405
406
406
407
404
406
412
424
436
440
449
457
456
455
451
446
445
448
447
446
437
438
445
442
438
430
430
436
442
446
448
446
439
443
453
460
454
448
444
456
468
467
456
445
443
438
437
446
449
451
455
454
459
466
466
464
472
479
482
483
485
491
502
487
490
495
489
471
449
446
452
459
465
465
462
466
470
478
475
469
467
464
468
472
481
493
495
493
486
486
485
486
481
470
468
465
457
462
475
481
486
499
506
507
500
487
487
489
487
478
479
485
488
489
481
483
484
491
496
502
499
492
489
494
498
506
499
495
492
486
477
475
475
471
464
465
470
474
469
467
463
462
479
498
508
514
526
533
525
510
506
492
481
471
466
464
462
460
465
466
477
475
470
470
482
499
511
517
508
505
495
479
470
482
492
503
510
521
521
511
502
497
493
477
469
465
468
473
491
494
494
501
508
499
482
479
480
485
492
491
493
488
481
477
482
496
501
501
501
505
507
498
493
499
493
492
485
480
473
471
477
485
485
483
495
502
486
487
507
513
512
514
514
504
487
483
479
480
484
482
473
463
460
456
459
471
480
477
482
488
489
495
491
492
496
497
501
501
504
506
505
500
487
478
478
475
473
484
492
493
495
499
500
502
501
497
498
492
494
492
489
495
505
510
515
516
512
509
506
510
508
504
499
505
505
503
504
506
504
507
513
510
495
485
477
476
473
477
484
487
489
499
510
510
507
506
492
494
503
512
526
536
545
545
536
540
535
529
523
534
538
547
545
557
568
559
547
533
530
529
541
546
546
530
516
497
493
501
509
512
513
511
504
498
497
493
492
489
490
493
487
478
484
497
509
506
487
473
473
472
479
481
462
454
461
473
481
482
477
471
473
470
469
471
476
475
476
470
457
461
462
469
474
477
474
469
470
470
465
458
463
458
457
458
458
463
469
473
469
468
464
465
467
473
467
461
467
481
490
492
487
482
477
472
475
472
466
460
470
471
471
466
465
473
473
466
464
464
466
470
477
485
480
469
461
471
478
483
486
485
486
504
515
517
511
497
494
489
482
479
478
466
459
460
457
449
458
466
481
494
502
512
522
537
545
547
558
567
588
617
649
691
735
757
787
810
830
838
852
854
848
850
833
819
814
813
828
834
838
824
796
748
667
592
521
458
406
342
275
204
156
139
128
109
100
104
118
143
161
171
187
212
240
273
300
321
342
365
383
387
390
404
416
418
426
435
440
445
446
440
449
454
465
481
483
475
477
483
471
468
475
480
489
484
484
496
510
517
526
524
520
518
515
510
507
511
514
517
518
515
515
522
530
536
531
527
529
536
540
533
525
521
520
535
550
550
542
541
548
552
542
524
509
502
508
521
534
540
527
528
542
551
554
551
544
546
546
536
526
524
525
533
532
532
532
535
538
544
545
545
537
527
524
524
521
521
523
526
531
537
543
549
550
557
551
549
564
566
557
556
554
548
541
547
554
558
570
577
571
562
557
549
549
563
560
542
537
533
525
530
537
546
554
553
550
557
558
562
561
554
559
562
561
562
568
575
574
562
568
576
573
579
580
574
572
585
596
596
593
593
595
594
590
578
564
568
575
575
573
569
571
575
573
573
569
585
586
576
576
579
574
580
581
575
575
574
573
574
574
571
565
553
551
557
567
574
577
570
561
555
547
530
523
530
537
555
556
553
548
548
551
543
546
550
540
532
539
525
508
495
480
479
487
486
484
488
498
502
499
495
501
514
522
519
508
490
477
461
443
443
448
445
442
455
462
456
443
437
436
433
440
446
444
455
458
448
442
430
423
416
413
424
424
419
415
413
414
410
416
426
426
422
418
409
399
403
395
391
385
393
392
406
420
411
404
408
410
400
393
391
388
391
388
385
386
390
397
403
401
397
401
410
413
415
419
427
444
460
449
431
426
435
432
418
416
417
414
407
406
411
419
420
425
426
435
436
437
437
431
420
420
423
428
432
431
422
418
425
435
453
468
476
479
478
471
458
452
453
451
445
433
442
445
441
441
436
442
451
446
454
448
445
454
454
460
464
467
475
478
473
470
474
485
482
467
456
455
459
468
474
488
512
514
511
504
486
455
434
442
458
463
463
464
457
459
468
477
487
488
480
475
477
487
494
489
482
483
486
488
487
479
480
481
474
473
475
474
474
481
494
496
484
489
488
489
482
477
481
492
493
481
474
476
472
482
485
488
482
476
471
477
487
486
476
474
475
483
482
476
479
482
493
507
507
505
505
501
495
483
466
470
471
475
476
479
495
506
501
490
479
485
482
477
478
482
482
491
495
500
501
504
501
493
481
475
473
476
479
480
475
471
471
477
483
491
498
504
504
489
481
476
453
439
433
450
469
475
489
505
510
512
516
502
486
483
489
494
495
494
495
501
509
517
517
509
493
494
493
493
491
480
473
476
486
491
506
495
481
457
454
462
474
480
487
483
480
487
497
499
500
500
499
497
492
492
491
490
489
488
490
486
477
479
483
482
481
484
486
486
486
490
492
492
497
505
502
494
495
493
488
491
496
498
485
478
473
477
493
505
500
501
502
498
496
499
504
512
501
487
484
493
496
492
493
498
503
495
486
481
488
487
476
476
479
479
480
488
486
486
485
482
487
495
505
510
508
515
513
507
509
519
519
519
514
510
509
498
500
506
511
509
516
532
523
523
522
532
529
536
538
541
544
545
539
538
534
530
523
517
517
523
527
526
536
541
537
539
538
534
523
529
528
525
523
500
486
494
496
490
491
484
474
476
485
494
501
498
495
493
492
490
484
475
473
473
470
471
479
474
463
458
456
461
464
467
461
460
453
447
448
455
462
464
468
472
486
490
479
470
468
472
473
477
479
476
483
485
485
487
488
484
481
484
482
475
464
453
440
443
445
441
442
458
480
494
483
482
487
491
489
485
487
488
484
485
491
491
483
473
451
445
444
452
462
463
449
456
458
456
463
461
459
472
474
484
485
479
477
490
485
485
487
486
481
485
488
479
470
472
482
494
505
518
529
538
543
546
564
577
603
625
643
670
690
709
731
758
785
814
830
842
843
843
855
867
854
833
817
817
824
811
776
730
658
578
508
441
360
276
207
148
125
132
133
124
109
111
120
145
168
197
211
219
230
242
256
278
301
333
365
370
370
371
360
357
372
390
402
414
422
438
459
472
499
507
514
517
519
509
493
500
504
499
499
496
492
487
489
484
494
505
507
512
521
517
516
525
539
544
533
529
531
529
527
532
527
516
506
503
508
505
516
529
535
542
544
546
553
558
551
550
546
541
535
537
538
530
529
529
530
526
528
530
527
524
530
533
534
521
523
526
526
531
533
537
542
541
541
553
551
537
533
538
548
558
560
553
542
528
526
529
540
539
540
542
560
565
556
554
555
560
559
561
571
561
551
536
530
529
527
521
527
531
540
549
547
538
522
511
516
525
533
538
546
562
569
572
567
553
547
561
580
578
582
565
567
577
567
570
574
565
558
569
572
566
563
561
554
547
551
548
550
555
564
576
584
590
597
597
592
583
575
572
572
579
577
567
559
556
558
555
557
561
571
577
577
579
576
574
567
564
567
573
562
550
547
547
546
542
547
552
558
562
570
562
546
534
529
518
507
498
503
511
511
516
519
519
518
508
491
492
498
507
514
516
513
512
511
514
510
493
477
468
463
459
465
475
482
494
500
505
499
478
447
439
442
431
425
423
423
424
427
436
440
450
449
437
430
421
420
422
427
436
437
431
430
432
415
393
386
386
392
397
400
401
407
394
382
386
391
388
384
376
377
398
405
404
401
390
383
387
387
391
402
404
396
382
375
384
402
406
405
393
392
401
409
418
418
419
428
427
416
414
412
417
426
428
424
421
423
418
426
434
444
434
433
430
431
443
456
447
452
449
438
450
450
445
442
427
424
434
427
417
409
408
415
429
438
446
456
458
460
471
475
476
485
479
465
449
451
450
439
442
448
458
458
461
459
460
472
479
482
488
494
485
490
498
481
460
449
446
443
449
460
464
469
480
474
469
465
464
468
472
489
493
492
493
493
484
483
488
489
487
481
471
478
480
467
459
465
468
466
466
469
474
480
492
494
498
500
502
498
493
496
499
490
492
470
463
467
470
483
486
499
496
477
459
453
455
456
453
462
470
474
481
490
501
509
497
477
477
479
465
459
464
462
461
459
464
465
465
477
492
485
478
483
486
492
494
483
477
477
484
493
477
466
466
464
464
456
453
458
465
474
478
491
501
503
499
499
505
504
501
492
492
492
492
494
499
497
492
475
462
470
476
479
466
462
461
464
482
488
490
487
495
510
514
508
506
491
482
475
474
480
491
487
477
474
482
494
501
500
487
471
463
463
472
474
479
483
493
494
509
514
518
520
523
522
518
508
490
480
473
474
472
478
484
498
493
488
484
483
480
481
491
483
471
471
471
470
468
478
493
502
505
507
512
518
516
509
514
513
508
510
500
496
495
499
499
498
495
485
481
481
486
481
487
492
495
504
514
524
533
529
520
524
526
530
529
528
531
537
546
555
560
553
555
565
567
564
550
543
548
538
531
527
531
542
534
531
535
529
524
509
491
490
498
504
508
503
492
478
468
464
467
463
452
459
470
478
480
486
498
503
481
466
466
461
458
465
473
478
476
476
484
493
489
470
461
454
448
459
466
469
471
480
474
471
473
477
477
474
477
477
479
483
479
464
449
450
453
463
473
492
498
502
511
497
476
462
451
446
457
463
459
457
455
456
448
451
460
467
471
477
473
461
461
463
468
474
481
482
487
478
476
469
458
465
487
502
508
506
500
480
465
460
467
467
478
479
466
463
466
473
465
461
471
479
480
475
470
476
486
499
510
518
530
545
556
563
573
596
625
653
677
705
727
752
780
802
809
812
821
829
827
817
821
814
808
800
783
775
768
736
681
608
541
477
401
329
259
189
125
91
78
78
85
83
80
90
112
137
168
199
220
226
239
257
279
297
314
336
358
383
398
412
426
441
445
439
439
437
443
461
469
471
476
489
495
502
509
508
511
511
510
520
533
534
519
507
497
480
486
502
512
521
527
531
531
536
541
553
572
576
568
553
549
546
534
522
518
524
541
556
556
552
554
549
534
537
535
532
535
535
542
554
552
540
532
526
527
533
540
542
539
539
543
540
535
532
522
524
525
526
531
542
541
545
547
543
534
532
532
535
541
545
556
569
575
565
554
540
529
520
524
535
542
551
557
560
556
552
555
558
558
561
564
562
571
564
545
532
533
552
564
566
568
558
556
562
561
558
566
571
561
568
570
568
563
563
562
564
566
561
556
553
557
564
574
585
591
585
571
562
568
576
578
578
569
567
565
560
557
562
569
582
591
591
575
567
567
566
572
576
583
597
598
592
593
593
584
580
576
573
564
557
564
580
593
585
564
550
549
558
570
581
581
579
577
560
557
559
555
555
549
541
548
549
542
538
540
538
536
531
535
543
546
538
529
531
527
524
518
506
502
503
515
525
523
512
498
492
479
473
467
467
478
488
490
472
462
460
462
450
438
436
445
452
455
458
460
459
458
454
454
440
424
418
409
408
404
414
439
452
443
430
440
439
427
421
413
397
395
399
403
403
390
382
387
382
382
387
399
410
405
400
396
404
406
406
410
411
412
419
419
417
414
413
401
393
394
402
411
422
433
433
428
411
407
405
408
411
420
422
416
425
418
417
427
441
448
445
441
447
437
427
423
419
421
416
413
417
419
433
451
456
465
466
464
466
467
464
453
449
455
463
456
444
434
435
434
432
426
421
423
433
436
439
457
461
467
473
476
483
489
483
472
471
484
496
483
486
488
488
484
464
451
448
451
459
464
472
482
487
487
477
484
509
508
491
474
476
484
482
486
489
488
487
484
483
485
483
483
483
482
481
483
495
500
505
504
495
486
471
462
447
433
441
455
467
481
486
483
495
498
494
491
488
476
470
467
469
466
468
476
483
487
493
489
480
474
465
465
472
482
492
500
495
483
476
465
454
466
481
494
494
496
481
478
475
483
483
479
469
461
466
476
472
468
472
472
475
492
505
520
529
528
507
486
481
492
489
485
486
493
493
488
474
464
470
478
482
479
474
475
486
487
468
467
468
470
471
471
479
487
487
490
491
492
500
502
488
477
466
463
458
458
469
474
482
498
509
509
508
509
512
514
511
498
484
476
473
475
474
484
496
499
498
495
494
496
501
500
499
502
496
486
490
493
497
500
502
494
494
498
497
500
502
497
503
507
513
503
489
488
492
495
502
509
513
511
506
510
523
515
505
494
493
488
489
495
486
474
475
483
495
499
508
518
520
510
496
490
490
496
502
499
496
489
486
496
499
488
481
487
499
513
525
532
533
520
518
526
527
526
528
527
516
513
523
540
547
534
529
530
542
547
545
543
548
550
554
554
552
554
555
549
541
535
541
544
540
520
502
500
502
497
502
491
478
466
477
484
483
489
492
499
490
469
466
463
464
466
470
463
458
451
446
447
454
468
468
478
486
487
483
486
487
485
491
497
488
474
467
464
469
479
490
485
482
481
484
481
485
484
485
483
481
475
472
479
468
457
462
466
467
479
478
479
469
462
468
482
485
482
477
478
481
475
471
473
475
468
473
485
481
475
475
473
477
490
491
495
494
491
478
467
468
465
474
478
474
478
491
471
464
467
474
479
471
467
468
480
493
508
522
523
518
508
507
517
523
532
542
549
566
591
622
651
675
693
711
733
760
780
787
798
808
811
820
832
831
830
827
824
831
836
829
806
776
728
645
567
491
416
355
294
239
200
176
163
148
151
152
160
186
182
175
177
197
224
257
288
305
316
332
345
359
374
390
404
417
429
431
428
428
435
441
451
458
460
477
481
491
501
503
501
510
510
510
507
517
521
514
506
504
512
523
520
516
519
537
537
532
534
531
537
541
533
519
517
525
531
539
533
525
507
502
508
511
515
528
540
542
538
531
529
523
523
517
517
525
530
526
521
518
520
521
526
531
530
529
525
527
530
532
550
558
553
553
550
548
545
542
541
540
543
547
557
560
550
543
534
531
528
530
530
534
537
539
537
542
543
545
547
546
544
534
528
538
551
553
556
552
548
552
553
556
559
566
585
586
571
556
552
562
539
534
554
566
568
563
561
542
527
525
519
512
514
523
536
549
564
564
558
561
558
554
553
565
581
588
587
587
586
591
592
588
596
596
589
586
587
586
592
594
593
586
586
582
577
566
556
560
559
558
562
569
575
577
579
580
578
574
572
574
573
566
563
559
569
570
575
567
557
556
549
547
555
567
562
545
529
522
519
520
518
525
520
509
509
528
544
553
547
536
527
532
531
519
511
516
517
505
493
478
476
482
476
459
464
476
474
477
483
479
477
476
472
466
469
474
471
465
463
464
445
438
434
426
426
430
427
426
428
419
418
413
406
407
406
412
419
424
419
421
422
410
392
392
398
395
393
397
401
400
399
409
410
412
409
401
401
406
419
421
419
416
413
408
402
400
406
419
424
425
421
414
389
371
369
380
393
416
431
426
427
415
401
404
414
422
424
418
408
404
411
418
415
420
418
423
431
423
411
412
421
427
426
425
435
438
437
444
443
444
443
444
451
449
432
428
425
418
426
430
433
445
457
463
456
443
441
442
445
445
442
442
453
456
453
453
453
456
467
472
478
474
469
469
470
467
465
461
470
478
484
471
457
448
445
456
467
464
451
450
460
466
466
476
480
495
500
497
486
487
485
496
497
493
492
483
472
477
472
467
466
465
462
470
484
494
497
486
478
480
475
477
476
479
483
467
456
464
466
474
479
478
480
489
499
498
493
498
494
487
478
472
479
488
505
510
502
493
485
490
499
503
506
514
509
494
490
489
485
480
478
476
482
486
490
495
490
489
487
481
475
467
472
484
492
498
491
480
481
497
490
483
483
488
503
513
503
491
481
474
468
466
468
460
465
471
477
481
484
485
485
487
487
495
504
512
516
530
534
519
502
488
475
471
476
481
487
491
496
502
505
513
505
493
487
491
487
480
466
465
481
491
488
489
486
485
480
475
477
488
493
501
507
507
507
499
501
503
490
480
475
476
466
464
471
473
475
476
480
483
483
484
486
484
486
482
482
480
487
500
507
507
500
499
504
493
482
489
493
497
502
510
512
506
508
503
500
503
505
500
487
483
487
488
483
483
482
482
479
479
483
482
482
483
486
493
496
506
508
509
518
527
531
531
544
548
547
538
534
532
534
533
526
516
511
506
512
527
541
548
543
539
534
522
521
521
521
520
522
531
537
531
525
534
548
542
521
512
511
528
532
520
505
506
513
505
494
490
487
493
492
496
498
491
479
462
460
461
460
457
447
445
450
455
457
460
467
466
466
463
460
460
458
466
476
469
467
464
463
470
479
484
493
494
498
504
500
489
480
481
482
472
462
453
456
465
467
470
467
465
465
463
465
466
462
466
463
467
474
484
497
498
497
489
491
485
472
461
459
456
454
453
465
472
466
467
479
480
476
466
468
477
482
486
482
489
494
487
488
485
486
483
476
478
481
482
481
479
485
485
492
487
480
484
490
488
495
509
526
543
557
580
610
632
647
677
699
729
760
787
804
821
832
845
851
844
834
829
831
837
844
853
860
848
819
779
722
638
564
482
403
339
277
227
184
157
143
128
114
122
139
154
166
186
201
220
242
258
274
292
313
336
343
349
361
378
392
399
410
427
418
407
418
427
434
446
466
480
488
486
483
489
491
493
499
508
520
522
518
505
505
508
512
525
532
533
523
525
531
513
509
518
523
531
535
536
534
525
513
506
509
507
512
522
521
524
529
524
516
516
530
546
551
552
551
546
547
556
555
544
545
555
548
531
522
521
521
508
508
521
528
523
517
519
528
530
533
544
550
541
535
533
530
522
519
523
530
537
546
554
559
556
548
546
551
555
548
539
532
526
521
522
527
522
507
501
501
518
544
554
559
566
561
553
548
543
546
556
558
554
553
551
554
563
560
557
560
568
576
573
575
579
569
558
544
546
546
553
558
564
569
576
589
591
590
578
573
577
581
579
576
570
560
569
579
585
578
578
590
589
570
560
567
573
570
570
565
567
576
579
578
575
588
601
594
596
590
583
574
569
568
560
561
567
573
578
577
569
558
550
560
565
548
540
546
547
557
573
575
565
547
533
512
507
514
517
505
496
504
524
533
541
542
549
553
547
526
511
499
494
489
483
483
487
484
485
488
488
485
464
462
470
467
452
451
457
451
437
432
439
455
457
448
439
433
429
426
418
417
419
417
418
417
409
415
421
414
418
429
432
439
437
422
421
415
408
402
398
400
406
411
409
399
399
406
413
416
412
413
403
396
408
419
411
394
391
384
381
386
377
395
397
391
397
402
403
407
400
402
403
407
410
419
421
412
409
407
413
415
413
412
418
424
425
422
411
399
394
395
404
400
392
392
406
418
430
439
451
451
448
452
454
465
464
453
446
457
458
456
450
442
439
441
446
456
451
451
458
462
463
449
431
417
438
458
462
458
459
457
461
463
467
467
459
464
462
461
462
469
464
463
454
449
445
457
476
479
486
486
483
486
482
482
488
480
474
486
496
494
494
505
494
488
479
477
481
478
473
469
478
484
488
489
493
489
493
495
497
496
486
480
487
480
466
465
469
471
466
460
463
471
469
462
460
468
480
485
487
486
482
476
484
490
483
476
471
468
471
480
488
498
507
496
487
485
490
486
477
479
481
489
484
480
476
471
464
463
472
487
491
489
490
486
483
491
495
481
473
485
500
503
503
486
488
481
468
467
463
468
477
486
498
508
514
505
494
489
488
489
484
483
481
482
490
482
481
476
466
465
469
477
492
497
505
495
488
489
489
481
478
483
487
487
491
489
490
490
496
500
495
492
490
480
476
479
474
469
456
462
474
470
481
500
500
494
486
481
493
499
498
495
501
496
496
499
494
491
491
487
484
481
491
504
508
502
491
482
478
486
486
479
475
468
471
478
490
497
485
485
496
500
504
510
520
504
490
494
498
499
503
509
511
507
505
505
504
500
494
492
495
498
488
478
478
483
486
484
479
486
500
506
511
502
502
512
518
517
517
530
536
538
548
555
556
554
557
544
540
553
556
561
562
542
528
520
514
515
524
526
526
520
521
516
503
500
505
500
501
502
496
489
484
478
481
489
501
501
498
496
501
497
493
500
493
481
471
468
470
470
471
471
479
489
489
479
480
484
492
488
486
483
488
478
465
470
476
482
480
474
466
467
474
467
459
459
461
466
461
468
471
474
479
474
468
472
473
476
478
472
467
466
462
459
461
456
463
477
478
466
450
444
462
469
470
467
461
457
465
480
475
463
463
467
473
481
495
508
513
501
496
492
499
499
482
482
491
496
501
489
469
460
466
478
485
493
510
502
484
466
459
463
477
495
514
529
527
520
527
547
558
575
586
606
624
637
659
689
728
763
794
816
816
823
843
856
859
856
851
841
835
829
814
816
821
801
755
676
595
530
442
351
282
219
158
108
80
71
67
68
77
96
124
140
160
184
206
229
242
251
268
287
306
339
364
387
408
421
424
420
423
443
454
448
447
453
461
459
456
459
462
468
474
494
506
517
522
530
536
540
541
529
524
521
524
532
538
536
530
517
517
530
546
550
546
527
520
526
535
533
532
520
506
512
537
547
555
559
555
551
553
552
537
534
527
522
526
525
517
514
519
528
540
546
552
545
541
551
566
565
564
561
557
550
547
547
549
547
543
546
545
537
525
528
528
531
540
549
558
556
551
543
535
535
535
535
539
545
545
548
560
563
559
550
527
514
518
527
526
542
559
563
556
558
560
555
553
546
531
533
538
547
570
577
571
571
571
576
573
573
574
582
583
580
582
585
576
566
565
569
563
558
562
562
552
546
560
573
584
589
596
598
585
571
573
584
578
575
584
588
582
577
567
556
552
557
564
573
589
596
587
587
578
572
566
566
573
578
578
579
584
590
572
559
561
567
574
581
587
570
558
557
556
558
558
557
553
547
540
544
548
552
562
553
547
525
508
511
507
512
512
507
504
516
516
509
496
487
481
488
493
494
502
509
511
511
510
498
488
485
479
478
474
470
455
451
455
459
458
465
461
458
448
437
432
433
431
435
434
437
438
433
431
431
434
431
422
425
420
418
413
400
393
396
395
398
398
391
392
399
400
400
403
407
402
405
409
405
407
414
411
399
392
387
379
382
376
373
383
397
407
411
416
422
425
420
408
403
403
400
404
410
413
413
420
434
424
410
406
409
428
436
424
416
421
423
431
432
435
440
443
437
435
434
435
436
430
438
446
449
448
432
428
446
464
472
475
472
458
444
447
439
429
438
453
464
465
463
469
473
472
473
473
473
472
466
469
470
473
475
471
474
473
466
477
487
481
474
474
473
465
464
465
463
464
460
465
462
460
467
469
468
472
481
480
484
493
500
499
490
485
484
476
469
465
464
465
472
475
482
480
467
474
484
479
473
479
491
502
506
502
499
496
485
480
478
467
460
470
480
481
480
487
486
487
485
487
498
507
507
497
494
483
471
467
464
467
474
477
477
474
476
475
468
466
468
470
460
450
446
454
468
481
476
467
472
478
483
486
488
492
487
479
478
481
486
488
487
481
479
488
484
479
472
468
464
461
464
478
488
492
486
477
472
477
476
473
477
480
499
509
502
483
464
467
468
462
472
483
485
477
475
480
482
489
491
497
490
479
481
486
485
491
484
487
498
495
491
490
487
473
471
477
476
492
506
502
498
488
478
472
464
465
473
483
481
480
487
495
493
486
487
485
486
492
495
496
497
510
520
518
504
494
490
491
489
500
500
490
482
482
485
482
483
470
469
478
494
506
516
523
527
526
518
518
531
531
519
505
506
505
503
509
519
521
529
535
544
539
533
543
545
543
534
531
537
546
549
537
528
531
536
540
543
543
538
537
523
509
495
491
493
500
506
503
496
482
475
469
468
471
478
474
474
467
464
459
464
469
471
468
469
473
474
475
465
462
463
476
486
495
498
491
475
469
473
486
488
485
477
475
476
471
463
470
486
492
482
478
477
472
464
448
436
433
441
456
478
484
487
488
482
481
472
474
473
470
473
482
485
480
471
477
476
461
458
462
469
474
477
484
482
464
463
455
456
447
444
445
447
455
465
475
481
490
487
483
482
491
500
509
515
513
509
516
518
503
486
464
454
457
466
483
489
495
502
498
490
500
512
517
525
543
577
607
625
644
658
670
691
716
745
763
787
810
827
828
825
814
811
806
797
780
770
777
781
780
756
700
624
551
474
402
316
238
178
135
108
100
118
117
111
117
109
121
151
177
192
209
234
264
290
310
323
337
363
391
410
411
405
410
421
432
444
447
454
461
465
465
469
480
486
496
503
516
539
540
539
547
550
541
539
535
538
537
535
531
512
500
498
514
531
541
536
538
534
525
518
525
536
535
532
531
535
536
534
541
550
554
557
554
556
553
548
549
549
542
537
524
