364
363
359
352
348
338
341
344
348
350
354
358
358
359
366
365
364
369
373
378
379
378
375
363
359
354
363
371
362
360
364
380
385
380
378
379
376
375
387
398
395
375
383
389
397
414
416
382
362
362
372
382
387
397
394
386
375
364
357
365
376
382
387
388
393
389
393
396
401
411
426
444
458
464
456
436
412
394
394
398
398
398
406
409
404
397
396
394
402
418
430
438
435
427
427
432
437
431
424
423
426
432
432
431
436
446
450
444
440
441
428
424
436
438
441
449
450
444
437
431
426
426
433
434
434
431
430
439
436
438
438
434
428
421
429
431
437
443
445
443
440
436
440
450
460
456
455
452
446
457
466
463
461
448
437
435
444
447
435
428
422
423
423
411
415
430
442
445
434
428
428
445
469
465
437
418
409
413
415
427
443
448
446
434
434
436
441
447
453
454
454
448
449
442
441
438
433
435
415
412
422
415
416
429
442
441
441
444
438
429
434
433
435
435
438
446
449
457
461
448
435
430
438
445
439
432
431
431
437
455
470
474
474
472
455
445
444
441
440
430
419
412
413
417
417
413
410
424
451
468
472
470
461
456
459
451
446
441
435
427
424
424
431
431
436
444
442
444
444
443
433
430
428
427
441
460
466
464
464
464
443
438
425
424
429
440
460
467
463
461
465
460
454
438
424
429
444
451
454
461
466
463
471
479
479
481
470
457
459
459
447
431
412
411
424
435
440
435
430
438
443
446
448
448
453
459
462
474
491
482
487
496
507
518
519
521
517
503
498
502
501
497
494
499
520
531
523
518
520
521
515
496
481
466
462
475
475
473
472
473
472
458
448
439
435
435
439
445
451
457
467
458
432
416
423
433
437
431
429
430
433
421
412
417
432
428
417
430
443
448
447
448
450
440
430
425
421
419
424
424
426
432
425
425
429
426
428
442
453
465
458
446
442
429
414
397
395
405
407
414
422
428
433
444
446
446
453
450
453
442
430
435
454
458
448
436
421
415
412
410
415
424
428
429
440
458
463
459
448
446
448
448
444
443
449
452
455
446
439
443
446
442
437
444
445
440
440
435
433
436
443
451
457
467
484
496
521
540
561
574
584
591
590
601
629
652
672
683
705
743
779
817
829
839
844
852
870
877
861
842
842
855
856
821
769
716
636
545
464
397
331
254
174
93
44
41
48
37
40
56
79
98
109
120
143
149
158
177
207
245
265
277
297
320
344
364
367
367
376
379
390
397
401
409
434
441
445
448
466
475
475
489
503
501
496
497
502
515
517
507
484
470
467
472
474
485
491
492
495
496
500
510
520
519
511
511
517
511
501
501
497
495
503
510
510
518
530
525
513
506
499
499
502
506
503
496
494
498
511
526
534
537
530
521
508
515
519
526
522
511
518
533
541
538
532
530
519
524
534
547
555
558
555
545
533
519
515
512
510
514
518
525
528
530
523
521
525
532
536
542
551
564
556
550
555
554
554
561
570
573
567
552
538
542
545
541
539
535
534
549
561
570
571
572
567
562
558
560
565
566
558
541
532
539
551
565
565
558
560
562
557
563
568
566
577
591
597
599
596
588
583
581
573
568
574
577
596
614
612
594
582
586
586
570
562
569
572
573
580
593
600
591
578
584
590
585
574
578
578
562
549
542
537
548
566
567
551
547
551
543
531
527
516
512
516
523
521
522
519
512
506
500
497
492
482
471
485
499
496
492
491
484
479
485
497
496
491
481
468
452
441
435
427
424
427
428
426
437
439
438
434
428
420
422
431
434
428
419
416
409
403
400
401
391
386
378
374
382
381
373
372
375
375
380
379
378
376
378
384
380
369
365
364
363
366
369
372
371
370
380
384
387
391
387
379
375
375
367
366
372
380
383
376
376
375
376
384
386
388
393
383
376
373
376
380
381
384
379
383
391
396
401
402
402
408
413
412
398
403
411
414
403
396
402
412
415
416
415
423
436
442
440
442
451
454
441
436
435
438
438
433
425
414
411
414
417
420
434
438
432
431
425
426
430
433
438
439
443
444
440
442
447
455
445
438
446
467
480
485
476
482
483
478
468
458
461
469
477
478
467
461
451
449
451
452
464
480
483
474
467
459
467
473
467
465
465
466
459
456
460
456
460
467
474
478
475
466
467
474
470
468
474
474
465
464
462
472
488
496
498
496
486
476
484
486
487
494
498
491
484
480
479
483
482
486
484
471
457
448
452
461
467
462
452
455
471
477
481
484
492
496
491
467
456
460
468
469
474
482
483
483
489
490
485
482
483
483
472
473
475
473
480
487
491
488
484
485
486
492
487
480
479
485
489
482
486
494
500
501
490
482
478
468
463
464
479
489
486
481
482
479
478
482
484
487
484
477
486
505
509
501
494
491
497
501
496
484
473
470
469
477
479
487
492
501
515
527
517
501
487
471
468
479
485
484
476
466
464
472
488
498
497
493
492
492
494
502
502
498
510
511
506
503
500
488
479
482
481
483
488
485
483
487
496
505
511
512
505
498
493
498
496
491
503
511
506
503
500
495
492
490
495
495
494
494
493
506
517
530
554
567
550
514
496
499
500
484
471
465
459
458
463
478
492
502
510
509
499
492
493
509
518
533
546
557
559
555
550
543
542
547
552
549
554
550
542
548
560
555
555
546
541
543
550
554
545
544
549
539
527
519
513
508
507
504
499
492
484
490
496
494
491
492
488
486
496
488
471
477
486
481
479
477
487
485
491
506
516
516
515
509
509
508
502
493
479
462
457
471
489
491
490
495
498
491
483
479
475
475
475
483
493
497
498
494
493
476
475
493
497
488
480
473
467
460
461
460
464
474
484
482
476
467
462
457
456
459
456
467
487
494
489
485
481
479
477
480
472
462
458
469
478
482
485
485
477
475
478
479
495
505
505
511
512
515
523
522
510
500
490
487
477
471
478
486
494
509
515
514
497
489
495
515
527
534
558
581
600
631
664
705
739
767
797
825
852
873
894
910
921
925
918
916
911
882
881
880
875
856
828
791
729
652
568
471
375
286
211
139
84
62
52
61
72
78
75
81
96
132
169
185
208
242
276
300
315
330
352
366
376
379
384
400
414
427
439
442
451
445
445
453
466
490
498
492
479
476
484
486
479
470
463
461
477
506
536
557
567
580
580
571
576
577
585
585
590
579
564
563
569
563
547
514
493
494
497
512
522
538
555
566
576
580
580
579
563
543
533
537
536
533
541
541
529
519
525
532
548
555
563
566
561
536
511
525
538
531
541
556
556
552
565
592
603
596
594
606
587
543
500
497
517
539
537
542
556
571
579
581
580
579
576
555
549
553
555
560
562
552
566
571
570
574
579
581
584
582
574
560
543
540
525
521
515
533
559
574
578
593
582
568
588
607
627
648
661
655
654
655
644
630
607
586
574
574
597
629
640
648
648
624
592
581
589
588
590
592
592
596
581
557
545
548
548
562
591
605
610
601
578
565
553
550
541
540
542
561
589
621
656
674
637
608
593
615
642
623
591
567
562
541
518
499
477
485
499
503
523
528
520
525
525
525
556
579
564
537
547
569
579
570
534
512
494
486
505
495
493
480
464
473
483
495
496
488
473
485
517
545
536
542
554
548
509
469
437
413
399
403
420
454
476
485
484
482
460
465
485
480
461
432
408
394
395
404
415
424
439
440
425
393
368
359
352
356
349
321
309
325
357
403
436
455
460
446
438
434
430
423
413
387
399
419
426
440
468
508
519
520
491
460
419
383
360
339
321
314
308
313
321
339
332
346
355
370
358
350
361
360
350
357
349
351
396
451
475
468
442
441
447
428
431
456
458
479
489
495
519
558
575
581
555
524
517
502
505
523
518
520
530
548
531
494
478
490
481
461
433
435
422
413
412
421
432
462
503
531
526
500
477
470
485
527
527
532
524
506
495
496
486
503
525
539
537
508
496
483
479
479
481
486
499
521
543
557
560
538
516
490
475
462
477
484
503
503
504
502
510
504
501
513
521
517
530
544
537
512
507
509
524
531
525
517
496
479
485
477
467
457
465
492
504
507
497
490
491
500
483
473
470
454
449
480
477
469
488
500
512
524
530
547
561
541
535
536
548
529
538
528
486
447
427
427
417
406
416
441
460
487
491
476
468
468
475
491
469
463
444
421
391
350
333
380
428
463
485
479
485
511
523
536
557
584
612
601
551
557
553
540
527
519
503
523
520
488
458
440
445
477
514
535
547
546
530
520
508
505
513
513
512
487
450
443
458
477
481
492
511
533
552
560
568
559
517
490
474
504
520
512
515
515
482
446
431
406
381
385
414
463
483
495
490
494
499
495
506
510
523
547
559
574
591
589
575
564
554
520
515
517
507
507
519
534
557
583
572
537
511
477
471
483
483
487
513
509
494
501
507
543
594
631
626
605
580
568
564
555
532
523
512
469
440
434
436
442
445
473
517
550
550
539
549
558
573
592
601
583
529
492
464
441
419
395
393
408
421
401
367
370
403
437
453
496
512
505
474
476
474
487
500
510
504
495
485
482
474
470
470
468
445
440
439
451
468
478
464
460
459
462
481
507
500
506
500
490
490
502
483
480
498
492
483
474
493
535
556
540
532
540
533
480
446
457
468
466
451
441
436
407
387
428
487
479
469
472
458
455
456
452
445
436
449
490
516
534
528
503
517
543
540
540
540
555
588
590
579
591
612
615
607
640
666
670
699
722
747
748
768
782
766
740
725
741
752
783
808
802
772
735
736
726
670
601
520
400
309
232
122
19
17
17
17
17
17
22
50
87
110
98
93
141
208
246
280
310
330
348
359
364
396
420
422
419
458
513
530
550
565
519
493
449
427
446
471
482
479
480
494
504
511
495
466
427
424
435
449
510
541
573
598
590
572
554
572
580
611
616
595
567
548
534
527
514
524
542
539
554
552
526
527
517
497
476
477
489
494
508
528
538
544
532
507
495
507
507
518
504
499
515
539
581
639
654
652
603
583
597
618
611
570
522
495
488
497
527
575
601
628
657
648
616
563
545
526
509
500
494
480
491
501
522
518
491
461
454
456
473
511
550
570
587
611
619
614
614
604
611
582
573
561
574
565
573
580
582
593
609
609
598
634
672
668
670
662
637
647
635
603
550
519
502
507
518
521
544
554
572
607
624
619
620
585
561
552
531
545
565
575
599
602
590
593
619
624
618
624
627
620
594
558
537
502
480
488
511
537
541
539
560
599
611
620
624
642
636
616
582
572
589
582
591
607
624
635
616
600
612
583
559
570
600
596
573
575
561
565
530
505
484
456
446
467
479
479
498
491
462
419
400
400
400
436
489
512
516
531
526
484
447
400
408
424
444
431
404
396
394
368
372
375
372
381
423
458
490
520
520
514
508
468
436
419
374
343
340
390
414
436
461
464
438
406
396
408
419
404
372
351
338
333
327
312
315
338
360
337
356
387
391
410
424
412
401
376
378
388
381
395
391
386
375
384
373
372
373
401
456
519
550
540
527
496
467
452
434
425
432
438
453
452
452
426
412
410
387
372
377
367
362
393
383
337
333
349
348
362
385
417
486
502
549
569
562
515
485
469
443
406
396
400
411
415
403
390
378
387
412
464
466
432
352
316
338
382
409
3873
400
414
409
405
400
387
383
387
393
396
396
399
406
405
4
368
377
387
384
395
403
405
398
391
393
396
400
414
409
405
400
387
383
387
393
396
396
399
406
405
404
400
391
392
399
413
423
420
415
402
399
407
415
420
418
413
410
417
423
425
432
442
444
444
442
439
436
435
436
430
427
422
418
419
430
435
429
425
425
425
436
448
455
449
457
460
457
459
468
479
471
462
455
458
466
470
467
468
474
476
475
470
474
485
485
491
484
478
478
474
462
456
454
449
446
454
462
464
466
469
475
476
479
478
475
480
485
489
489
486
480
471
468
473
476
485
500
499
491
484
483
487
493
490
475
470
472
480
486
488
485
482
487
483
476
465
456
458
472
487
488
488
482
482
491
493
493
493
493
493
490
477
476
483
487
490
477
458
453
450
450
455
465
476
477
480
490
492
489
482
488
484
479
487
498
493
490
489
482
473
476
480
480
486
502
507
506
497
479
463
460
458
464
470
480
484
489
491
480
472
465
465
462
464
479
485
488
488
478
471
481
483
488
488
490
493
494
485
468
463
460
463
455
449
459
460
460
466
478
488
492
490
488
479
473
467
470
472
472
470
472
480
483
482
478
477
482
488
500
508
512
513
507
496
495
494
490
487
487
478
471
472
479
480
479
471
472
475
478
484
480
483
487
484
472
463
467
467
466
472
474
474
481
482
484
483
486
482
476
474
476
485
492
491
482
485
499
512
513
505
499
493
480
473
474
481
492
494
502
502
486
476
484
491
491
498
500
503
500
490
480
480
482
492
489
497
499
495
495
492
488
495
505
517
520
520
522
515
506
493
489
486
488
494
502
493
493
497
516
531
548
557
556
557
541
528
524
529
538
548
543
541
544
541
533
526
521
523
512
499
486
486
492
495
496
503
501
492
487
494
495
498
499
506
505
500
497
493
486
478
464
464
471
469
470
468
459
462
459
464
467
469
473
474
485
491
488
485
488
484
483
483
483
488
484
474
459
442
439
448
449
448
451
450
451
457
466
470
468
462
464
466
458
456
452
453
457
458
458
464
462
461
471
478
480
482
482
472
463
461
454
451
453
469
473
471
472
457
448
445
443
447
459
470
480
490
490
485
476
464
464
468
469
474
487
495
500
492
483
479
472
465
463
473
500
501
492
487
483
492
496
502
502
498
498
513
529
543
546
562
580
604
629
658
679
699
732
774
808
835
872
897
905
907
915
924
924
914
914
914
916
912
881
825
755
672
584
496
422
348
270
200
136
95
71
61
51
33
31
39
62
89
109
126
136
164
187
206
226
254
289
317
333
347
374
393
400
396
397
409
421
430
440
449
472
486
483
489
492
491
491
482
481
482
491
497
498
503
509
505
513
530
535
533
533
529
527
518
509
510
517
532
535
532
538
540
526
529
526
522
527
538
543
537
544
550
549
554
554
553
543
540
544
549
543
538
536
545
546
544
541
544
552
552
547
544
543
541
536
536
535
540
539
532
523
522
527
540
546
552
552
547
539
529
528
527
539
549
550
552
555
551
549
547
540
534
538
551
561
558
553
560
568
564
564
559
556
556
549
547
551
543
542
552
570
585
593
588
584
586
577
569
564
575
579
584
584
583
577
582
589
588
582
579
576
579
585
587
591
597
598
596
597
598
600
601
609
610
603
594
592
588
592
591
594
600
604
608
610
609
607
601
594
593
589
586
588
591
589
581
580
581
587
592
598
594
594
593
587
579
586
581
579
584
591
590
579
573
569
570
574
579
587
586
584
580
581
573
563
561
561
556
538
525
516
511
514
519
515
504
502
496
489
490
508
506
496
489
491
489
486
481
477
473
466
448
435
427
417
415
408
406
415
415
415
417
421
427
437
436
422
410
399
391
387
387
391
384
381
386
398
409
399
394
394
391
381
380
380
375
370
375
378
380
381
394
400
396
387
378
372
369
366
374
383
382
376
372
371
373
366
364
368
380
385
394
395
393
404
414
413
409
403
399
403
404
414
426
432
433
428
418
409
406
403
402
404
403
394
399
412
420
414
408
412
421
416
410
413
416
421
433
446
457
458
441
423
414
411
419
428
430
418
412
426
443
446
448
452
451
454
463
466
471
475
469
461
458
451
446
448
456
458
454
457
462
459
451
449
463
467
461
455
449
444
441
441
448
462
471
472
472
474
472
472
473
477
483
486
494
496
497
485
470
459
462
470
486
496
506
509
492
485
479
472
464
464
468
469
469
470
473
479
494
494
498
484
469
463
461
458
452
454
452
454
460
467
472
477
487
499
495
491
496
491
484
480
485
493
489
479
465
467
470
471
467
458
452
451
448
445
444
444
458
473
478
480
488
491
481
482
483
489
480
462
458
470
476
471
473
479
475
470
465
463
458
463
474
472
473
474
472
475
491
498
498
497
496
488
480
478
482
491
502
502
488
484
490
492
485
481
482
481
478
479
482
481
473
469
472
475
483
486
485
485
480
477
461
454
460
467
463
466
467
471
478
483
489
486
477
479
483
481
480
479
486
492
497
497
496
483
474
478
475
466
465
466
472
478
478
470
468
473
470
464
455
456
459
456
460
469
481
499
517
522
516
512
505
499
485
481
480
476
475
478
484
485
484
481
475
466
464
465
471
483
490
504
508
513
514
523
536
538
547
554
547
528
518
517
518
518
518
530
537
533
531
535
536
533
527
524
522
531
536
539
538
527
521
521
518
518
523
510
495
505
510
495
478
468
464
465
468
468
471
477
477
473
470
464
459
456
457
465
471
475
476
471
468
470
468
463
466
477
474
471
471
472
471
460
463
460
457
465
473
470
462
459
456
458
462
460
458
463
468
466
461
451
444
441
448
451
448
452
458
463
469
472
465
458
450
444
439
436
439
446
458
465
469
469
458
451
453
470
481
484
482
469
460
463
461
458
466
487
496
493
488
489
492
491
493
490
484
483
475
462
457
463
463
462
457
452
463
479
487
489
495
494
490
493
501
514
529
540
545
551
569
596
624
655
679
709
743
780
806
824
833
841
854
858
857
847
846
852
845
843
837
827
801
768
731
673
592
508
434
359
283
203
133
82
60
58
61
61
61
74
94
103
115
136
152
175
204
227
242
273
301
326
343
355
369
382
393
398
399
408
419
422
432
446
464
479
489
494
500
504
506
497
492
492
497
498
509
523
528
527
521
515
520
524
523
521
525
531
538
542
542
541
540
534
532
527
529
534
537
534
534
539
537
540
542
538
536
540
547
548
546
545
544
539
542
544
550
552
557
554
551
548
546
546
544
545
550
549
547
549
552
547
543
548
558
561
562
562
555
544
548
545
542
536
539
539
542
545
540
542
545
547
549
547
553
562
563
565
574
580
574
572
581
591
594
583
569
565
568
574
579
576
575
578
576
578
576
581
589
588
586
584
587
576
565
557
563
562
563
568
575
581
588
586
593
603
605
593
594
589
590
595
596
601
603
599
589
591
591
590
594
591
582
577
582
584
592
600
611
623
621
612
618
627
638
632
617
608
598
592
592
603
616
617
610
600
595
597
594
593
593
590
580
575
575
576
577
570
571
579
588
585
582
579
568
564
571
569
559
542
531
523
514
509
510
510
511
512
514
517
509
497
484
483
484
488
495
506
498
486
482
474
466
468
465
460
451
448
442
435
420
430
447
451
440
428
419
420
414
409
413
420
427
422
412
402
391
373
365
364
365
370
379
389
401
405
413
404
399
400
397
386
385
389
394
389
383
378
379
382
391
395
387
382
382
384
381
386
382
385
389
399
396
402
401
397
404
402
399
404
404
403
397
389
382
383
388
390
394
403
407
408
410
415
412
412
407
403
406
410
408
413
425
432
429
420
405
399
401
418
427
435
440
439
443
453
449
436
428
423
426
436
437
443
448
445
447
452
455
452
457
473
479
468
468
473
478
479
471
459
448
444
449
459
464
465
471
480
487
480
474
472
472
473
476
476
476
475
472
472
479
483
485
485
482
484
481
485
489
486
470
460
458
455
464
466
472
482
492
499
497
493
488
478
470
475
484
486
488
497
500
494
485
485
488
487
485
485
486
481
478
473
473
474
481
489
497
502
505
499
484
476
480
484
486
488
483
480
478
484
479
471
467
462
459
461
456
455
466
474
483
494
500
503
513
515
509
497
497
498
492
484
493
497
496
494
494
487
474
476
484
489
485
486
491
491
491
491
494
485
477
476
478
475
479
482
480
482
482
483
480
483
491
491
490
484
483
488
493
492
485
489
494
503
508
514
513
501
488
482
478
477
475
465
462
470
484
491
493
491
491
485
486
480
478
477
486
489
486
490
500
501
500
507
509
504
501
489
483
489
499
509
516
507
491
474
465
459
462
472
485
491
496
501
496
482
472
470
468
474
488
502
506
506
502
501
502
505
506
513
517
512
511
513
510
508
508
508
512
505
503
498
495
494
492
488
485
478
470
475
475
478
480
494
503
504
507
508
503
506
515
513
509
514
521
530
539
542
538
540
535
527
516
506
506
511
522
536
543
545
549
551
551
551
551
557
555
552
556
558
565
563
553
540
527
518
513
510
510
510
506
498
491
478
469
470
478
488
492
489
483
479
471
463
464
469
472
477
480
472
465
460
459
462
471
484
483
472
461
452
446
443
452
458
455
453
465
483
489
492
488
484
481
472
463
459
454
451
451
454
452
455
460
464
463
466
468
468
468
476
485
483
476
476
469
461
466
468
467
466
464
476
483
478
482
476
470
474
478
481
484
482
482
475
472
474
474
474
472
469
464
462
469
477
481
495
505
495
477
460
451
456
464
467
461
463
465
462
460
465
471
471
482
488
489
494
506
523
542
558
569
583
611
637
657
682
714
754
790
818
843
876
899
901
894
891
892
893
887
873
873
885
890
886
859
823
762
672
595
512
428
350
271
206
156
126
112
109
96
80
73
85
104
126
143
171
197
224
254
279
293
302
315
334
349
363
380
385
383
389
400
411
415
429
442
455
469
481
492
498
499
489
481
475
480
486
493
499
504
511
513
514
520
525
527
521
515
506
504
507
502
501
518
508
503
501
494
501
518
526
529
533
536
532
530
532
546
555
551
543
542
545
547
542
545
544
541
534
537
548
550
543
531
523
523
526
528
526
529
538
542
541
540
534
530
534
540
542
544
550
555
557
555
553
553
553
555
557
557
557
553
551
560
564
562
557
554
560
566
569
562
555
550
547
539
532
533
541
552
560
560
564
571
571
569
570
564
554
545
544
552
562
569
572
569
565
565
563
566
571
580
586
592
598
602
604
604
597
587
585
581
580
581
584
590
598
599
598
590
589
587
590
592
596
598
599
593
589
590
600
611
608
610
620
629
631
624
615
602
600
610
612
615
608
602
602
597
600
605
606
598
597
584
567
559
564
567
568
570
567
563
561
566
573
577
583
582
582
571
551
536
536
536
532
524
519
522
525
520
507
495
500
502
504
504
504
512
527
526
515
513
504
489
476
465
457
447
441
436
438
445
441
427
423
422
412
408
405
406
403
404
404
413
422
423
418
414
407
405
398
394
392
384
383
381
387
396
402
399
390
389
388
387
384
382
377
375
375
377
381
383
381
383
386
383
375
367
369
375
386
396
394
391
392
397
394
389
388
386
389
394
396
398
399
393
381
375
381
383
381
391
403
408
401
394
393
402
411
417
415
409
408
408
403
407
411
414
419
427
441
443
440
432
422
420
421
424
425
419
418
425
431
428
431
432
437
440
440
430
423
430
441
437
429
426
429
433
434
436
435
446
457
464
463
467
477
473
471
473
469
458
448
449
446
449
452
455
449
439
424
422
418
419
429
438
449
456
457
463
466
471
476
484
495
503
506
506
498
492
490
493
495
500
496
493
486
483
477
476
473
465
458
453
461
476
476
473
484
492
495
496
501
503
502
501
492
482
473
478
486
491
493
492
497
499
502
497
488
480
469
455
454
454
456
456
460
459
461
473
480
483
479
476
481
491
501
495
483
479
490
500
496
486
475
473
472
469
468
467
458
461
467
469
477
478
479
473
472
471
469
467
470
475
479
487
494
494
490
492
504
505
504
504
504
504
495
484
478
479
479
481
484
481
482
482
487
493
493
489
486
480
477
475
477
478
480
491
501
506
507
502
491
487
492
497
495
493
495
499
508
510
498
488
480
473
471
470
472
477
483
491
493
482
478
480
473
466
461
464
466
463
462
465
468
469
470
472
481
492
489
489
495
502
511
511
506
497
497
499
507
514
512
503
494
487
492
501
494
489
500
509
513
516
515
513
508
511
502
489
473
459
451
457
465
471
472
472
475
476
483
499
497
491
490
503
516
527
528
524
522
521
523
530
545
552
551
541
534
528
534
540
546
547
540
528
520
520
525
525
520
521
528
539
541
534
526
518
512
510
518
518
517
512
509
510
512
508
509
506
494
476
454
441
443
452
464
468
474
483
481
473
473
468
470
473
463
467
465
468
475
470
460
448
446
450
453
455
461
473
473
463
457
455
454
456
459
458
457
455
452
446
438
433
432
433
441
453
458
452
445
433
435
446
446
446
470
492
492
486
473
467
463
462
466
476
481
484
482
473
469
467
469
468
464
465
467
470
469
469
476
479
485
488
481
469
460
455
453
460
470
464
453
453
466
476
487
494
494
490
475
465
461
466
470
484
496
513
528
537
542
546
559
576
607
638
666
691
723
761
795
827
854
884
905
914
916
927
922
907
894
893
882
871
858
828
799
751
682
603
533
463
382
304
237
178
123
93
74
62
55
60
74
87
103
114
126
143
171
200
229
258
289
310
321
332
327
338
363
383
386
392
397
405
412
415
427
449
465
484
494
501
502
502
504
507
498
493
493
492
491
499
506
507
515
518
518
507
497
495
497
495
495
491
498
504
506
508
521
541
540
527
521
517
507
498
495
495
502
515
524
525
530
537
534
534
529
523
518
512
509
517
524
535
543
543
548
546
549
551
549
550
559
558
562
565
563
557
562
565
568
569
571
573
576
565
559
554
557
572
575
565
556
554
541
528
534
548
554
557
556
553
558
557
557
559
560
558
552
546
552
561
575
577
577
579
577
572
562
562
554
551
562
568
568
571
579
572
551
544
557
554
549
551
566
570
569
567
574
602
626
633
635
639
629
620
609
600
599
594
590
593
600
609
612
609
613
616
613
612
616
611
608
609
618
614
617
618
621
632
638
634
628
621
614
616
619
618
606
592
586
585
588
581
580
584
573
567
567
569
576
584
587
581
570
568
563
559
554
542
533
537
539
527
513
510
514
526
532
529
532
530
536
533
523
509
494
478
476
473
467
462
453
446
446
444
440
439
439
450
458
461
464
468
460
446
432
425
424
427
436
439
432
438
437
428
421
409
400
397
397
395
396
393
392
396
401
397
390
388
390
401
402
399
382
368
359
356
357
354
361
358
360
359
353
355
357
361
362
369
370
363
359
361
362
373
380
384
381
389
405
417
428
425
413
405
384
373
369
374
384
392
404
414
418
418
416
411
410
425
437
437
430
423
414
407
409
414
420
416
412
410
419
436
439
435
427
420
412
405
406
406
395
392
403
404
405
406
417
433
445
458
460
455
452
456
462
468
478
475
465
462
455
452
461
469
464
463
466
467
466
468
467
468
464
459
454
453
459
461
460
453
456
460
465
471
471
462
464
469
477
481
476
473
471
467
462
464
472
474
481
480
480
491
494
496
495
500
496
475
457
449
448
454
456
452
453
463
473
476
472
473
479
484
496
501
499
494
496
496
494
485
478
490
499
497
497
491
487
479
474
463
454
454
460
464
479
483
482
471
464
455
455
472
457
460
470
476
476
466
465
469
474
492
497
495
490
482
472
462
456
460
468
481
495
503
509
512
510
507
502
485
464
456
454
434
432
435
436
445
450
452
451
458
473
488
510
515
507
502
497
496
503
502
499
487
478
473
476
479
478
470
460
460
473
485
497
497
496
499
498
496
484
469
470
468
463
461
458
459
458
463
480
496
504
495
487
496
497
498
500
509
505
496
489
485
488
494
495
496
499
499
495
496
494
501
494
486
476
471
470
477
490
496
495
488
480
488
505
523
530
537
560
578
588
586
577
568
558
543
530
529
536
539
542
548
540
534
532
529
529
511
489
485
496
503
499
499
498
484
475
467
466
469
466
469
471
474
479
477
469
468
474
486
490
477
466
470
467
463
452
458
472
479
481
483
483
485
487
492
490
488
488
483
481
474
465
458
454
455
454
465
473
483
490
497
491
482
472
471
475
480
476
469
460
458
462
458
453
456
465
471
471
472
473
476
470
467
460
462
469
466
468
467
460
452
449
452
446
452
461
462
472
477
472
484
501
504
498
498
506
507
502
489
480
479
475
486
486
483
482
484
486
484
480
469
460
451
441
431
421
427
442
451
455
464
480
499
511
515
517
532
548
568
585
607
644
675
697
726
761
798
828
853
875
888
897
908
906
905
904
893
887
877
859
836
800
745
668
588
516
430
340
250
164
88
44
31
35
34
38
48
61
62
70
101
128
140
167
192
209
235
256
280
304
323
341
366
387
393
400
403
402
403
405
416
424
442
464
479
483
491
499
504
509
510
511
510
511
515
526
538
539
516
503
512
513
510
509
510
510
510
506
508
522
538
550
552
553
550
549
552
550
544
542
545
547
552
555
544
532
520
517
516
517
518
533
544
554
555
556
558
560
560
564
559
551
545
549
554
566
584
589
574
549
536
534
539
545
551
546
546
554
555
555
556
551
547
548
549
550
553
554
553
559
564
567
564
559
555
560
565
564
565
564
566
567
570
575
574
565
559
556
552
544
535
533
543
554
567
577
574
572
576
579
581
579
578
575
576
582
588
589
598
600
602
591
577
562
550
550
565
586
604
612
618
622
625
623
620
614
608
607
611
616
615
610
601
599
598
591
597
604
601
600
597
589
597
600
596
594
593
604
617
622
618
617
611
606
601
597
587
581
583
585
589
591
585
577
569
569
567
568
565
556
549
545
540
542
547
549
542
539
535
539
549
548
538
530
524
521
511
504
512
520
514
495
482
483
486
487
479
475
481
483
468
452
442
437
432
436
443
446
449
446
433
426
426
429
427
420
408
399
395
400
402
396
390
391
397
401
400
399
409
408
398
387
378
369
372
385
386
385
384
370
352
349
349
348
352
350
345
347
358
367
369
377
376
369
359
350
353
360
367
376
376
377
381
385
388
388
386
387
396
397
403
411
424
426
414
396
390
393
396
406
415
416
413
412
415
411
408
411
405
400
402
400
403
415
429
436
434
430
428
425
428
426
417
408
410
412
423
437
439
447
446
435
439
439
422
414
415
412
419
426
438
449
470
488
489
482
481
475
473
477
484
480
480
484
484
475
467
462
465
462
451
444
443
449
460
455
453
455
456
457
460
462
468
471
475
481
496
515
524
516
510
507
501
488
480
467
467
474
472
463
463
467
481
490
490
482
472
464
462
473
481
481
484
488
488
488
479
473
468
469
472
469
448
443
454
466
465
459
459
461
470
480
480
485
486
485
485
488
490
491
492
489
486
492
496
496
488
481
477
470
465
470
474
472
466
462
468
480
488
491
492
498
503
496
497
504
505
504
501
490
481
476
476
477
486
496
492
487
490
493
491
480
469
469
471
471
465
458
454
460
472
483
492
487
481
479
482
488
493
492
486
487
494
496
489
485
490
495
498
499
492
482
478
477
471
468
473
479
490
502
509
509
512
507
497
496
495
491
485
482
481
479
490
494
496
493
486
492
490
487
490
502
508
510
499
487
485
485
493
499
517
527
529
536
535
533
536
542
547
546
540
540
540
543
540
542
541
542
541
543
543
549
555
553
545
539
541
542
540
530
521
512
508
500
496
496
494
480
471
463
460
469
482
489
495
496
498
497
493
482
479
479
472
469
470
474
477
479
480
489
501
505
503
495
492
486
481
484
474
463
456
457
462
463
465
470
473
477
480
472
463
461
462
459
455
457
465
471
475
478
479
481
482
476
473
472
470
472
472
469
458
451
444
435
444
453
455
468
482
485
477
475
477
476
477
482
480
476
478
479
480
487
487
485
486
483
481
476
472
474
475
475
474
466
460
462
472
482
484
488
489
486
486
489
485
474
475
486
492
495
502
509
520
538
566
582
601
618
633
656
676
695
718
742
764
792
830
860
883
906
921
911
900
893
885
885
897
901
889
860
810
742
660
574
491
418
348
280
213
151
122
109
99
89
87
92
98
109
115
124
147
189
225
249
265
279
298
322
339
348
357
367
383
395
404
421
437
445
450
459
464
465
459
455
461
479
492
500
509
511
507
507
511
516
514
510
499
493
498
500
501
503
509
516
532
545
542
533
536
545
546
542
534
524
524
526
524
520
513
507
507
521
536
546
546
545
544
538
532
530
532
536
549
556
557
550
539
537
522
514
514
521
523
531
539
540
549
562
572
579
579
573
563
558
560
573
575
572
564
558
550
546
544
539
543
549
553
546
543
543
540
539
542
547
547
558
571
575
580
579
579
572
572
565
553
554
553
556
560
560
562
560
567
563
556
558
568
563
551
541
540
540
545
551
566
581
594
603
607
595
585
590
597
597
592
592
600
608
615
623
625
618
609
603
606
610
614
609
598
592
592
598
602
608
616
617
622
617
612
616
617
610
597
595
596
587
582
583
585
583
582
591
599
605
614
621
624
618
608
602
597
586
579
569
580
581
571
564
561
560
557
551
551
547
537
530
531
526
518
510
507
507
508
499
483
482
487
472
457
454
455
457
463
469
477
482
485
478
479
480
482
487
485
474
466
457
455
448
438
432
426
417
412
411
411
409
403
402
402
402
403
400
401
411
408
403
402
408
408
407
410
416
416
414
414
411
410
400
394
388
376
367
361
360
358
364
367
366
363
362
364
372
387
401
400
390
378
360
341
333
342
359
389
408
409
401
394
386
381
385
386
383
385
386
394
404
419
421
419
423
426
421
420
421
413
407
419
422
418
403
388
390
393
399
401
404
417
424
417
410
414
426
433
444
448
445
449
450
445
442
443
447
445
440
443
441
434
429
429
429
430
438
456
472
478
473
459
451
445
448
457
465
471
468
469
466
460
459
458
459
460
463
459
458
466
470
477
471
459
451
444
451
467
480
477
468
469
476
473
476
481
485
496
505
505
505
505
491
479
478
482
489
494
493
485
474
472
478
480
477
472
468
464
467
464
458
460
467
476
476
470
470
469
467
471
468
468
468
470
475
481
493
491
486
489
496
505
509
500
498
497
498
494
498
499
487
479
474
473
465
458
461
467
473
479
478
478
478
478
477
480
485
494
498
490
487
487
485
481
486
492
487
479
478
480
483
490
496
498
494
491
490
485
482
478
469
468
471
485
490
491
491
482
478
472
474
477
473
472
474
480
481
484
488
494
495
493
494
500
504
508
518
521
519
507
501
499
490
484
476
459
444
444
447
451
457
470
483
493
494
492
494
495
494
495
492
488
485
486
484
487
491
494
495
486
484
479
478
475
470
473
482
487
490
487
485
489
484
486
491
499
503
506
502
500
505
503
502
497
493
495
483
465
459
457
464
474
485
495
502
507
516
534
534
523
516
520
520
517
516
524
532
540
544
546
549
551
555
557
552
549
546
540
540
540
537
538
540
545
543
543
549
548
541
529
519
522
518
527
530
526
521
512
496
485
476
469
463
458
456
457
469
475
467
468
474
473
469
470
469
466
471
475
475
475
476
476
470
467
464
459
463
471
479
482
483
481
476
474
471
476
472
462
452
455
463
467
463
466
469
479
491
486
488
490
496
503
482
463
462
467
479
485
488
479
467
463
463
466
465
455
447
444
444
442
453
463
465
467
469
470
467
465
464
464
475
477
469
468
463
459
467
472
485
491
492
491
487
482
472
466
473
476
489
499
505
507
506
496
484
468
449
441
438
439
441
448
456
464
478
497
514
532
551
572
602
631
660
686
714
742
763
785
805
841
874
894
907
932
953
954
949
948
936
921
921
917
895
856
812
754
670
575
489
409
333
258
186
136
107
94
85
68
60
66
84
104
116
126
146
169
191
218
247
272
292
308
319
326
344
360
364
378
392
396
404
421
441
457
470
480
486
492
495
498
496
495
504
515
518
511
501
496
492
492
493
497
503
505
502
503
511
518
513
510
509
515
531
545
551
553
556
554
550
554
545
523
509
509
521
528
538
541
534
529
529
529
529
528
522
516
511
516
530
543
544
544
540
537
544
553
556
552
548
551
548
539
531
523
525
528
531
539
549
550
542
536
535
541
540
534
537
550
550
540
539
544
550
550
547
552
543
531
537
550
559
566
571
571
572
580
590
597
591
582
577
577
583
580
573
569
571
570
569
569
568
561
555
554
561
562
566
577
587
590
585
586
585
577
567
572
590
600
602
598
594
593
586
585
589
595
601
605
602
605
594
580
579
586
598
603
614
614
610
613
619
622
627
620
602
598
602
612
620
625
627
612
597
590
600
608
605
600
604
604
586
576
582
581
576
565
559
561
559
556
562
563
559
552
554
553
550
552
554
553
547
540
536
538
541
539
539
532
521
510
502
496
492
496
495
482
471
470
473
472
469
475
474
476
482
479
471
463
463
460
458
462
454
440
436
429
422
412
407
406
412
413
408
411
418
416
405
397
394
396
388
382
378
379
385
391
401
399
394
395
391
392
394
399
396
386
379
383
388
389
390
379
367
356
360
367
369
364
367
374
377
374
370
379
378
381
378
363
367
391
405
400
404
410
409
400
398
393
383
380
384
391
398
403
405
405
408
416
426
428
419
411
407
402
400
411
429
430
425
425
419
419
427
435
429
426
424
425
425
420
410
406
411
415
428
433
433
437
442
443
451
455
454
455
459
461
466
463
459
457
452
449
444
443
435
438
452
459
463
460
455
449
461
474
469
464
465
454
449
461
485
498
499
492
478
469
461
455
458
466
472
479
483
494
504
506
493
481
486
490
487
477
465
460
469
474
486
484
469
458
453
455
461
470
476
475
475
469
467
470
476
475
458
447
455
472
479
479
480
491
491
488
490
494
489
482
473
478
479
492
499
505
502
493
488
488
484
470
455
459
461
454
447
461
485
491
503
501
490
485
490
501
506
506
499
486
481
484
483
493
499
499
484
463
447
446
448
458
487
501
502
498
495
493
482
475
472
474
472
462
456
455
450
457
467
472
476
480
478
485
495
502
495
490
483
484
484
487
493
495
489
479
470
474
484
486
493
497
494
493
494
497
498
504
492
490
485
470
469
473
478
480
480
478
464
457
455
458
461
469
482
487
473
468
466
469
475
483
493
503
506
493
482
481
491
488
491
495
497
490
484
476
471
467
470
480
489
491
496
496
488
484
479
482
496
502
500
502
502
505
506
502
498
495
491
487
486
488
502
511
506
491
489
507
505
499
503
504
502
503
511
516
517
523
529
532
531
539
551
545
536
533
534
538
538
541
548
554
563
569
559
538
519
515
513
516
514
516
521
519
515
512
513
519
515
512
509
504
493
478
471
476
480
480
476
479
485
479
466
453
447
451
454
457
457
464
463
461
461
458
464
460
453
452
453
449
448
461
468
479
483
480
479
477
478
472
470
463
464
462
454
453
452
460
467
467
457
459
467
467
466
483
496
496
485
471
464
462
466
461
461
469
480
480
478
481
486
483
481
488
491
498
488
471
463
465
466
472
471
465
464
467
475
482
487
483
485
489
495
492
482
479
473
469
461
460
463
465
470
473
471
467
467
474
478
481
489
503
510
513
529
546
559
579
595
607
631
650
662
674
685
708
741
772
802
834
867
896
911
921
906
902
893
899
913
915
918
912
879
822
739
643
574
507
410
311
227
150
80
40
38
48
44
38
50
71
93
109
116
130
159
185
203
227
255
272
282
301
322
337
348
365
385
402
416
423
425
441
464
477
483
484
486
491
497
499
501
502
506
511
520
533
529
517
517
518
514
517
514
512
512
521
528
531
530
528
524
518
514
514
515
517
516
522
523
516
507
515
532
542
549
559
555
559
562
559
544
535
532
528
526
534
542
543
544
537
541
548
548
547
548
546
544
550
552
540
529
519
514
515
523
537
546
552
555
555
555
561
564
561
556
556
556
561
569
565
563
562
558
563
565
566
562
554
556
569
575
581
586
583
576
556
547
546
542
536
530
537
542
551
559
558
549
557
569
566
562
570
577
579
584
589
595
592
590
585
581
587
590
589
584
577
582
596
602
603
602
603
600
596
596
601
600
604
608
609
600
605
613
613
608
603
601
600
606
612
616
616
617
615
612
611
612
608
609
610
614
617
618
609
597
594
598
590
593
594
594
603
600
595
582
567
554
547
545
550
561
567
570
576
579
570
560
563
566
564
556
556
553
545
541
537
533
528
528
523
507
497
496
492
482
483
474
471
467
465
464
458
459
450
446
452
464
467
454
436
420
409
412
422
424
416
416
422
425
428
424
419
406
398
394
398
409
413
410
408
409
408
406
411
411
403
405
402
386
368
351
350
360
366
373
374
373
374
370
361
367
385
391
398
394
381
376
368
363
367
367
370
372
369
374
376
373
371
364
365
372
385
404
406
406
405
408
409
406
405
412
421
421
426
422
409
408
412
413
412
411
407
406
395
390
402
429
440
424
419
419
415
418
423
417
419
423
431
429
426
428
426
422
421
423
431
433
436
436
441
450
457
469
471
473
469
472
474
473
470
467
462
455
456
469
467
460
453
451
458
466
467
459
464
468
471
470
479
485
481
482
488
481
475
465
456
456
462
471
484
490
491
491
485
475
466
459
458
463
473
483
481
477
474
478
475
477
478
478
480
481
475
475
480
476
472
471
470
475
484
487
487
477
477
485
493
488
484
481
479
477
480
482
475
472
472
467
464
461
466
474
489
492
485
480
478
476
477
471
474
480
493
497
487
478
483
494
500
500
491
483
474
463
461
468
481
480
472
467
476
483
481
481
480
477
473
478
485
492
499
492
475
462
457
444
441
442
446
459
472
488
485
471
471
477
487
494
497
506
506
498
483
476
471
471
468
464
465
476
480
472
468
465
471
479
484
497
502
502
499
495
500
506
506
505
502
500
496
485
483
484
487
481
483
489
487
480
476
479
481
480
478
477
482
490
488
497
519
534
538
537
544
550
542
539
541
544
544
542
543
541
535
535
536
543
540
535
533
541
543
546
541
532
525
523
517
524
536
526
502
479
468
470
477
488
492
487
481
476
475
480
488
495
492
495
491
472
462
459
454
455
456
453
458
465
468
462
465
475
478
487
499
508
499
485
473
461
453
458
468
470
474
482
490
496
491
481
473
466
458
453
459
470
473
468
462
458
463
459
460
456
463
468
465
462
451
444
445
450
463
472
476
475
471
466
460
460
463
460
453
456
459
465
471
471
485
497
498
491
480
466
467
470
471
473
475
474
464
459
456
458
465
469
470
479
495
500
496
489
480
479
482
481
487
486
488
491
488
499
520
547
564
574
580
588
602
633
670
699
733
767
792
814
841
873
903
910
912
902
889
878
864
847
832
822
812
791
747
674
595
512
421
336
251
166
86
41
24
20
23
30
35
46
67
85
96
112
134
155
182
205
224
252
284
313
334
357
367
375
382
398
418
430
431
432
437
447
457
471
482
489
491
490
495
499
503
510
515
524
533
530
523
522
530
527
512
509
515
519
523
522
526
525
531
539
540
541
536
534
537
537
539
549
556
551
551
555
558
551
539
529
528
533
535
528
524
524
531
535
531
540
550
547
547
548
541
539
537
533
538
538
540
549
548
542
539
542
542
540
546
560
569
570
564
567
570
563
555
563
567
570
574
578
580
576
578
567
561
555
544
546
552
553
554
548
540
541
553
559
559
560
562
562
564
565
575
585
587
595
599
595
589
586
590
597
597
587
585
585
586
588
592
593
596
596
595
588
570
554
541
544
561
576
601
617
626
632
630
617
606
600
600
607
610
611
611
609
606
609
611
604
593
586
586
583
580
580
596
605
620
627
628
625
625
618
603
602
613
621
620
621
624
619
605
591
580
566
561
564
559
555
557
556
558
561
560
571
575
572
566
558
547
537
534
533
538
540
540
539
534
522
511
500
494
491
494
501
509
514
511
496
484
482
483
473
460
447
445
447
448
445
436
438
437
432
435
429
417
416
416
413
412
410
404
396
397
400
402
402
403
409
412
408
400
385
370
363
368
372
373
382
387
386
388
394
396
389
389
380
377
380
372
366
365
372
379
382
379
377
374
376
375
379
380
384
385
387
390
392
401
402
401
395
388
387
387
387
392
397
403
402
403
401
392
386
388
392
399
400
405
410
409
403
410
422
432
447
449
442
432
423
417
416
420
424
440
450
451
451
451
455
451
446
440
434
433
435
438
433
423
413
414
431
434
433
437
448
451
453
452
454
459
461
465
471
476
473
477
483
482
475
473
480
473
468
466
472
483
490
493
490
481
475
465
461
467
475
470
467
475
469
456
445
445
460
478
478
479
485
487
491
484
467
455
449
453
458
467
485
495
501
507
503
497
485
484
491
499
502
501
503
507
502
492
491
499
494
482
475
468
455
454
463
465
465
465
474
490
501
488
476
470
472
469
476
487
496
501
497
486
475
474
484
486
483
480
478
483
494
481
479
484
490
490
499
504
499
496
494
492
484
472
458
449
450
453
457
465
472
469
463
468
472
473
467
469
465
457
451
455
459
460
464
463
475
490
500
494
492
495
488
477
475
472
472
472
470
472
470
466
460
470
486
498
507
509
499
495
494
486
480
474
480
485
486
485
482
484
490
501
509
513
511
506
500
496
499
499
496
484
472
471
478
480
481
475
468
472
490
503
507
511
500
493
500
509
513
512
516
525
537
538
543
541
541
548
545
532
518
511
509
518
531
541
550
555
556
552
550
533
514
510
506
508
509
508
513
522
527
524
513
508
503
498
498
495
492
496
498
499
483
457
443
432
432
429
434
456
475
482
478
473
474
469
459
458
460
472
474
481
480
476
478
478
473
473
475
480
469
461
462
471
475
477
472
464
464
460
466
478
480
468
463
463
465
467
471
468
465
464
464
461
460
459
464
469
471
460
453
460
460
458
456
463
472
478
478
477
475
473
475
476
482
485
479
472
469
473
467
470
481
483
478
476
480
479
479
485
484
482
476
469
462
454
460
478
488
484
476
473
479
479
477
482
480
480
485
496
506
520
539
562
595
627
660
683
701
719
742
772
806
842
886
910
929
928
918
916
912
894
873
870
869
853
822
787
739
657
578
509
443
379
317
254
190
145
107
87
76
71
69
82
111
135
157
186
204
222
240
264
287
310
328
340
348
359
381
406
422
424
422
419
423
427
432
435
442
457
467
473
481
485
486
485
489
487
481
471
478
488
485
488
498
507
513
529
537
538
527
517
519
521
518
514
516
520
527
527
522
510
499
503
511
525
529
530
528
532
525
519
523
535
540
542
539
537
533
535
540
540
542
545
546
540
537
540
540
541
548
547
549
552
547
542
545
549
556
556
551
541
534
528
529
532
531
534
541
552
558
561
561
562
555
551
553
556
558
553
541
531
526
524
527
538
545
547
547
539
536
543
560
565
567
561
555
550
546
552
560
574
583
574
561
555
562
564
572
579
575
572
577
578
578
577
579
579
588
587
574
560
556
558
570
594
609
617
621
630
637
634
630
619
605
595
591
593
598
605
605
600
603
605
616
623
616
607
599
593
599
602
602
600
587
580
575
570
571
573
577
579
579
586
587
586
584
585
590
590
585
577
573
567
563
559
560
554
547
541
535
527
518
512
513
507
498
507
528
545
550
532
514
501
493
494
501
510
519
521
502
481
469
469
469
464
462
465
469
465
457
460
458
453
447
434
432
434
430
421
416
414
422
420
421
422
415
407
398
387
383
386
387
392
399
403
403
402
405
403
395
387
379
376
373
366
360
352
352
366
380
388
387
391
397
394
391
386
375
365
366
376
388
389
383
380
383
380
375
376
382
389
395
393
389
388
388
393
400
400
402
405
412
416
414
415
419
428
429
426
422
412
404
395
398
402
407
411
410
408
403
396
392
397
403
405
418
433
441
441
443
439
436
431
424
417
413
416
423
428
433
440
449
453
448
443
441
439
448
452
454
457
453
444
437
445
453
451
458
469
469
457
443
444
457
467
467
463
461
463
457
455
463
470
470
470
469
466
465
469
475
485
487
488
497
499
494
485
486
481
477
474
472
479
485
490
494
488
477
466
460
463
462
458
455
456
458
468
484
488
491
497
498
495
486
484
477
471
472
477
485
487
492
491
487
482
493
488
477
474
472
470
468
461
457
460
462
475
492
498
503
509
513
513
506
499
490
481
479
477
478
483
488
495
492
494
498
498
490
480
475
474
469
461
460
461
466
465
466
468
480
493
498
500
505
510
504
501
499
493
489
489
483
473
467
463
462
467
476
483
491
495
497
488
475
463
461
478
490
496
506
506
500
500
504
505
504
501
499
501
500
496
490
481
471
462
456
454
454
465
474
480
478
478
474
480
498
511
510
505
502
499
490
483
485
489
493
495
497
496
492
492
489
494
496
493
495
492
491
491
497
498
499
506
508
504
500
503
496
496
501
502
498
487
479
475
472
469
475
482
494
503
503
508
516
531
537
545
549
550
551
554
552
545
539
536
536
540
542
544
549
551
547
533
526
535
543
534
533
538
539
537
541
543
540
538
531
522
513
508
509
504
507
503
501
502
501
492
484
479
478
478
484
490
485
487
487
486
491
495
494
503
512
515
518
529
538
545
557
557
550
530
506
465
423
402
388
383
392
403
409
414
416
418
419
422
438
453
457
470
486
488
481
474
468
462
458
452
440
422
416
420
434
445
443
439
443
451
451
456
455
447
440
435
434
437
445
454
466
477
480
478
468
460
456
455
453
458
472
480
490
490
483
482
485
485
490
498
492
485
481
483
488
493
494
488
488
486
485
484
485
486
477
474
481
491
508
514
524
543
556
571
589
610
632
658
684
707
731
758
786
814
844
875
891
895
894
908
918
917
920
921
924
922
907
879
841
792
712
624
539
457
384
302
229
168
119
85
66
57
58
73
92
113
128
139
160
179
206
239
255
264
282
309
338
357
371
380
378
377
383
389
386
396
408
419
438
451
461
468
477
481
485
490
492
495
497
498
508
510
504
501
502
509
507
505
509
509
509
512
517
526
523
519
524
532
535
534
525
518
515
511
518
523
531
538
538
533
529
531
528
532
532
528
524
525
529
530
536
538
541
543
542
543
539
536
541
542
537
533
529
535
544
554
553
553
551
551
555
562
567
571
570
564
549
541
547
552
551
553
559
551
545
533
534
538
541
542
547
543
541
545
538
539
546
546
542
542
545
548
551
557
564
563
556
547
545
552
562
562
563
565
568
566
560
553
551
553
554
549
544
546
552
558
563
574
590
608
622
625
630
632
627
612
589
573
580
592
598
608
613
618
616
612
612
617
621
619
614
605
606
610
604
600
601
603
601
599
602
601
592
583
582
588
597
604
596
588
591
599
605
601
591
591
590
585
573
570
569
566
568
567
569
566
564
562
559
556
555
549
539
533
536
540
541
527
521
515
515
511
502
500
503
506
506
506
506
499
487
475
464
470
483
480
480
484
479
476
471
468
464
467
460
449
444
434
433
435
434
434
432
426
424
424
422
416
408
401
402
405
412
410
407
401
395
398
396
388
379
384
384
381
376
370
369
369
366
362
355
354
358
360
361
367
376
381
392
392
384
385
384
390
393
398
398
389
378
375
373
384
392
391
395
393
388
391
389
386
386
386
385
383
384
390
397
398
391
387
384
385
400
413
418
409
398
395
403
414
416
434
450
460
463
455
449
447
448
454
453
456
451
442
438
439
443
447
447
436
430
424
426
431
429
423
424
427
425
425
422
422
428
435
439
436
443
452
462
463
454
451
458
460
457
460
462
462
467
475
474
473
473
474
478
482
484
485
480
474
470
465
465
467
468
467
469
472
474
474
472
467
465
460
456
459
475
485
497
511
509
502
494
491
484
477
472
485
494
500
502
498
497
500
493
487
489
498
499
496
498
497
494
491
484
481
476
464
459
458
458
468
476
480
478
473
476
467
467
476
483
484
478
477
483
482
479
479
480
482
479
479
483
487
489
477
464
477
484
489
483
477
482
491
487
485
482
479
474
474
474
472
482
489
494
501
508
511
514
516
514
512
506
497
486
492
501
495
484
470
461
457
454
458
470
477
480
487
485
483
488
482
480
480
478
479
479
482
490
494
483
480
489
490
488
480
482
487
494
496
504
517
516
502
496
495
489
476
473
469
470
471
469
474
479
479
476
480
492
501
504
502
497
489
493
494
481
473
472
468
468
475
489
498
507
519
527
526
519
515
511
508
503
499
501
499
487
476
472
471
475
475
485
494
502
513
514
511
502
494
484
484
490
497
497
497
502
505
506
510
518
514
513
510
498
505
522
531
539
545
546
541
537
544
553
561
560
560
563
562
556
555
547
536
529
526
526
533
533
528
523
512
506
503
502
496
484
472
469
470
468
473
478
484
491
491
486
485
484
482
478
473
470
467
466
472
484
489
481
467
459
461
464
467
467
475
475
469
470
469
462
467
473
476
474
478
477
468
461
460
467
477
490
492
482
470
464
468
472
477
488
495
495
491
485
485
487
476
471
468
473
468
451
444
441
448
459
458
442
432
435
448
459
464
466
470
464
471
475
480
484
478
468
467
469
472
470
470
470
481
484
485
502
511
513
512
494
482
464
454
458
465
473
479
477
470
468
471
473
484
492
499
503
518
528
540
551
568
595
625
649
673
704
743
784
818
851
881
907
924
928
928
930
933
932
908
892
893
892
882
858
819
760
668
572
483
395
329
263
194
129
90
69
47
31
19
23
43
83
124
154
175
201
221
238
259
287
312
330
346
358
372
376
383
389
394
405
422
426
432
449
460
462
465
469
471
479
489
503
509
509
503
497
496
496
503
514
517
517
514
514
525
528
526
520
514
517
523
524
529
528
531
535
523
516
515
509
516
537
554
558
553
553
550
548
543
548
557
553
546
536
527
509
503
503
506
511
507
505
503
502
507
521
538
547
548
549
554
549
546
557
571
576
576
579
576
570
568
562
568
572
573
570
563
552
547
556
558
564
572
560
547
543
543
546
542
544
554
550
547
553
567
578
572
564
562
559
574
583
579
580
581
585
586
588
593
599
593
577
569
570
569
566
565
567
569
564
557
553
563
572
575
578
576
569
560
557
557
561
566
579
594
613
613
608
613
618
624
628
640
644
642
637
621
605
604
594
589
594
610
609
608
609
610
620
620
615
611
615
615
615
612
613
607
594
578
571
577
586
593
602
609
610
609
603
586
580
573
559
550
543
537
541
540
550
565
574
565
549
546
549
548
546
539
539
537
538
543
534
530
517
499
485
481
477
472
462
460
459
455
454
455
449
447
442
437
438
443
445
450
454
454
455
443
432
428
422
417
412
407
409
406
398
392
385
385
384
386
382
375
379
390
396
394
387
379
367
356
352
358
368
376
383
393
390
385
380
379
378
379
380
381
377
384
384
381
377
382
393
401
409
415
422
421
405
390
383
371
371
375
387
392
399
415
422
420
411
405
408
404
403
402
398
396
390
395
412
412
406
410
410
413
416
420
426
428
433
438
443
435
426
427
428
423
418
414
416
420
434
449
460
466
459
460
471
471
459
453
449
448
455
457
451
446
448
447
443
445
449
449
455
453
443
448
454
464
473
472
475
469
469
463
468
462
451
453
459
467
472
476
479
491
495
497
502
497
492
493
499
506
504
500
493
489
479
472
472
479
484
482
481
477
465
464
483
493
499
496
488
482
474
470
465
455
461
470
480
491
499
506
500
499
500
500
497
491
488
489
485
475
470
469
466
461
461
463
461
462
469
477
476
465
452
458
462
466
481
492
494
499
499
492
488
488
484
486
482
472
478
485
478
473
482
487
489
488
493
497
494
493
487
488
492
492
493
480
470
471
469
469
478
487
495
503
503
502
498
482
477
484
485
481
474
467
468
475
477
475
472
473
476
490
488
485
482
475
464
464
474
470
470
473
466
468
472
466
468
479
497
500
496
496
499
498
497
490
492
496
498
508
503
498
497
497
496
495
482
473
469
472
473
481
498
509
516
516
510
508
510
505
503
500
505
513
510
499
489
492
499
503
506
503
485
471
475
479
489
488
491
499
505
510
514
520
525
531
535
532
537
537
533
530
525
521
520
522
524
529
547
562
567
554
541
540
535
520
514
520
530
537
533
530
532
536
540
531
519
508
502
499
491
484
481
476
462
457
460
466
477
479
469
466
468
464
460
464
466
467
465
461
466
476
480
484
485
478
471
475
469
468
468
469
478
479
484
476
473
476
483
492
493
485
478
476
470
478
491
493
488
483
474
474
481
481
478
474
476
477
480
473
474
474
469
463
456
459
460
465
473
474
480
487
475
461
455
462
468
471
474
469
464
462
459
464
469
470
468
463
461
462
468
472
476
485
490
481
469
462
464
469
461
451
448
451
451
438
431
442
472
500
515
524
520
517
511
503
504
511
532
549
567
590
609
629
653
682
705
727
760
796
831
857
870
887
909
915
904
903
909
909
906
901
881
862
836
786
722
648
574
495
419
334
248
148
69
34
25
26
23
21
30
51
66
81
105
129
151
179
206
227
255
281
297
309
326
347
356
354
351
357
372
386
410
433
450
459
462
461
469
485
495
505
516
526
535
541
542
536
530
522
520
516
511
515
519
523
530
532
530
535
541
545
540
533
538
539
535
533
534
540
546
552
559
555
547
540
543
542
544
548
548
548
541
536
538
545
548
536
528
531
537
536
538
541
544
542
550
553
555
563
565
564
557
544
534
533
537
545
553
556
555
556
552
550
549
540
532
535
539
538
533
531
530
531
543
562
577
580
581
579
583
583
580
577
586
588
587
578
572
577
580
580
576
570
571
572
579
574
570
566
565
561
566
567
572
584
595
595
592
587
574
568
565
567
569
571
574
584
595
597
596
596
595
590
586
586
590
586
588
589
587
586
595
597
593
608
616
623
619
612
604
600
603
608
623
634
636
624
629
629
618
603
603
603
601
604
605
604
603
599
586
581
584
582
577
574
565
564
570
571
569
571
563
558
558
562
561
558
559
564
563
564
559
549
542
546
550
544
526
512
506
495
487
488
489
494
499
505
504
501
500
496
489
489
484
481
468
453
441
432
440
455
464
458
457
454
448
443
441
441
440
432
424
415
409
413
411
411
413
415
415
405
386
378
375
382
390
398
407
402
400
398
395
387
384
379
376
383
387
380
374
367
366
368
378
391
398
405
400
396
402
408
411
412
411
402
387
390
403
404
395
384
379
381
382
392
410
412
407
398
396
390
388
394
407
422
424
424
425
425
425
418
416
423
429
433
434
427
422
427
434
440
448
456
456
451
442
422
418
420
426
429
436
438
446
448
446
449
454
456
454
455
459
461
465
475
483
480
472
465
467
477
491
496
489
478
470
470
474
468
460
453
449
447
444
448
452
466
478
494
500
494
487
491
494
494
493
487
477
474
474
475
479
489
498
509
505
488
480
484
489
484
481
483
482
480
481
484
486
485
482
480
475
479
485
497
504
507
494
480
476
480
476
475
482
486
483
482
483
483
482
481
476
475
479
481
478
477
477
475
476
471
467
476
486
486
479
475
469
462
462
465
474
480
483
488
482
494
506
506
502
495
499
500
504
497
492
487
484
478
479
482
483
485
490
489
480
475
476
476
483
495
497
495
495
496
491
492
491
490
490
493
492
480
480
482
477
478
476
466
462
469
479
487
483
477
476
478
476
466
468
478
483
489
487
488
493
492
487
485
492
501
509
511
508
504
509
503
495
481
468
465
473
476
480
480
474
480
482
480
476
481
482
479
471
471
476
479
492
514
522
519
519
518
511
512
506
497
497
499
495
491
487
486
480
485
494
493
489
489
490
488
486
486
483
484
487
489
495
498
501
504
512
515
513
508
503
498
497
505
507
504
503
508
513
517
522
523
520
527
537
546
543
536
541
542
545
549
543
544
549
556
560
572
575
568
554
539
534
528
523
522
524
520
516
512
512
511
510
508
509
510
512
513
507
509
509
509
505
495
486
475
469
468
469
470
469
464
459
451
446
440
449
463
477
482
474
460
456
453
448
448
444
445
451
460
457
458
466
465
464
464
461
459
464
469
468
466
476
482
473
459
458
459
457
462
470
474
478
486
491
492
489
488
484
464
458
465
465
464
461
461
461
458
457
461
468
475
477
475
483
496
492
489
487
477
466
465
466
468
467
464
459
454
445
447
459
468
478
482
480
480
481
485
492
496
499
496
495
480
462
453
454
461
475
484
481
476
470
466
487
505
518
529
544
553
570
602
639
675
704
735
767
798
829
861
887
901
912
916
920
919
919
915
913
917
918
911
890
854
806
735
656
563
463
380
298
228
173
133
113
100
84
72
69
75
84
105
126
152
179
205
233
256
276
300
323
337
349
362
371
378
383
389
392
396
396
408
422
436
447
449
455
478
492
492
496
502
502
500
499
496
496
504
512
516
517
511
508
506
503
503
505
505
504
509
514
512
515
519
516
516
517
515
517
515
519
523
519
530
545
547
542
544
541
526
514
512
520
525
530
537
547
551
548
541
533
534
538
537
540
537
534
541
546
544
547
542
544
550
559
562
569
571
564
557
559
556
554
554
548
543
546
548
544
544
546
541
540
543
546
549
555
553
552
558
560
556
551
551
559
574
577
574
564
561
557
554
565
570
564
552
548
548
545
551
551
546
541
540
544
556
570
587
602
608
603
594
586
584
596
609
620
617
613
617
630
632
624
614
609
607
605
609
609
602
600
595
596
594
599
598
594
592
596
612
623
621
614
597
582
574
568
576
594
599
600
599
597
588
586
583
579
578
574
574
572
569
564
570
572
572
575
580
582
572
560
566
572
576
574
574
570
563
565
566
559
552
541
530
518
499
482
480
488
498
507
509
512
512
508
499
487
486
495
499
497
491
477
463
452
441
432
435
439
451
453
450
453
440
431
425
422
414
413
416
423
422
414
407
405
397
384
374
375
376
382
398
400
396
401
405
411
415
416
422
422
410
399
390
381
375
378
377
381
385
390
388
382
375
376
373
379
390
403
410
407
395
390
393
388
378
380
385
389
388
389
390
389
382
377
376
380
387
388
384
384
393
405
415
415
408
410
413
416
423
427
424
424
426
423
418
419
420
424
426
425
420
418
415
407
407
411
415
426
432
434
436
437
437
444
451
456
457
447
435
436
441
440
437
436
443
448
451
457
461
460
461
457
456
458
462
471
480
482
479
479
471
462
458
461
466
467
471
468
464
459
461
461
451
448
450
455
464
476
475
472
480
492
492
494
489
482
481
480
477
474
468
458
447
446
452
465
473
478
484
488
488
479
471
467
458
457
465
469
472
484
498
503
498
486
474
473
487
495
502
503
498
500
500
506
500
492
496
502
503
498
491
480
472
475
474
471
474
470
465
468
469
474
477
483
492
487
479
485
497
505
506
508
511
509
507
501
498
497
491
484
475
464
454
449
454
462
475
481
481
486
487
484
482
486
491
497
500
488
488
494
481
467
466
464
457
453
456
462
465
471
482
490
500
508
516
519
520
512
503
504
499
490
478
474
469
475
484
483
474
475
477
476
477
472
472
476
471
464
468
469
473
473
478
480
477
471
469
478
493
501
509
510
509
507
504
498
499
507
508
505
501
499
499
500
495
488
483
488
491
496
501
496
490
484
485
483
489
500
515
520
514
495
469
454
453
449
445
453
462
475
484
482
482
484
492
492
501
504
503
501
499
497
504
515
514
506
495
483
481
484
480
469
473
481
477
464
459
464
471
476
483
490
500
507
515
514
515
511
507
510
513
511
510
504
498
494
486
480
479
485
495
505
516
505
495
489
485
496
513
528
531
525
519
522
526
534
534
534
539
554
554
546
544
540
541
542
545
544
541
537
526
517
519
524
536
548
553
553
554
550
542
530
525
519
513
511
503
495
493
490
491
489
481
481
472
446
436
455
479
487
492
493
486
474
462
457
462
474
486
494
497
494
487
476
473
469
464
463
465
466
465
466
473
470
465
459
463
464
466
467
470
468
468
467
473
477
478
489
493
485
480
482
479
468
458
458
462
464
465
471
474
471
469
466
463
469
477
485
492
488
477
467
462
459
459
459
459
464
463
466
468
471
471
471
465
462
466
473
473
470
470
475
477
483
484
482
482
477
471
470
471
474
481
483
490
492
486
484
481
473
470
466
459
465
477
489
505
517
530
542
557
569
582
596
621
654
672
699
726
755
786
812
846
871
884
902
915
937
952
945
927
915
918
923
914
884
842
787
716
636
550
468
387
306
234
167
122
98
82
74
68
72
85
102
116
140
161
175
192
218
252
270
285
307
322
336
358
368
376
388
386
381
391
401
410
428
447
461
471
475
477
482
483
493
504
508
508
499
496
494
499
503
506
505
511
521
528
526
522
520
526
537
551
558
555
545
535
533
529
526
523
524
521
516
516
516
524
535
541
541
534
538
538
543
550
549
546
546
541
540
547
550
549
543
543
543
542
542
547
550
546
548
545
528
521
523
535
535
523
512
522
535
540
542
547
553
556
556
564
560
541
530
531
538
543
541
542
547
563
576
574
567
559
553
546
535
535
539
546
546
548
552
547
549
563
569
568
574
580
575
573
575
578
576
576
576
578
574
571
573
576
567
561
571
584
589
589
583
579
581
584
588
594
594
593
592
586
583
586
593
602
601
593
587
586
590
594
601
607
609
608
601
600
603
614
616
613
609
601
596
597
600
600
600
594
590
578
566
563
568
579
591
600
609
621
614
597
583
581
583
580
582
580
575
577
576
575
572
569
556
548
543
540
539
537
542
543
543
536
528
529
523
522
516
511
508
507
500
490
477
471
470
475
481
480
476
486
494
495
487
477
476
471
456
441
442
437
431
430
424
419
404
394
390
394
400
404
413
403
387
375
370
372
384
399
417
431
408
388
386
384
380
392
399
399
390
378
371
365
361
361
370
390
403
403
405
393
379
374
374
383
385
381
379
386
392
391
388
387
387
384
391
402
403
399
397
397
397
401
391
381
375
381
386
390
393
394
398
400
397
397
397
408
420
428
440
444
442
442
439
429
425
417
415
415
420
422
415
411
409
412
420
430
435
437
437
443
443
443
443
441
440
439
435
432
432
444
458
463
452
450
464
474
479
480
480
473
467
466
462
458
455
449
442
445
449
457
462
461
459
457
454
463
474
480
484
484
477
480
482
470
465
468
473
480
482
476
475
483
498
500
502
504
505
505
507
497
484
473
471
470
471
462
462
467
467
472
476
478
482
488
492
502
505
501
498
494
488
487
485
479
474
472
469
475
486
498
507
510
507
500
490
487
493
497
494
494
500
504
504
503
496
482
467
467
474
473
477
485
504
510
512
499
483
472
473
481
490
485
474
460
455
456
463
466
474
481
485
485
487
491
487
482
485
500
503
495
485
478
479
483
487
482
483
487
483
477
480
481
478
481
486
500
514
507
499
492
489
482
477
478
480
488
494
491
486
482
484
492
496
499
507
510
523
517
499
487
479
476
478
482
489
500
499
485
478
476
481
490
481
477
469
468
466
466
471
475
484
486
489
489
495
494
492
486
484
488
495
495
490
481
475
479
488
493
496
492
486
487
492
494
486
490
507
512
513
505
496
494
484
473
472
472
471
477
482
487
491
497
509
518
519
511
494
480
474
472
477
481
483
488
489
487
489
495
501
492
487
491
500
496
495
503
504
494
491
493
493
494
494
498
494
496
502
512
517
514
506
503
501
510
501
489
479
478
483
490
492
492
492
492
484
484
492
497
500
504
503
502
500
495
498
505
515
517
511
504
495
491
490
494
488
488
492
490
481
488
493
502
506
503
495
488
497
507
522
534
545
557
563
559
543
527
518
521
543
554
554
554
554
548
541
550
560
551
535
529
522
512
512
515
512
508
506
506
518
531
537
533
525
520
527
532
527
516
506
496
492
491
491
488
483
476
472
481
481
478
479
482
487
494
487
481
475
471
465
457
460
469
476
480
477
471
466
468
464
459
455
453
455
449
445
439
446
449
449
457
464
474
484
491
473
458
452
456
464
471
475
483
483
486
494
492
493
493
495
492
483
469
461
455
461
459
459
453
453
454
450
451
454
460
465
467
466
470
474
476
481
480
471
463
459
462
461
464
468
482
485
488
489
485
487
493
500
500
496
497
497
495
492
484
480
485
474
468
461
465
478
485
500
520
530
546
550
552
571
597
630
658
674
698
723
757
801
846
879
906
917
915
919
914
918
918
911
903
904
912
905
874
826
767
688
601
529
443
347
256
177
113
74
61
54
47
39
45
57
75
95
110
121
145
183
217
240
248
266
290
309
325
346
359
373
379
397
405
421
434
446
450
467
477
474
484
489
484
485
495
497
489
488
489
489
487
487
488
495
496
497
506
512
521
528
533
538
542
546
552
550
546
538
535
535
538
534
529
532
541
552
554
541
521
512
513
519
534
554
564
560
553
545
544
544
548
559
558
559
560
560
559
557
551
555
553
552
552
549
544
532
534
542
542
536
526
523
536
545
551
550
547
547
546
550
557
562
567
568
567
568
573
579
581
579
575
569
567
564
557
559
559
562
561
565
565
564
560
564
574
577
563
545
541
553
569
581
593
596
595
592
587
585
584
585
584
569
557
554
554
563
571
588
597
595
588
582
575
571
575
593
607
609
610
608
601
599
591
587
579
579
587
594
599
606
608
600
595
594
604
609
606
608
605
601
599
603
611
620
627
632
632
623
609
600
600
595
590
588
588
580
580
586
587
583
575
565
559
560
546
542
547
544
547
550
545
542
553
559
561
563
563
558
552
548
542
528
515
513
507
504
503
498
485
472
463
472
479
476
465
459
460
464
466
459
451
451
450
447
441
440
441
447
452
452
451
440
438
446
457
462
457
450
438
437
433
424
419
410
407
401
404
401
399
402
401
401
399
405
397
375
369
378
382
393
398
390
381
371
363
367
373
379
385
388
386
374
375
375
378
384
386
389
391
399
390
379
380
382
386
390
384
388
393
401
400
393
386
385
385
387
394
400
403
403
406
406
406
421
422
417
415
417
417
421
417
416
423
432
438
441
440
432
430
435
444
443
451
454
451
457
464
464
462
458
445
439
440
442
447
457
470
476
478
475
475
472
464
456
449
449
460
465
463
468
468
464
461
456
461
464
461
459
466
471
465
462
460
462
463
470
479
483
488
489
489
483
473
465
470
476
481
479
482
496
495
489
490
495
499
493
482
469
462
465
463
465
470
483
496
498
490
488
492
492
489
488
491
489
488
479
468
464
470
475
476
473
474
488
496
493
500
509
510
506
498
492
486
482
475
472
472
471
468
463
464
471
469
464
459
457
452
447
450
456
469
470
479
486
492
496
497
498
499
499
496
495
488
479
470
464
469
471
470
468
468
474
483
490
484
475
471
471
466
468
481
487
479
476
480
487
497
501
503
498
489
482
474
471
478
478
477
474
471
480
487
482
474
480
486
491
499
497
480
462
461
473
473
475
470
473
471
461
446
446
454
466
470
466
467
469
476
479
482
477
480
497
503
494
488
495
506
514
510
501
498
490
475
464
459
460
464
464
466
478
492
496
494
491
487
492
501
514
517
517
513
507
508
511
509
510
509
504
505
499
489
488
491
496
502
502
497
492
493
496
489
487
489
489
491
495
493
482
476
483
488
484
477
476
479
475
470
475
488
491
484
477
467
463
465
470
477
485
489
493
502
512
515
514
516
511
512
510
508
506
505
499
502
510
509
505
499
496
491
485
485
490
500
499
489
479
479
487
491
492
489
489
498
501
491
487
499
510
509
506
512
522
529
534
540
538
533
527
531
537
535
532
533
540
544
554
553
556
556
548
543
532
521
523
530
539
547
535
527
524
518
504
487
479
486
496
500
503
509
511
507
501
489
482
474
470
466
473
478
481
492
504
506
501
492
483
478
473
465
463
468
470
474
477
478
482
488
485
473
470
480
479
478
469
473
482
485
474
463
453
448
453
455
456
457
459
455
450
447
443
443
453
463
468
472
483
484
483
483
490
491
480
476
475
473
470
476
476
470
467
467
463
460
457
455
456
455
451
452
467
497
508
511
513
508
508
502
495
496
493
489
480
476
465
456
457
455
457
464
467
473
471
474
471
468
469
468
476
488
496
501
502
505
516
535
550
548
556
568
592
610
623
649
676
697
719
749
779
811
846
865
879
891
893
894
886
882
869
868
871
874
867
839
797
734
657
571
483
410
337
267
202
143
97
75
65
69
80
95
111
129
136
143
150
164
186
206
231
253
270
301
335
359
379
390
392
393
405
415
428
438
440
443
447
460
473
482
481
488
490
485
485
486
485
486
507
523
533
535
537
534
526
525
528
531
533
532
531
533
533
531
534
535
533
530
525
525
526
530
538
544
545
542
542
538
535
525
516
515
519
515
515
524
532
537
551
561
567
560
551
549
543
538
544
542
542
545
549
548
552
555
553
543
539
545
542
541
545
544
548
552
557
557
561
556
547
547
551
557
559
559
553
553
557
561
565
564
562
565
568
565
561
563
561
558
561
562
569
567
563
559
553
552
553
555
563
578
586
587
581
575
575
574
573
572
573
579
586
587
585
579
573
580
586
581
577
571
572
569
566
569
579
592
593
597
599
594
595
596
599
598
591
578
571
567
566
573
585
601
606
610
607
600
592
596
608
611
605
607
612
607
602
613
632
624
616
609
592
578
569
565
565
564
566
574
577
580
571
565
563
565
564
564
566
564
558
551
545
540
542
548
544
537
537
535
534
535
529
510
500
503
510
504
492
484
482
486
485
486
493
490
483
477
473
477
472
467
461
453
450
445
443
445
449
456
458
451
448
439
425
415
406
398
397
402
406
408
410
404
403
405
403
401
399
400
400
404
405
399
390
385
384
379
381
391
397
403
404
402
397
390
374
366
370
385
399
402
410
411
408
404
394
388
392
395
399
401
399
394
394
392
392
390
384
382
380
383
388
389
388
389
394
398
396
397
396
396
394
393
404
412
416
419
416
418
423
422
424
429
430
429
430
431
439
441
441
437
440
439
440
439
436
441
449
451
449
457
471
486
483
478
465
445
433
432
430
434
441
444
445
447
454
455
454
462
467
471
472
476
481
479
477
473
471
473
480
474
468
473
471
453
441
448
459
463
471
479
484
488
488
485
480
478
481
480
476
479
483
482
482
488
492
491
488
486
479
474
475
470
470
475
482
486
483
481
486
483
481
482
485
490
501
510
514
508
503
504
501
496
489
486
492
494
491
487
466
452
462
472
482
492
494
492
503
508
494
484
478
477
482
481
469
450
446
457
467
485
485
478
477
486
490
489
486
475
472
470
468
464
461
466
465
463
460
458
459
465
482
492
494
495
497
501
500
498
492
489
485
482
477
479
483
486
494
499
500
503
507
511
509
505
498
489
478
471
472
472
470
472
474
477
485
492
491
480
472
466
462
470
474
480
486
491
495
501
484
476
485
490
495
497
495
496
495
496
489
489
488
479
476
477
485
489
490
493
495
482
471
470
480
489
496
496
488
488
484
484
485
483
481
487
491
487
483
479
472
472
488
504
504
498
491
492
491
493
490
481
476
481
483
493
504
516
520
507
498
494
499
498
493
486
479
481
493
500
507
504
497
490
486
485
488
496
499
498
494
483
480
478
479
482
485
479
480
483
492
506
507
515
522
517
506
502
500
501
507
508
506
506
503
495
490
490
499
499
489
483
489
487
487
482
477
479
486
502
513
521
521
520
522
522
526
535
543
542
544
542
548
553
556
556
547
542
544
554
560
555
551
546
537
532
531
533
537
533
523
522
521
519
516
512
512
508
503
496
491
484
474
470
489
493
473
471
469
465
466
474
481
480
470
472
477
471
466
469
470
470
467
474
483
482
475
465
472
490
496
493
490
486
484
474
458
452
455
461
466
468
464
461
459
462
461
466
463
453
454
458
455
457
464
468
471
473
475
477
474
472
474
477
473
466
462
460
467
471
476
469
466
464
465
460
458
462
464
471
472
465
462
463
462
463
460
457
457
467
481
485
490
490
480
475
467
461
461
470
474
482
488
488
487
481
471
467
471
480
487
493
500
507
519
530
538
540
564
598
634
670
701
725
752
779
811
843
876
898
912
920
926
927
925
923
920
931
931
922
890
833
769
706
626
548
469
397
323
247
175
112
77
67
64
54
59
76
91
107
123
138
162
189
209
225
247
270
294
318
334
348
358
369
370
373
384
396
398
402
409
411
415
419
431
446
448
445
452
472
485
498
511
516
520
519
511
509
518
529
528
523
522
524
515
512
523
530
529
534
539
551
549
546
540
539
537
526
517
510
510
508
515
523
526
527
527
530
537
536
535
533
536
543
543
542
541
541
547
549
542
536
531
528
522
522
523
522
526
530
532
539
548
552
547
536
530
531
535
538
543
546
550
545
532
530
543
550
545
539
553
557
549
556
564
561
564
564
564
570
561
548
537
534
538
547
561
567
569
574
576
572
572
570
564
568
569
568
568
564
566
565
572
579
578
578
591
591
589
588
583
589
586
586
583
586
587
591
586
584
582
574
570
572
579
583
583
592
591
590
597
598
597
597
595
597
596
597
593
594
602
616
617
609
607
602
596
601
596
593
585
571
572
582
596
601
601
605
606
603
602
595
594
598
599
583
564
553
556
570
584
587
574
564
561
558
550
542
530
522
507
491
494
507
520
520
515
512
525
539
537
535
533
526
521
520
515
507
500
504
496
488
481
477
467
457
448
439
432
422
422
426
424
425
427
422
420
409
406
406
409
410
413
422
420
418
411
402
403
408
410
411
410
415
407
400
396
392
390
384
377
378
384
388
394
393
393
390
392
395
393
393
395
397
394
397
403
406
403
400
397
396
397
395
390
393
397
396
393
385
379
382
388
389
394
396
398
402
408
412
415
406
402
399
398
399
404
408
413
410
410
410
418
421
424
425
421
418
418
411
402
409
412
413
410
417
423
427
435
439
437
430
427
431
441
452
460
464
468
472
476
479
479
475
475
474
468
457
446
441
439
439
447
459
464
471
465
472
476
469
459
458
459
459
458
448
440
450
456
461
479
487
496
501
494
483
474
479
484
477
471
472
478
486
486
491
496
491
487
495
505
500
492
494
498
501
496
490
482
478
467
453
456
466
471
477
472
464
459
463
472
479
486
491
486
490
491
485
486
479
474
480
486
493
489
479
481
491
503
508
502
500
500
503
506
502
501
508
499
490
483
482
482
477
476
480
484
483
478
467
455
462
484
500
499
497
500
496
491
478
475
473
467
469
475
490
503
507
503
494
488
483
485
482
475
471
478
491
489
488
487
486
487
491
484
476
476
481
480
478
479
482
485
486
480
475
478
489
491
485
482
480
481
480
476
471
470
474
474
480
501
512
512
507
497
492
483
470
469
469
473
476
481
482
482
492
491
493
493
490
490
485
478
483
488
496
496
497
495
484
481
485
486
483
486
493
492
481
478
478
474
471
467
466
471
480
482
489
492
491
489
487
491
496
498
499
503
502
500
506
515
519
513
512
516
511
504
500
495
496
499
496
498
501
500
496
492
492
497
496
477
464
469
473
475
477
479
480
485
479
475
473
469
464
463
470
484
499
513
527
537
549
555
552
560
553
550
548
544
539
540
541
551
558
560
565
559
551
547
543
538
536
531
527
526
524
524
522
519
513
500
494
499
501
495
487
486
494
502
501
492
489
492
484
473
465
459
458
458
466
470
463
466
468
472
473
465
451
447
457
468
480
485
483
478
475
473
467
460
461
467
467
470
479
476
471
467
466
468
463
461
472
480
479
479
475
474
473
479
476
474
476
475
480
476
470
467
463
460
456
454
459
470
476
486
488
483
487
486
486
489
492
482
478
487
493
488
485
477
474
478
484
480
467
464
462
457
454
449
438
443
451
459
466
464
458
453
459
465
469
476
483
489
491
488
491
497
517
552
567
574
594
617
645
674
701
718
748
781
809
831
857
878
898
917
920
911
916
926
925
922
918
914
902
864
808
736
657
583
495
404
306
214
143
91
56
42
41
37
39
52
74
89
112
126
135
150
170
193
218
245
271
295
316
337
347
352
362
375
383
387
398
423
447
456
449
443
447
468
477
478
482
490
505
508
509
505
499
494
491
494
512
518
521
520
531
538
542
547
549
539
532
527
522
523
531
540
544
537
533
531
537
530
527
528
525
526
525
523
527
537
544
546
542
546
544
543
549
546
549
555
549
541
531
527
527
526
539
548
550
551
552
555
557
560
558
559
563
564
548
536
534
538
544
543
546
546
552
566
577
584
581
574
570
570
569
554
544
550
556
554
548
541
531
531
538
549
561
564
567
577
577
569
570
567
562
559
552
549
555
554
553
563
574
586
591
588
583
586
591
596
590
584
585
578
578
582
586
588
596
596
590
594
600
607
605
603
596
592
592
594
591
585
591
597
606
600
591
591
590
589
588
592
601
615
619
616
615
612
618
627
629
627
634
633
624
614
605
595
587
588
586
587
590
593
579
562
553
552
550
558
570
570
557
549
550
550
542
539
542
541
546
547
544
532
517
520
534
543
555
550
539
532
517
503
496
492
491
489
481
465
455
462
467
469
471
467
457
452
449
443
434
422
422
430
437
432
434
429
427
431
435
433
424
422
417
406
397
400
405
406
402
394
391
389
390
392
394
404
414
416
404
395
385
391
391
388
390
389
386
391
397
387
378
378
376
373
376
378
378
377
378
378
379
380
379
371
368
369
376
392
408
411
416
410
393
387
392
396
403
409
410
408
398
401
400
400
400
405
414
419
425
423
417
411
412
408
402
404
419
432
429
430
430
433
434
432
435
442
442
434
437
442
442
446
448
452
455
447
443
441
437
436
441
439
437
436
438
442
443
459
468
476
487
491
493
490
478
465
453
450
459
464
472
480
479
468
465
459
455
448
450
452
463
478
480
478
473
467
464
469
466
458
461
472
478
474
475
472
472
471
473
475
474
483
479
469
464
459
456
458
458
465
471
470
468
479
493
501
496
492
493
499
502
493
490
489
481
473
469
465
468
469
462
464
468
469
472
478
480
481
487
488
488
496
493
489
481
480
482
487
486
483
480
482
485
487
476
472
478
487
492
488
475
467
466
463
471
480
483
487
485
474
467
464
472
472
466
462
464
467
465
459
453
449
452
465
475
481
494
498
492
480
477
479
472
469
468
468
474
486
496
501
494
491
489
482
468
462
455
454
470
487
493
497
503
505
507
502
489
483
483
491
503
512
513
517
516
501
487
473
467
474
479
479
480
479
480
479
485
495
491
487
477
466
462
464
463
467
471
476
482
491
503
507
508
511
521
527
530
531
518
511
513
518
523
533
537
539
542
546
546
541
535
534
541
548
546
551
549
542
532
523
522
527
523
522
522
526
533
533
526
521
507
500
499
487
483
480
480
478
476
464
457
458
457
457
452
451
453
455
466
474
477
474
466
474
478
468
465
474
480
481
480
478
471
476
477
476
472
473
480
482
487
490
477
463
461
463
465
463
461
458
455
450
455
453
450
448
444
443
438
435
438
436
440
452
466
479
483
495
505
509
501
495
493
496
497
494
497
491
482
475
468
463
464
465
467
468
466
461
461
455
457
462
466
468
467
469
469
470
472
485
489
475
463
453
442
443
448
457
473
491
508
513
517
526
532
536
549
568
589
616
643
671
701
728
754
781
815
844
869
887
896
901
901
903
910
888
862
858
859
851
838
800
740
657
580
492
392
296
207
130
74
44
26
19
19
24
41
59
78
91
111
140
156
166
185
208
229
251
277
305
326
343
357
371
382
386
391
399
404
412
423
442
462
469
473
477
488
500
518
529
525
515
512
513
511
508
499
490
490
499
507
515
523
524
537
551
559
552
549
550
552
548
543
546
543
531
521
515
523
534
539
537
533
530
541
551
553
553
554
550
548
554
561
566
566
564
566
565
562
554
549
549
551
555
547
541
546
553
561
557
544
539
535
537
541
540
540
541
552
557
553
553
566
567
565
567
574
578
570
565
566
565
559
558
560
560
555
553
560
561
551
541
540
543
548
550
553
560
568
577
599
605
598
587
591
592
590
594
589
577
569
568
571
581
585
582
583
577
577
575
577
581
591
600
600
597
590
581
584
593
597
602
609
613
615
607
600
589
593
598
606
611
610
600
593
598
610
621
617
608
601
607
617
618
614
607
601
595
589
587
584
584
585
591
592
586
571
549
547
550
564
584
595
598
601
599
591
591
586
578
571
569
566
560
556
557
553
541
535
531
526
526
526
521
512
506
509
513
512
506
499
496
489
481
471
473
476
479
476
473
475
468
461
469
473
469
463
457
454
445
434
421
417
422
437
443
433
430
415
404
400
407
416
422
427
429
428
418
406
388
368
367
374
376
374
370
363
359
355
351
357
372
393
400
403
398
396
398
399
393
395
398
395
388
380
384
390
394
389
384
386
387
387
387
386
385
379
371
365
357
355
364
374
386
399
410
423
428
418
412
417
415
411
406
411
422
427
433
442
437
427
422
422
420
423
429
431
429
428
421
423
430
443
454
449
447
448
453
458
461
458
456
448
437
430
433
441
445
449
447
441
437
443
445
451
461
464
458
449
447
450
453
448
457
468
476
491
497
495
484
482
472
462
471
494
507
505
494
482
473
452
432
436
450
454
453
462
470
478
485
498
505
504
501
492
480
478
476
474
477
487
491
489
492
494
495
494
494
488
484
498
514
506
490
493
500
496
491
490
493
499
504
501
495
490
483
474
471
470
471
472
474
469
463
456
449
454
459
464
458
450
460
479
496
505
510
521
522
526
526
513
494
477
470
472
473
478
487
484
486
497
502
504
489
475
475
484
493
496
488
483
475
461
465
471
473
469
467
472
498
514
512
503
494
484
481
476
474
476
479
483
483
481
483
491
495
501
500
499
499
501
502
488
477
477
474
475
477
480
480
478
485
489
482
469
469
481
490
492
495
501
498
489
486
497
501
498
496
493
490
492
496
497
496
491
495
494
488
479
476
484
498
505
512
525
540
541
537
537
544
546
545
544
545
534
539
558
562
567
570
562
553
550
548
537
524
524
529
527
527
529
533
529
528
535
540
526
505
488
482
483
489
488
491
505
508
482
453
427
420
439
448
452
462
462
464
462
463
470
476
481
494
506
514
506
494
477
464
462
472
475
467
456
460
469
474
468
460
462
470
474
471
471
472
473
474
480
494
499
486
474
478
474
463
452
449
453
454
462
459
455
463
468
475
484
486
481
476
469
463
466
464
464
461
455
461
467
474
475
484
492
487
485
482
481
477
467
462
460
458
454
460
470
477
479
479
473
474
478
482
474
455
439
437
452
461
462
469
478
478
484
501
516
538
563
575
601
618
632
662
681
699
725
763
799
827
852
870
881
883
887
896
904
907
904
907
914
902
882
840
792
727
635
551
481
418
360
299
233
176
141
115
95
77
73
81
93
104
115
133
158
177
194
215
233
257
287
315
327
331
346
357
377
386
396
404
417
441
458
470
473
470
468
468
466
472
487
495
502
499
492
493
499
511
514
515
515
511
518
526
531
531
528
524
524
517
508
498
496
496
502
508
514
519
519
523
523
527
528
520
521
532
541
546
547
548
545
547
542
542
536
528
524
524
519
518
514
511
514
518
521
526
530
535
538
543
548
552
551
549
554
557
555
552
547
545
548
554
546
543
544
546
544
546
555
568
574
569
560
553
553
552
550
551
550
554
559
562
559
559
561
562
563
563
564
563
555
547
543
545
544
543
540
537
535
539
549
572
590
587
579
580
585
581
573
571
568
561
559
571
585
590
594
595
600
605
606
607
605
598
595
591
585
587
592
597
597
593
592
595
599
602
597
592
588
593
601
610
619
612
612
620
622
614
604
599
595
593
598
603
603
592
584
578
574
572
574
586
591
580
573
581
583
579
569
564
567
565
558
552
557
563
559
556
547
552
559
551
535
523
515
504
499
506
519
528
531
527
518
514
510
508
506
499
479
465
464
463
456
449
441
439
431
424
422
424
426
439
450
453
449
437
426
426
425
428
432
442
438
437
433
435
439
432
415
403
396
386
375
368
364
355
353
356
360
361
365
364
368
374
379
380
373
375
380
380
378
380
385
383
383
381
386
394
394
388
384
382
383
379
375
382
392
399
398
400
394
395
392
396
402
401
393
382
380
382
382
388
392
391
386
382
379
376
374
376
389
403
424
429
429
430
436
448
453
447
432
419
410
414
425
438
435
436
438
427
425
420
423
428
429
436
445
446
439
439
443
442
437
434
433
428
424
431
430
432
439
447
451
447
450
455
452
456
462
459
450
450
454
460
461
460
461
465
463
458
460
463
466
466
461
450
442
440
447
462
484
501
500
495
482
469
460
453
448
438
435
448
468
481
488
500
497
490
484
484
485
478
473
475
481
484
482
478
484
487
492
504
516
517
508
501
494
492
488
488
482
478
474
473
477
480
484
494
503
511
509
502
498
490
487
485
478
473
466
457
455
451
451
453
458
455
453
453
456
459
466
469
470
472
486
497
491
483
486
491
494
490
482
476
477
477
469
470
464
463
469
469
465
467
470
467
468
473
479
484
480
475
469
474
482
493
501
500
500
505
509
508
507
501
498
498
495
494
491
487
488
488
485
486
488
489
494
503
510
509
502
496
492
489
486
490
498
505
501
496
483
478
479
476
480
480
472
468
464
465
473
479
484
490
502
513
517
525
521
525
528
530
531
530
533
538
544
547
547
543
537
539
547
546
549
552
547
547
548
544
535
523
519
517
519
520
516
512
509
505
498
494
489
487
487
480
476
481
490
493
485
479
472
466
464
460
452
452
455
462
461
456
466
475
474
475
480
476
473
477
478
468
462
461
457
451
448
451
459
465
464
460
457
459
468
472
470
466
464
461
459
460
460
466
465
457
445
439
443
456
467
481
482
480
474
469
466
467
470
477
483
479
476
472
463
460
452
446
449
455
467
468
468
462
452
450
454
460
455
446
442
448
464
474
474
470
469
472
472
475
483
487
489
486
478
469
471
474
469
465
473
487
494
497
508
513
521
531
540
554
566
579
593
621
648
672
701
726
756
791
816
839
865
893
912
926
935
935
940
936
931
937
933
914
883
847
793
708
614
524
437
361
285
205
138
107
99
89
69
55
52
60
74
93
108
119
144
165
191
215
253
289
315
341
364
375
377
378
380
384
384
388
403
426
444
456
462
467
473
475
480
489
503
497
483
490
503
511
518
522
520
522
523
523
521
521
511
509
503
493
492
495
499
499
500
500
498
493
493
513
531
551
575
580
576
557
539
539
534
523
519
513
511
509
514
519
536
546
541
531
523
522
521
532
535
540
540
536
530
524
528
535
544
553
560
559
558
557
555
545
542
538
531
531
535
541
552
557
558
554
550
541
538
542
544
550
563
573
574
566
561
557
557
548
528
520
524
537
560
580
574
559
547
539
543
553
566
576
590
594
593
590
590
595
596
595
601
601
591
578
570
572
578
584
585
586
591
593
597
595
597
599
606
616
603
588
587
585
569
557
561
562
568
584
593
591
591
599
602
599
601
609
622
625
631
635
642
639
632
620
606
599
590
579
574
582
588
600
600
602
596
586
581
583
580
586
583
585
590
588
579
570
565
558
547
541
542
545
552
547
544
540
529
524
521
519
519
527
519
516
515
515
513
510
509
504
496
488
485
483
476
469
466
461
463
468
471
478
476
474
471
464
452
444
445
445
447
446
440
424
420
414
397
388
385
387
386
388
389
395
395
397
398
395
390
382
371
364
355
359
363
364
361
363
369
374
382
387
384
377
378
387
388
384
376
384
397
396
391
381
375
376
376
384
393
398
392
387
385
379
373
368
360
370
381
385
389
391
396
395
385
378
382
390
398
412
425
432
431
427
418
406
406
410
411
409
406
403
401
411
435
453
444
433
432
425
421
412
411
413
415
412
406
412
424
431
435
432
424
418
417
425
434
442
449
456
459
461
457
448
449
454
454
457
466
471
471
464
453
448
446
449
456
455
457
463
470
465
464
471
463
459
460
462
473
478
479
478
475
467
470
480
488
491
483
467
462
459
456
461
463
465
475
485
488
493
487
483
478
480
473
475
487
491
484
479
479
478
480
480
477
479
485
478
469
459
461
469
470
464
464
471
479
481
480
480
490
500
494
497
498
496
494
493
494
499
498
483
482
487
486
490
493
486
473
459
462
465
471
478
479
475
480
479
470
460
459
464
470
474
480
483
483
483
493
508
516
514
504
496
493
488
479
479
487
494
487
476
475
494
499
491
491
494
489
487
488
478
466
465
471
474
476
480
489
489
486
480
473
477
486
496
499
497
500
497
491
487
489
491
499
504
505
504
494
482
481
484
485
485
483
483
491
486
488
506
525
537
539
534
526
524
525
528
531
532
541
546
541
545
552
562
560
560
551
546
543
534
528
530
523
528
535
531
526
521
522
517
510
503
497
496
494
483
472
465
463
456
451
452
445
435
443
455
467
468
465
472
477
472
464
475
492
497
495
494
491
482
476
469
469
470
466
456
445
455
466
468
474
478
473
472
471
469
465
468
461
452
450
449
442
444
455
464
478
489
490
482
474
475
479
483
480
474
472
470
476
484
483
475
475
477
480
477
476
477
473
469
466
466
468
465
462
455
449
444
439
446
454
463
478
484
484
485
482
480
488
492
493
491
482
473
461
454
458
461
476
478
480
483
485
486
483
490
503
504
515
528
537
546
570
585
596
620
657
699
725
751
783
815
841
866
884
908
919
922
936
939
937
932
922
904
904
892
863
811
739
664
586
483
387
300
204
125
64
37
34
40
48
49
50
58
68
89
106
112
133
164
187
220
253
279
298
320
347
371
384
386
391
399
413
428
434
433
438
447
463
469
474
476
470
470
470
481
493
504
518
534
539
539
536
532
526
518
513
515
520
532
543
542
543
537
531
526
529
536
544
546
546
544
545
543
544
542
531
519
516
522
524
525
530
539
539
534
529
529
529
534
547
559
562
567
572
566
567
574
572
568
564
568
564
565
572
565
548
537
535
538
548
553
543
540
544
546
556
566
573
575
569
569
567
560
556
547
543
541
535
527
521
522
519
517
524
535
539
560
578
590
600
600
614
613
596
590
585
584
591
595
595
599
596
595
588
575
579
578
585
584
581
581
572
569
575
585
590
595
603
611
607
592
581
586
592
595
585
587
595
600
601
607
614
613
613
600
594
590
583
586
582
586
602
615
615
607
608
611
618
616
605
593
585
594
598
598
604
615
619
620
621
620
619
623
617
599
590
592
606
612
607
590
592
597
589
572
564
559
557
554
554
556
559
557
551
542
528
521
517
515
520
523
523
521
512
509
507
506
497
487
481
480
471
455
464
475
474
469
466
458
444
445
446
448
447
441
438
435
432
418
403
401
394
397
394
389
396
402
399
386
378
376
379
383
388
391
382
378
378
377
372
377
389
403
406
409
403
390
386
373
362
363
371
372
362
362
368
376
390
390
386
384
383
384
389
394
395
397
397
392
390
394
396
394
386
380
384
395
399
395
387
381
385
400
410
426
436
435
441
439
431
419
411
416
414
408
396
395
410
430
440
439
428
417
418
426
427
427
431
435
438
441
442
442
437
434
432
448
450
453
446
448
454
446
432
430
434
442
443
448
457
467
476
477
477
468
465
478
486
489
486
481
477
472
466
464
456
453
452
455
451
455
466
477
486
492
485
487
485
480
480
482
483
482
481
480
479
483
494
502
500
491
479
471
466
463
466
480
488
495
495
490
482
483
480
478
484
490
489
484
475
472
470
472
476
482
482
481
476
472
470
474
481
480
476
477
474
469
466
465
456
464
488
506
509
503
489
475
455
437
432
435
448
474
496
501
500
486
475
472
473
473
477
486
488
494
495
497
492
492
485
471
474
478
474
475
474
482
488
492
487
476
464
461
459
461
469
472
474
486
496
502
501
493
489
486
488
485
481
485
493
493
489
479
480
484
487
484
473
470
471
471
487
509
517
531
543
547
546
540
532
529
527
531
526
527
527
530
529
536
540
528
526
533
533
533
535
530
520
515
517
528
534
523
516
512
515
512
506
504
502
498
493
497
497
494
487
481
474
475
479
476
484
489
480
465
454
451
455
457
465
471
469
466
449
437
440
443
444
444
450
451
450
462
476
486
492
479
464
465
465
465
472
480
487
491
485
487
486
480
483
482
489
489
484
471
458
454
454
456
469
466
461
456
445
445
446
450
462
473
476
473
474
476
478
474
473
473
474
473
476
479
469
472
478
487
478
466
459
449
444
448
456
462
471
487
495
503
507
502
490
488
489
496
504
504
505
503
503
497
497
494
491
491
502
524
551
560
568
589
619
645
667
706
748
790
828
861
882
893
898
897
882
861
859
855
851
852
846
838
827
799
743
665
588
505
413
322
227
141
75
36
24
28
38
47
50
60
83
97
110
132
154
173
200
223
242
263
286
304
333
359
373
391
404
414
416
419
419
430
448
460
473
483
486
483
479
479
486
498
512
522
523
523
525
525
526
518
513
509
500
494
494
506
517
525
536
537
529
519
513
516
517
527
538
539
540
538
545
552
557
557
559
559
554
546
538
530
528
537
537
537
529
527
536
540
535
530
534
539
541
538
537
541
546
558
561
556
556
554
548
553
553
552
563
564
561
557
559
561
561
556
550
548
548
551
557
562
556
548
541
540
544
541
549
561
553
549
551
550
556
561
554
547
553
565
578
581
584
587
596
600
593
584
575
566
560
560
559
556
553
557
565
578
584
585
584
582
575
568
560
551
549
549
555
574
590
601
609
615
619
613
616
612
602
599
602
611
618
621
621
618
613
611
609
609
607
609
607
610
612
615
607
593
586
580
581
586
591
598
604
608
615
621
622
615
603
587
570
561
560
567
577
584
581
572
568
571
575
573
564
552
554
565
564
556
546
539
532
525
522
527
532
529
522
511
505
506
503
501
501
494
481
479
471
466
466
470
467
467
469
467
464
464
461
448
441
441
430
422
418
419
421
415
416
419
419
429
425
413
404
403
400
391
384
376
379
390
401
403
399
396
395
397
396
399
403
409
410
401
383
377
378
370
359
354
350
343
343
347
355
369
378
384
385
382
383
392
399
399
399
404
404
397
394
389
390
394
400
396
387
377
372
377
380
382
391
400
402
403
404
398
389
392
400
409
413
415
421
423
415
406
403
412
420
419
418
418
425
434
442
449
450
445
438
428
421
425
430
439
446
448
443
432
430
431
435
444
459
464
465
465
468
467
469
464
475
491
497
501
500
502
492
486
487
479
466
459
457
458
456
461
473
483
482
474
479
482
484
486
486
482
479
471
458
458
461
458
453
454
455
460
464
472
478
486
486
487
490
484
479
484
491
487
485
482
487
489
488
476
464
456
448
442
445
455
470
479
488
494
498
488
484
496
509
510
505
494
492
500
503
505
506
501
497
495
493
486
485
488
490
489
479
470
474
487
484
477
470
475
480
476
477
479
476
474
474
475
473
480
482
492
502
509
508
512
515
512
498
484
476
466
456
449
448
448
460
473
484
488
489
489
490
492
491
490
489
488
495
496
496
491
489
488
493
491
487
484
480
479
487
502
504
495
479
460
458
462
465
466
484
500
510
528
537
540
539
544
544
539
537
536
527
525
524
518
515
516
526
527
518
515
528
531
526
530
533
541
541
533
528
523
520
517
516
516
521
519
506
501
495
484
479
477
476
480
482
484
485
481
475
476
481
485
481
473
464
458
454
463
470
475
472
462
462
466
476
486
496
495
485
469
463
465
472
479
488
496
496
492
487
494
493
477
464
462
464
465
460
453
463
463
453
447
455
464
462
435
419
422
436
458
468
472
477
477
471
467
466
466
464
470
480
488
487
473
460
458
460
461
466
474
484
490
486
481
479
472
459
455
461
463
470
479
489
493
494
497
501
501
487
480
473
471
481
484
482
484
488
496
499
500
506
513
525
535
547
555
561
578
603
629
649
670
697
726
769
803
834
867
885
892
897
902
902
897
888
880
878
882
879
858
817
767
694
612
535
466
401
328
244
176
131
103
81
70
71
82
94
91
92
107
134
157
194
234
269
288
307
334
352
364
377
392
399
395
394
396
401
410
426
437
445
453
469
477
480
482
486
496
497
498
496
500
504
504
499
495
492
494
503
510
521
524
520
514
507
502
499
494
497
499
500
497
499
506
516
525
515
517
530
536
538
545
554
554
551
548
548
550
552
558
558
545
534
523
512
507
511
515
520
530
534
536
538
540
545
542
543
540
537
543
555
558
552
547
551
551
536
524
524
530
535
540
544
548
551
558
556
550
551
552
551
548
549
549
537
524
522
514
526
544
555
556
555
549
541
541
547
544
538
544
544
545
547
553
565
576
577
569
568
582
587
577
567
561
553
550
546
554
567
579
584
593
600
607
599
589
587
587
588
594
595
594
592
588
597
595
589
590
593
588
584
590
595
595
601
605
598
592
594
594
592
592
594
597
601
602
596
584
581
582
585
589
595
597
592
585
584
585
588
587
586
578
570
564
560
557
560
550
547
550
558
551
540
535
526
528
517
504
500
506
521
530
525
518
514
503
499
501
508
510
509
498
486
489
494
488
473
454
449
452
454
456
460
455
446
437
439
448
448
445
443
443
438
427
419
414
407
401
392
387
392
386
376
377
377
372
364
361
360
352
356
356
366
377
383
383
385
391
394
393
385
369
355
349
349
355
357
348
348
357
369
379
384
387
392
398
402
395
389
392
397
393
387
383
398
406
400
390
385
392
401
404
401
402
401
396
385
374
375
377
383
391
396
400
401
400
403
410
415
417
421
416
417
417
420
411
412
406
399
398
397
397
402
409
410
408
404
405
417
421
419
413
417
421
421
420
422
426
433
438
441
442
440
441
444
437
423
404
398
409
411
416
429
445
463
470
473
476
475
478
482
470
457
458
464
464
464
460
451
453
462
468
476
487
488
481
463
445
437
436
440
449
458
460
454
455
462
463
463
462
464
471
472
474
478
479
482
479
485
480
474
475
478
477
472
468
462
459
461
459
454
458
459
463
470
472
468
471
475
476
472
466
457
454
463
476
482
486
488
479
481
490
497
486
483
477
472
474
475
478
482
488
497
499
492
483
473
469
469
469
468
464
461
465
474
477
476
471
467
466
458
457
469
468
457
452
445
448
459
472
484
493
486
478
471
465
466
469
473
477
475
478
479
474
472
468
471
476
475
466
467
468
465
468
467
475
484
489
498
505
500
488
482
484
480
481
483
486
489
486
479
476
476
474
475
473
470
472
476
480
487
492
494
490
496
504
502
502
502
509
508
514
518
524
529
520
511
514
524
538
544
542
530
520
515
509
504
502
508
519
519
515
510
507
510
514
505
492
479
469
463
463
465
465
468
468
467
468
466
468
468
463
453
448
445
440
435
431
436
446
457
458
446
431
434
446
455
471
471
460
458
460
461
460
459
463
468
475
469
462
459
458
447
435
435
444
450
452
450
447
442
438
435
433
443
457
457
448
452
459
463
467
461
455
457
463
462
455
448
445
437
431
430
427
427
431
424
418
414
413
419
434
447
451
459
466
463
466
469
473
467
460
458
453
457
459
457
462
464
464
456
455
454
456
455
458
455
456
461
467
471
463
463
468
475
485
496
499
503
506
516
539
563
598
633
674
714
750
793
835
864
887
905
909
911
909
905
897
889
885
891
896
892
869
826
769
696
608
528
455
390
324
247
189
143
113
93
72
59
56
64
83
107
123
132
144
163
181
202
220
249
269
280
293
307
326
342
358
378
384
388
389
388
396
414
429
439
446
454
460
463
471
476
478
475
476
469
469
471
474
482
492
499
509
517
514
504
504
507
502
494
494
497
502
505
505
501
503
510
518
522
523
515
503
493
490
493
501
506
511
509
511
510
512
526
524
523
534
523
511
507
504
504
505
509
508
515
521
519
523
521
521
526
519
507
507
513
516
518
507
499
504
516
520
511
504
513
530
554
559
555
549
535
522
520
525
527
529
537
541
541
539
538
539
543
554
564
567
570
571
568
570
572
562
549
538
525
514
509
516
523
524
529
541
552
555
555
559
561
565
567
568
567
560
556
561
573
576
575
570
569
569
559
559
563
567
565
560
550
546
547
558
566
571
582
592
596
595
591
590
590
588
589
588
591
582
570
567
566
570
575
578
583
587
594
592
581
571
574
577
579
581
580
589
594
586
572
566
571
576
571
567
561
550
549
548
544
545
545
543
534
525
519
512
504
500
497
512
522
527
518
499
490
481
471
471
470
460
454
459
460
461
465
462
447
436
428
423
416
415
411
400
394
389
381
384
401
413
418
423
418
402
393
394
392
378
366
360
363
364
363
362
361
363
361
356
357
356
354
356
358
357
362
368
372
385
379
370
360
356
358
366
366
368
363
362
362
360
358
360
360
365
370
362
350
346
347
351
363
375
380
390
397
398
395
390
387
393
396
388
378
384
380
368
358
369
382
385
382
373
371
372
373
378
387
391
389
388
388
396
401
406
408
408
405
405
409
406
397
394
403
404
411
416
413
411
406
400
397
401
410
408
403
406
407
407
416
428
436
434
432
427
425
438
446
447
450
450
455
468
465
464
465
464
463
456
453
456
456
463
464
456
445
442
437
431
428
427
438
448
456
456
449
442
441
442
444
454
457
455
451
452
458
450
443
432
426
436
439
446
461
473
485
488
479
461
454
464
476
479
484
489
483
472
465
467
468
471
468
466
468
473
474
472
469
469
466
465
468
475
481
480
470
457
447
440
450
460
462
457
452
460
457
448
441
444
466
491
500
499
485
468
459
456
458
462
460
460
461
471
475
468
456
458
469
474
475
468
459
454
469
470
468
469
468
461
454
450
447
445
451
459
468
477
479
474
473
472
461
448
455
467
478
477
478
479
471
474
484
485
491
494
488
476
472
465
463
465
471
479
477
478
474
471
472
472
469
461
456
458
461
471
478
485
487
488
496
499
504
502
496
484
483
480
475
463
464
469
482
490
489
485
477
478
486
501
499
486
482
487
491
492
500
513
517
523
519
510
509
507
504
512
526
531
534
540
549
553
553
554
547
542
543
534
528
526
528
520
513
510
512
510
504
493
484
479
475
464
464
467
463
463
463
461
455
449
452
455
452
452
451
443
446
457
451
448
455
469
479
483
489
488
490
484
472
468
465
464
461
455
458
471
469
458
454
452
446
436
432
426
424
433
443
453
463
468
465
465
471
466
458
455
455
452
448
449
453
455
455
453
462
469
471
470
469
473
483
481
472
471
482
481
482
478
475
483
480
470
470
472
469
463
456
450
457
460
455
462
466
457
449
448
457
458
458
457
462
462
455
453
450
457
449
444
446
453
468
474
473
474
477
496
519
545
578
610
643
667
691
713
736
762
793
819
842
865
883
895
906
916
918
920
914
910
906
909
892
867
836
768
676
591
503
420
333
242
166
112
77
66
62
52
41
41
54
78
97
111
126
143
167
195
213
238
274
291
293
299
321
340
345
356
371
388
402
407
414
408
416
439
450
458
462
460
478
491
495
493
492
490
492
489
494
499
500
498
502
506
516
524
520
521
522
532
541
535
535
538
537
538
542
542
535
529
525
519
515
505
499
501
505
509
527
537
534
533
541
549
547
535
532
530
519
516
524
539
548
553
549
540
539
534
544
554
556
557
562
556
549
543
538
535
531
521
510
517
527
535
529
524
528
529
536
543
548
546
538
543
547
540
536
537
531
531
530
531
542
561
574
578
582
583
579
573
573
571
564
563
575
583
586
587
579
566
557
556
559
558
558
570
576
578
585
598
595
591
594
581
569
554
542
541
553
564
567
576
590
592
599
599
601
601
597
593
588
588
590
590
588
582
585
589
593
599
594
590
586
589
601
605
595
591
589
587
587
595
592
596
600
598
597
597
592
590
578
574
582
597
606
605
605
597
582
568
563
566
572
575
569
560
542
529
528
530
537
542
541
533
514
505
492
496
506
510
512
514
512
505
496
493
491
492
498
495
491
485
475
470
467
452
452
448
440
432
417
410
414
431
449
460
457
448
434
422
412
401
395
389
380
376
378
382
384
395
402
399
388
385
389
387
386
384
379
389
400
395
390
382
379
379
376
370
380
383
375
374
372
368
366
368
362
350
347
364
370
366
362
362
358
354
349
351
358
369
384
396
398
405
411
415
407
408
423
427
429
427
419
411
405
398
389
391
394
397
405
410
411
408
404
403
401
399
399
397
392
390
393
390
394
411
422
430
438
445
447
452
452
444
441
450
458
466
475
479
477
469
464
466
463
458
451
456
457
456
458
461
462
459
453
447
451
451
449
455
460
460
472
482
491
483
465
450
440
438
436
443
452
456
459
466
474
474
470
465
461
466
472
471
471
470
471
480
487
487
478
467
464
464
461
456
455
447
446
446
444
443
453
475
492
496
491
478
478
475
470
479
484
491
493
497
492
484
480
479
474
472
482
488
483
476
469
464
467
473
472
469
462
453
449
466
478
485
489
491
485
477
471
471
470
465
463
461
457
460
454
454
461
466
476
481
489
487
482
490
495
491
483
474
471
466
462
457
454
448
439
444
450
448
446
449
446
439
445
450
455
459
452
446
442
445
456
472
495
513
518
516
508
503
496
489
481
476
483
488
481
474
471
466
469
472
472
473
477
479
473
478
480
478
479
478
480
491
495
497
497
504
506
488
480
493
507
509
507
504
506
507
512
518
524
524
528
526
517
508
505
501
505
512
518
518
510
509
507
506
513
514
505
501
494
494
490
489
490
493
491
485
475
465
466
467
476
485
487
478
471
473
474
469
468
472
478
470
457
449
448
458
459
453
450
442
443
456
462
455
452
462
468
465
462
465
474
468
467
462
453
454
459
462
461
458
452
445
440
436
428
424
437
451
464
470
470
472
478
478
463
446
443
450
452
455
452
447
445
437
432
432
432
433
435
438
443
442
442
443
448
458
470
487
501
500
489
481
481
477
467
463
456
452
458
452
444
451
455
452
455
463
471
470
473
481
480
475
474
473
466
463
459
460
469
493
522
548
575
595
609
625
638
648
669
690
725
758
783
808
829
846
854
869
887
882
872
860
854
852
850
849
837
802
734
640
551
467
387
299
206
128
66
39
31
33
36
39
38
52
79
92
110
131
151
173
197
212
228
247
278
311
339
360
376
386
394
411
411
409
410
414
418
423
431
442
455
466
478
484
490
486
464
458
462
475
486
507
519
531
546
552
547
535
530
531
529
523
519
520
523
521
517
522
520
517
509
505
511
510
507
504
503
505
518
523
520
521
514
508
506
507
517
529
536
537
541
538
531
534
538
540
544
538
538
538
538
538
538
532
532
544
544
539
538
535
528
524
526
528
535
545
557
559
562
565
562
555
537
527
527
540
542
533
524
522
528
531
538
554
562
560
556
547
540
532
527
531
533
546
558
564
566
567
563
564
555
540
537
546
552
551
547
545
552
558
562
564
568
577
593
603
610
605
600
589
583
584
579
584
594
583
570
566
569
567
572
574
577
578
576
579
581
588
592
594
596
596
595
592
588
573
554
552
559
572
585
597
610
621
610
590
579
581
584
581
573
557
543
536
532
549
571
579
572
572
563
554
544
544
540
535
529
526
525
528
532
538
536
525
525
532
532
523
511
505
498
496
492
491
491
489
485
480
478
474
472
471
468
468
464
451
444
441
444
442
442
438
427
424
430
440
439
432
429
427
427
423
414
409
406
402
399
399
400
393
385
386
378
370
370
368
369
369
366
361
352
352
356
358
359
365
367
367
370
375
378
380
376
369
366
368
366
357
352
356
360
363
376
393
400
407
410
401
390
379
371
368
373
374
370
368
372
380
381
380
380
381
384
383
382
384
382
384
392
401
399
391
381
377
382
385
391
405
417
414
407
409
424
428
437
451
456
446
435
432
426
419
422
422
424
429
431
421
419
423
421
416
418
428
444
465
466
454
445
441
431
420
421
424
423
412
415
426
440
451
469
485
488
480
465
463
468
469
468
459
465
472
470
466
465
465
461
471
476
472
469
463
455
452
451
442
441
451
458
462
468
476
482
477
469
472
484
495
490
481
482
483
491
485
476
469
459
454
448
451
467
473
472
478
485
485
470
466
473
479
478
473
474
477
477
469
458
452
451
457
459
463
478
498
498
492
490
488
478
471
472
472
467
462
467
469
473
474
471
464
451
448
449
450
453
461
461
464
466
465
466
470
472
473
466
468
470
475
479
487
493
489
484
481
481
480
480
480
469
467
460
445
442
450
459
466
461
462
467
467
474
482
494
511
510
498
485
483
490
499
496
485
482
477
470
464
455
455
450
444
449
457
475
493
500
500
497
488
480
476
474
462
456
465
471
477
484
485
480
474
468
465
465
466
465
464
467
466
457
452
457
473
476
476
479
485
486
483
474
472
470
477
482
475
470
479
472
461
458
462
471
478
486
490
502
516
525
528
530
534
538
539
543
545
540
534
535
537
532
525
527
529
521
512
504
505
503
505
513
519
526
530
528
519
513
509
512
507
494
486
479
473
473
481
488
487
479
479
482
485
484
478
466
458
455
449
445
444
444
444
451
451
439
426
432
440
450
451
452
446
442
440
439
440
443
453
464
475
472
465
465
464
470
466
464
457
457
463
456
449
456
454
443
440
440
441
443
446
441
457
467
461
453
456
461
464
461
463
458
455
462
471
481
488
494
490
472
457
448
434
429
437
443
440
438
442
453
466
468
465
467
464
459
459
458
463
461
453
454
464
468
470
473
468
462
450
443
450
458
460
463
473
476
480
484
497
520
539
547
551
566
591
609
629
656
683
707
733
763
802
835
852
851
848
845
845
852
873
897
916
926
928
921
894
858
815
746
671
594
499
405
322
247
184
138
106
75
57
57
61
76
94
112
131
146
162
184
210
236
267
296
317
334
348
352
359
368
382
387
399
408
419
427
425
434
446
453
464
476
489
494
488
493
490
487
491
490
482
482
480
481
481
481
489
498
499
503
512
521
526
519
508
510
516
518
512
517
530
538
541
548
553
550
546
544
544
546
542
530
519
510
512
515
515
522
528
530
527
527
531
523
517
510
512
512
513
515
518
519
516
515
515
533
546
545
540
544
542
538
536
540
544
545
549
552
544
543
540
544
542
540
542
544
543
550
558
559
552
543
536
534
531
522
522
531
534
524
514
509
518
528
540
554
571
584
587
583
569
560
557
556
554
559
572
582
586
583
564
552
555
559
570
580
577
579
584
577
566
567
570
574
579
579
578
579
580
583
581
571
570
576
579
582
584
585
591
594
591
589
598
607
614
613
609
609
603
595
589
592
600
606
611
611
602
585
573
576
579
581
575
570
568
569
573
576
579
580
577
576
575
575
579
573
563
551
544
540
535
528
530
538
542
543
537
529
522
520
521
518
508
500
498
495
491
492
502
508
503
498
494
484
469
461
463
463
455
453
456
459
451
440
430
421
424
432
439
439
439
442
437
428
419
408
400
400
412
429
423
407
405
401
389
377
371
369
368
371
372
369
362
357
355
359
369
384
398
404
405
411
417
413
404
400
399
395
394
391
393
397
395
389
390
388
385
387
386
382
389
394
397
393
386
379
373
365
365
374
390
401
403
402
402
402
407
417
424
422
418
407
408
415
416
415
405
403
405
408
421
430
430
417
411
412
417
420
420
419
411
409
405
409
418
433
435
441
448
451
448
446
440
438
436
430
433
442
453
449
447
437
437
439
445
451
455
456
454
461
455
446
439
436
439
448
457
457
448
442
442
450
462
474
486
502
508
495
482
469
460
457
460
466
473
476
481
471
469
467
464
458
450
449
457
463
472
480
480
485
494
506
509
509
504
504
505
505
505
497
493
482
478
471
466
470
475
475
470
463
455
451
458
477
490
500
500
496
490
482
474
471
477
478
479
483
487
491
495
481
452
428
429
445
462
472
477
476
464
453
443
447
467
482
492
499
495
489
495
496
485
473
476
482
484
483
479
475
478
478
478
487
491
492
493
492
487
491
496
502
500
494
487
488
479
467
467
466
463
457
463
468
471
471
476
487
504
506
509
510
505
495
495
495
489
486
491
489
489
484
482
473
466
465
464
460
456
455
457
457
460
459
457
458
449
453
467
487
492
490
492
499
493
483
483
483
489
492
484
480
483
482
478
479
486
484
485
490
485
485
489
494
505
506
500
497
494
491
483
466
459
461
471
490
502
496
494
497
488
481
484
501
523
529
532
537
533
525
525
526
538
542
540
535
527
524
520
519
515
511
504
498
507
505
512
526
537
540
546
549
550
548
542
535
538
547
549
542
538
523
502
483
472
470
471
473
479
488
491
484
473
464
462
465
461
465
470
467
462
468
469
463
450
448
455
462
469
474
483
490
491
487
470
461
451
449
451
452
457
466
468
469
466
457
454
461
466
466
473
478
473
460
454
451
457
470
478
476
476
480
475
464
454
452
455
457
467
464
459
460
455
445
444
453
465
475
484
484
480
483
486
484
492
493
489
489
497
494
481
469
464
457
442
431
432
440
456
474
488
482
467
463
467
473
468
457
465
466
462
452
455
459
468
471
477
482
490
503
517
533
552
567
593
617
633
656
677
700
739
792
836
865
882
898
921
930
937
933
927
921
907
893
899
903
894
862
816
751
664
588
513
435
353
268
188
129
100
86
76
58
43
42
56
76
100
119
134
158
179
192
204
227
256
275
302
332
355
372
384
386
393
414
418
416
430
439
446
454
469
472
486
497
492
488
495
499
496
491
493
495
499
519
521
519
514
511
518
519
513
508
514
516
520
527
533
530
529
527
525
528
532
532
525
528
531
532
528
526
537
542
545
547
538
526
531
540
540
535
529
523
528
530
539
549
543
540
540
539
532
524
527
538
549
560
567
573
566
559
549
548
554
550
551
549
544
549
551
543
539
538
544
549
562
574
575
566
559
550
560
567
559
551
543
533
525
521
527
536
543
554
565
561
549
542
540
545
550
554
555
563
565
566
584
592
584
582
581
585
589
593
589
588
593
603
600
588
573
571
568
566
567
575
575
569
569
577
584
584
582
588
604
615
622
618
604
598
597
594
588
585
589
596
594
588
595
600
601
611
617
616
610
603
603
614
623
625
627
626
614
595
586
586
594
605
609
607
604
594
585
578
563
550
551
552
552
551
553
548
547
551
553
540
532
529
540
537
527
518
513
512
512
515
513
510
520
519
506
494
488
488
489
477
466
464
463
462
460
457
455
450
446
441
443
445
440
439
443
449
449
443
428
417
414
419
431
438
432
431
416
399
386
380
386
394
405
409
401
388
381
385
390
394
395
395
392
388
379
384
386
381
380
377
376
372
368
361
359
360
370
367
363
366
367
379
390
385
378
382
381
371
372
381
391
402
407
405
401
397
397
392
393
402
412
409
403
391
390
390
393
389
397
405
412
410
406
409
417
416
413
413
419
427
436
441
434
432
438
449
459
460
459
452
442
434
436
443
457
466
463
459
463
464
464
457
445
452
456
450
451
449
447
447
453
464
472
470
472
461
451
447
450
458
462
463
468
475
466
444
444
456
464
470
479
482
482
481
486
487
476
467
455
445
444
448
451
457
467
476
484
485
478
479
486
497
499
493
489
484
482
483
486
490
491
484
481
479
472
466
461
460
464
468
480
488
486
486
491
493
491
481
476
477
478
476
478
483
484
491
484
474
476
481
486
491
500
503
505
496
480
483
478
467
461
455
453
453
452
456
465
463
451
449
461
477
483
484
481
471
460
460
475
487
482
483
480
479
481
478
484
495
498
498
500
495
490
484
476
478
475
468
460
459
467
473
482
486
488
490
492
494
488
475
476
478
481
478
479
484
484
482
486
481
467
460
466
472
473
474
467
471
489
506
506
494
492
494
486
483
497
506
509
518
524
524
520
513
503
487
470
460
463
467
476
478
477
472
470
478
488
502
507
501
507
507
518
529
535
534
532
524
518
521
529
537
542
543
549
547
544
540
530
527
511
511
524
529
543
546
534
526
525
526
516
507
501
506
502
504
510
510
509
508
505
504
500
494
482
486
487
489
482
483
487
484
489
491
499
491
484
474
461
455
458
466
475
483
484
485
479
467
454
447
451
458
459
456
462
461
465
466
460
454
453
452
455
460
458
460
463
463
460
461
463
469
475
486
495
495
497
492
482
471
464
461
456
450
457
465
469
483
497
504
514
496
479
472
458
436
431
433
436
438
445
463
475
471
474
484
486
488
489
487
484
483
480
474
472
477
485
488
492
493
481
469
465
463
463
472
482
484
472
469
466
466
472
479
493
515
531
538
554
573
598
633
659
685
711
742
774
809
835
856
880
891
889
888
896
897
892
886
881
857
840
818
770
706
635
573
502
421
337
255
167
91
50
35
31
28
29
43
67
88
108
120
132
153
179
204
219
235
252
280
311
327
341
356
368
378
394
402
406
416
419
429
446
453
459
467
472
476
484
488
486
489
502
524
535
530
532
540
547
540
533
536
533
537
534
521
512
509
516
524
525
528
531
526
524
527
541
551
549
544
544
537
534
538
540
545
549
548
547
541
537
537
531
519
516
527
544
551
550
549
542
530
529
538
542
544
537
545
560
566
565
562
558
557
554
543
542
544
541
536
530
533
536
542
546
550
561
560
555
551
553
563
568
568
573
575
568
556
549
542
543
539
546
571
592
600
603
594
575
558
547
538
539
535
536
550
561
575
581
578
575
568
560
556
553
552
555
560
568
566
563
565
564
563
568
568
571
570
575
586
594
600
599
596
593
597
600
611
623
610
599
592
582
577
579
583
569
560
570
580
590
600
606
610
612
614
605
593
581
579
592
611
614
608
603
593
590
595
595
579
564
560
555
561
563
569
574
578
580
571
551
539
527
525
528
540
540
530
525
522
512
501
492
496
494
498
511
524
529
518
510
508
507
505
501
497
489
473
458
457
472
478
471
463
446
439
437
429
425
427
427
426
426
430
430
432
435
432
422
404
398
402
401
393
394
406
420
428
421
415
405
396
389
382
377
361
355
359
364
376
381
371
363
368
371
366
366
365
365
368
371
368
366
367
376
389
391
392
398
400
388
380
377
378
383
385
379
370
364
368
385
392
397
392
391
396
402
400
398
402
401
393
393
404
415
427
436
432
435
445
448
442
437
437
437
436
433
444
456
459
457
459
457
459
452
439
435
441
443
444
438
431
431
427
431
438
442
446
450
450
446
440
442
448
454
463
460
461
462
454
444
439
440
449
463
477
483
483
481
475
468
460
465
469
459
459
466
472
477
476
466
469
475
475
474
478
478
479
480
485
500
499
495
491
488
480
472
475
474
472
471
468
464
467
463
460
460
466
477
486
481
480
489
501
501
502
508
511
507
506
506
509
505
499
500
491
477
471
465
452
437
434
438
449
455
453
453
464
472
472
470
469
464
463
467
468
471
475
480
487
486
478
476
474
469
467
473
492
506
503
499
498
486
479
479
481
469
459
460
462
464
466
469
477
479
475
474
487
493
488
482
471
472
468
468
473
471
475
482
486
484
487
497
500
495
486
484
484
477
477
476
479
489
496
499
497
493
490
490
491
487
479
474
475
481
490
495
490
482
467
464
467
466
462
453
450
453
462
470
480
498
514
514
509
513
515
525
535
545
551
555
553
554
557
562
561
560
554
540
537
542
544
539
531
532
534
521
514
520
522
517
515
505
502
496
496
491
490
486
483
474
465
461
457
463
474
481
485
484
487
488
491
488
484
476
470
472
474
472
466
457
453
459
470
474
477
475
472
470
466
464
459
459
464
461
456
459
463
462
470
478
476
474
468
468
464
458
451
451
445
436
431
432
437
443
463
483
485
484
493
499
496
494
497
494
490
484
486
489
484
484
491
488
483
466
453
449
450
458
471
477
474
473
471
480
478
462
451
445
446
452
464
475
483
479
461
452
453
458
467
471
469
472
480
484
487
486
479
477
482
492
503
512
523
537
552
573
591
612
646
672
696
717
744
772
804
824
839
849
869
899
918
908
888
872
861
866
875
878
852
818
755
673
586
503
426
356
284
219
164
122
102
85
69
63
76
98
119
150
174
182
197
213
239
264
286
316
329
339
347
352
353
354
363
373
384
394
399
407
424
448
466
470
475
482
482
477
472
469
476
491
506
514
530
533
524
516
514
512
516
519
512
508
512
523
533
537
541
540
540
539
538
532
523
522
529
530
529
529
528
525
523
518
511
513
523
531
525
523
528
537
552
551
550
549
553
553
552
541
526
524
527
530
535
544
544
548
547
546
544
539
529
528
537
552
561
557
550
538
538
536
523
533
541
546
547
549
549
543
538
537
541
541
544
545
548
546
551
558
559
557
558
556
547
551
557
551
556
551
542
544
550
550
553
562
568
564
561
563
576
585
591
590
584
579
575
570
560
556
548
548
556
553
557
560
565
568
575
584
591
593
597
597
598
597
595
593
589
589
588
593
596
590
583
585
591
589
580
593
600
595
591
592
589
584
589
592
590
592
586
581
577
567
553
543
537
530
531
540
556
580
588
579
579
578
577
582
582
582
570
557
552
546
543
539
533
522
516
518
522
516
506
496
499
498
491
492
486
477
477
476
475
478
468
460
463
465
460
453
449
447
450
453
451
453
450
446
440
441
454
462
451
436
428
429
432
429
424
410
407
406
406
402
398
396
394
393
389
378
372
370
365
357
351
348
355
362
367
365
362
375
388
401
412
419
412
405
399
393
395
389
388
391
393
391
384
380
383
393
396
400
402
399
392
391
392
390
381
377
378
375
378
381
383
395
406
408
400
395
395
395
400
407
414
413
427
436
430
419
411
406
404
401
396
402
406
406
405
409
414
419
430
435
438
443
451
450
444
444
451
448
435
432
431
425
424
420
417
418
414
409
411
416
426
441
450
448
451
449
460
477
484
486
478
468
464
459
459
454
455
459
466
466
460
466
477
478
468
460
457
466
477
485
493
494
493
497
489
475
464
462
461
458
445
434
438
453
462
464
458
460
462
468
465
467
470
476
478
482
481
472
469
465
466
465
466
468
482
495
490
484
482
473
465
471
474
477
485
478
467
464
479
488
484
474
465
464
467
468
468
464
450
440
449
460
465
472
479
481
480
473
472
478
483
486
499
513
510
486
467
464
465
475
488
495
503
513
508
494
474
465
468
471
470
464
467
463
456
460
464
449
445
448
454
465
470
472
466
465
464
461
455
452
458
463
465
469
471
471
465
464
471
478
477
475
481
483
475
462
457
456
452
445
441
442
444
451
466
484
490
484
485
490
492
493
487
491
491
494
490
478
470
470
473
476
479
489
493
488
484
479
478
480
476
469
466
462
462
472
492
497
494
493
490
498
515
525
528
526
512
503
501
502
505
509
508
500
494
494
492
490
494
504
511
517
520
511
512
513
509
499
500
498
489
487
492
497
495
493
490
482
475
475
472
466
464
469
469
467
457
444
439
440
443
441
441
444
449
449
447
445
440
431
434
440
450
456
458
453
445
439
445
452
446
443
444
442
449
460
459
457
457
450
437
427
424
415
408
409
423
433
441
438
442
445
444
437
433
434
434
439
447
451
452
438
435
435
437
448
453
447
449
457
462
465
466
464
461
447
433
429
427
426
426
429
437
443
446
454
461
463
464
463
460
456
448
447
454
458
451
443
436
439
446
451
446
440
443
449
458
463
462
471
493
514
530
539
544
563
593
620
648
682
712
743
770
807
848
873
878
892
898
895
891
880
859
860
882
886
869
829
776
723
648
558
473
402
327
247
176
125
88
65
48
32
32
53
78
98
101
101
113
134
159
190
218
243
274
301
309
306
309
318
328
335
343
357
373
385
401
416
420
424
428
431
435
441
448
456
460
466
463
460
466
469
477
489
495
497
500
503
495
482
474
468
468
467
475
499
510
510
501
492
491
505
517
520
522
520
518
514
514
515
522
526
531
516
494
493
501
510
509
512
515
513
513
509
500
491
489
494
496
502
501
509
516
517
516
517
515
509
511
513
507
495
488
490
492
496
506
513
513
516
517
517
523
530
527
513
496
484
489
494
496
508
517
531
544
550
553
553
550
536
533
542
543
539
531
526
523
518
517
522
527
532
529
517
515
529
542
550
553
553
546
541
535
526
523
531
544
548
548
541
538
540
542
555
565
556
561
570
579
574
569
576
580
579
576
574
576
572
571
558
544
537
525
520
538
559
570
580
574
567
562
562
562
562
561
557
555
553
554
548
543
538
540
547
561
562
558
553
553
549
551
544
541
539
532
531
531
528
528
530
521
515
513
514
519
513
508
501
496
491
486
477
472
477
485
486
484
481
484
491
485
465
447
447
449
453
455
457
453
444
437
426
417
413
409
404
406
401
398
392
384
384
386
388
392
398
404
398
395
393
393
393
393
387
379
372
368
368
368
370
372
367
363
366
368
371
373
370
373
376
366
356
349
348
359
366
372
374
374
378
384
375
364
363
367
363
362
364
361
361
363
358
359
359
365
365
377
386
391
391
387
387
386
396
394
392
394
396
399
400
398
396
394
398
393
394
398
398
399
397
391
386
396
405
398
372
361
369
378
381
391
388
396
410
416
429
433
426
418
426
431
438
438
441
446
448
444
441
439
433
432
440
443
447
454
455
454
454
455
453
458
460
458
447
434
430
441
453
462
452
442
446
456
459
459
458
450
444
444
449
446
433
424
425
432
432
434
451
466
466
461
460
467
460
454
455
458
463
468
469
466
467
475
477
476
478
469
463
463
467
472
471
473
472
469
465
461
451
443
437
427
426
431
434
446
459
471
484
497
500
491
491
489
479
474
465
455
451
449
450
450
454
464
471
469
469
463
460
459
463
465
463
463
472
471
460
458
465
473
477
480
486
494
494
469
448
440
443
444
448
450
453
456
445
443
455
463
464
460
459
449
442
434
436
444
454
465
476
484
493
490
486
482
481
478
478
478
477
474
475
474
470
469
469
469
468
460
458
458
451
439
443
456
453
445
449
452
459
467
476
477
472
468
459
460
472
482
480
477
472
468
472
469
467
474
477
481
481
477
476
474
456
438
433
431
428
426
438
457
476
488
497
495
496
508
518
507
494
488
486
479
474
480
479
467
460
467
466
462
465
471
475
477
478
480
483
487
492
508
522
531
535
535
524
519
512
500
491
494
501
506
504
498
504
507
509
521
536
543
546
536
537
536
509
485
479
481
492
497
499
500
492
482
479
477
471
459
453
452
447
443
437
432
432
432
426
429
439
447
455
460
463
461
458
461
461
458
458
455
457
462
463
461
462
461
462
467
464
457
453
456
464
469
472
474
468
458
455
452
445
439
437
439
439
440
440
437
433
431
441
448
445
440
442
452
460
466
470
473
471
463
453
446
454
464
475
473
464
465
470
465
459
451
446
447
448
453
454
449
454
464
463
466
464
457
463
468
464
458
459
462
466
465
460
456
459
458
451
446
444
442
451
457
457
458
472
500
521
532
543
545
561
580
605
630
658
681
707
739
776
813
849
868
881
896
899
899
904
911
915
908
891
884
876
858
828
785
717
636
549
451
361
280
212
151
94
62
51
44
35
35
52
65
77
93
110
128
149
170
192
226
261
289
314
331
342
360
368
368
378
390
395
394
399
410
422
431
437
444
448
448
446
463
486
500
496
499
506
513
511
508
511
502
497
501
510
517
529
531
525
522
524
523
521
524
520
513
522
528
540
548
554
554
551
548
534
522
516
520
527
528
529
527
530
525
523
528
535
534
537
540
536
531
525
519
516
521
521
512
512
519
526
531
534
530
536
548
556
553
543
538
536
536
537
538
540
546
560
561
556
548
545
541
545
550
545
541
540
535
531
529
521
516
524
534
534
531
530
527
532
540
544
549
554
555
562
564
561
559
568
578
586
594
590
588
591
596
596
594
593
594
585
570
557
551
558
563
567
556
548
548
549
557
564
569
573
575
578
578
575
568
574
576
573
586
598
599
603
607
605
605
607
605
599
599
593
596
599
595
597
594
589
586
591
597
596
590
580
581
595
592
573
564
567
568
559
549
546
547
550
552
563
570
568
569
569
564
544
530
526
528
531
525
514
514
526
518
507
501
505
507
508
510
507
490
473
474
478
479
480
484
481
483
491
496
498
495
484
468
452
445
443
435
437
434
430
422
423
424
422
419
411
404
409
412
416
418
423
418
416
413
403
398
412
419
420
423
433
438
432
419
409
401
395
397
395
396
396
401
403
408
405
397
387
377
375
378
374
364
372
387
394
377
371
372
373
390
398
401
404
402
396
391
393
395
400
396
397
401
401
400
403
411
419
421
427
434
440
440
435
437
434
432
436
440
442
446
441
438
438
440
434
426
421
432
448
463
465
464
451
435
429
442
449
457
458
456
455
459
462
461
455
441
438
441
450
462
472
477
476
463
450
452
455
452
451
453
461
479
490
492
485
471
463
470
476
475
478
485
495
502
494
479
468
462
458
451
455
458
464
473
486
484
487
490
486
486
489
499
507
506
506
508
507
497
479
466
460
462
463
471
476
484
497
512
522
513
500
491
484
487
490
488
477
471
476
482
472
466
460
453
450
458
467
481
490
484
477
475
473
464
465
474
487
489
487
489
487
490
491
494
491
482
478
489
482
462
446
440
445
454
460
470
477
485
495
501
513
520
511
507
500
486
477
479
485
492
495
485
491
495
489
483
478
475
475
465
453
456
461
465
481
495
499
497
492
492
488
490
494
483
481
486
485
488
488
490
492
489
494
494
501
505
496
481
474
476
473
469
470
469
471
475
477
475
477
473
473
468
470
478
480
479
485
494
507
505
491
484
491
500
498
501
507
506
509
507
500
495
487
489
490
488
492
500
501
505
498
494
485
485
484
489
498
494
487
475
466
474
490
503
508
505
506
517
523
527
537
541
537
539
541
556
560
551
540
535
533
528
523
531
532
524
533
532
525
513
510
510
513
510
505
507
506
501
505
510
512
510
512
514
518
524
515
498
480
475
477
485
494
498
497
507
511
508
500
483
476
473
466
464
465
466
463
453
449
450
465
479
487
494
490
478
476
475
475
479
479
472
460
458
471
481
487
484
479
477
473
462
456
446
441
442
447
451
455
454
458
458
462
469
464
463
471
473
473
474
479
471
465
460
451
449
454
460
463
466
479
493
495
492
494
496
492
494
499
485
468
456
452
454
460
464
468
467
465
457
457
460
467
474
480
484
487
490
488
483
491
492
489
486
481
480
488
491
501
517
534
546
564
584
606
629
649
654
662
684
719
762
810
853
877
884
891
895
889
886
879
863
856
856
851
833
806
760
695
627
548
463
369
283
196
98
31
17
18
21
24
36
51
76
102
118
134
150
167
195
226
246
262
267
280
301
327
354
373
387
402
412
418
423
434
446
455
466
477
484
490
501
517
524
525
522
521
526
535
544
540
529
525
522
522
531
530
526
513
503
502
496
504
518
525
535
546
549
544
542
543
541
531
523
522
521
529
537
543
544
547
547
552
553
553
552
548
544
538
533
533
534
537
547
547
544
543
545
548
556
562
569
574
572
560
555
554
552
551
554
556
554
551
560
565
560
553
539
537
537
529
528
547
561
567
570
563
559
559
557
551
544
548
555
553
557
563
565
565
563
564
570
571
572
575
575
569
564
564
564
559
560
562
568
569
569
571
569
565
567
575
575
577
584
589
587
578
570
572
574
578
585
580
579
590
596
600
598
603
615
614
609
608
608
607
603
599
591
587
585
582
583
588
588
584
584
583
584
580
576
571
568
574
577
570
560
557
558
556
547
542
554
574
584
595
603
594
581
567
562
563
569
568
562
559
555
540
528
532
539
541
541
538
536
534
533
526
519
510
500
499
503
499
498
499
497
492
489
486
486
486
487
482
475
460
458
458
462
467
466
464
458
457
454
448
439
433
430
429
421
420
423
430
426
418
425
429
431
432
435
433
424
415
399
386
384
383
388
390
380
381
376
371
370
371
372
373
363
358
362
372
382
389
385
380
368
361
361
365
372
377
400
412
410
409
418
422
418
417
414
409
404
400
398
403
403
409
417
429
433
426
416
422
430
433
438
438
432
424
417
416
416
416
413
405
407
417
429
435
436
435
434
440
445
440
439
442
446
437
435
435
426
420
418
421
428
427
428
427
429
435
447
460
465
471
472
475
476
476
477
471
465
474
487
492
482
471
469
467
468
465
463
461
466
475
485
488
485
485
484
482
482
479
472
484
494
495
501
500
502
504
497
487
478
474
473
476
480
487
495
498
496
482
479
486
486
484
478
476
469
472
480
484
487
490
485
474
470
469
470
471
472
476
483
490
492
496
494
495
491
488
483
477
469
450
445
450
457
467
477
480
473
467
464
461
463
473
486
494
494
