424
417
455
451
474
504
477
447
423
419
419
417
429
430
426
425
425
438
450
455
463
463
461
465
451
450
455
475
484
483
479
447
448
469
457
459
468
468
482
496
492
458
418
426
460
485
477
472
479
458
423
426
472
492
461
446
440
449
459
466
469
459
454
477
473
463
472
480
478
473
471
460
456
457
464
483
459
448
501
515
496
493
494
492
479
472
477
456
434
448
450
470
454
449
461
471
500
523
528
518
499
512
505
506
514
514
511
518
509
500
511
504
509
509
500
498
495
503
533
554
553
533
530
549
546
527
519
505
483
486
499
520
521
522
511
486
487
479
459
448
426
400
411
421
447
472
483
487
461
466
461
458
449
450
450
444
451
439
442
442
441
429
430
430
436
438
402
421
448
432
431
428
412
408
401
396
429
456
451
430
432
458
464
431
405
408
419
422
416
412
426
443
452
440
431
436
429
428
436
445
461
477
487
469
435
408
411
425
428
417
426
425
430
441
438
463
475
480
479
463
464
488
502
489
460
432
440
489
515
513
523
538
560
584
596
602
592
601
599
586
587
608
627
634
610
588
603
600
564
494
444
388
328
303
284
263
270
283
276
261
253
238
261
286
297
284
257
260
289
301
313
324
351
383
410
391
408
449
443
444
471
466
456
477
476
469
461
466
477
469
461
512
519
467
443
454
463
472
474
461
468
476
484
472
472
488
483
484
504
503
479
467
484
483
494
499
493
490
482
471
481
471
465
480
487
501
533
535
512
509
491
479
487
487
521
533
518
511
505
502
500
480
471
488
484
492
488
492
503
494
482
506
511
488
484
495
488
495
533
546
522
477
459
495
535
531
504
491
508
530
519
522
523
506
499
523
544
548
527
528
530
539
531
534
539
529
511
493
499
521
540
538
536
538
546
538
531
558
577
556
521
523
540
559
540
535
555
593
574
541
524
515
533
538
553
547
516
535
558
574
565
545
550
557
556
559
546
539
553
574
584
588
590
590
573
548
545
534
517
531
541
516
509
529
538
563
569
560
581
592
569
558
563
567
571
549
545
553
546
504
511
521
528
534
521
523
534
519
515
525
524
540
536
516
514
521
518
512
544
550
548
547
518
482
485
510
516
492
477
484
502
480
469
478
489
487
509
522
506
484
473
474
476
472
472
461
461
463
458
446
436
420
416
423
432
428
411
404
431
437
444
440
429
435
438
427
433
426
414
412
417
416
426
432
456
440
435
403
387
430
430
413
430
445
440
437
423
407
409
424
442
448
435
425
403
392
394
375
399
454
481
481
475
465
468
461
447
420
432
443
439
484
504
465
449
459
468
455
431
433
423
428
447
462
454
455
470
469
467
458
442
449
461
465
460
449
448
445
442
445
438
432
439
469
478
485
493
478
451
432
425
437
448
448
430
436
429
441
457
473
493
497
472
467
488
503
501
462
445
462
478
484
472
460
456
469
480
494
495
499
468
445
437
449
444
448
451
470
471
465
465
465
445
433
478
496
465
440
442
455
478
510
494
466
449
444
453
462
471
465
471
479
470
445
445
441
449
443
455
451
464
459
439
429
427
436
441
472
508
516
493
495
507
490
474
466
475
495
487
465
433
414
476
536
555
538
515
492
471
486
483
472
478
494
517
517
519
536
544
519
489
495
492
503
510
488
489
487
488
503
517
522
531
539
541
556
551
540
527
525
522
527
530
544
533
501
496
494
502
505
488
462
450
477
501
497
488
487
473
438
426
423
420
421
420
421
423
416
442
435
454
432
397
417
445
461
455
444
444
442
440
439
434
437
458
454
408
387
414
453
477
469
462
432
412
418
420
432
434
422
407
405
442
481
470
486
471
435
423
424
412
413
432
467
461
437
433
423
423
421
412
400
413
422
436
439
430
421
418
449
480
496
498
488
478
483
483
504
520
485
487
506
519
511
526
549
577
599
605
612
620
614
578
597
616
637
654
622
599
579
567
549
519
486
458
405
342
288
257
239
224
229
233
224
238
245
253
239
261
248
266
277
276
273
312
368
392
383
370
356
385
431
454
461
463
455
461
468
488
484
483
485
488
493
485
484
481
475
469
476
463
460
486
494
488
492
492
483
490
501
498
504
503
511
469
460
478
473
472
486
510
524
510
485
475
480
484
492
500
507
487
471
484
500
511
508
500
493
497
506
524
519
512
521
514
513
508
478
461
462
475
494
495
503
504
509
506
502
491
494
520
544
528
513
492
467
432
473
519
524
503
511
539
544
525
522
532
522
508
521
515
515
534
532
527
511
515
535
553
526
542
544
535
535
513
519
513
515
524
536
550
539
530
537
526
499
518
577
589
570
554
546
554
567
560
560
581
563
553
546
555
563
565
562
560
550
541
539
543
544
550
557
541
545
541
550
544
554
572
570
568
558
567
568
576
588
582
562
541
533
537
549
550
537
539
565
580
557
543
549
561
560
538
537
517
487
471
509
538
537
535
563
579
579
553
530
536
546
554
544
541
535
536
534
519
510
520
534
533
527
518
521
505
472
485
502
522
519
501
512
523
512
497
502
482
431
421
462
468
465
441
433
448
484
476
433
421
413
435
459
474
462
455
439
435
451
451
429
417
426
464
463
458
433
410
418
415
447
439
442
446
428
435
433
415
416
420
426
435
425
420
425
420
407
415
439
426
405
429
436
416
415
424
436
437
451
455
458
447
441
456
459
432
416
440
458
438
422
448
467
469
471
460
462
453
440
470
458
465
480
493
467
441
409
405
437
458
465
470
495
489
467
447
435
425
431
441
456
474
462
473
482
469
458
450
473
476
459
454
478
467
443
440
446
472
482
472
444
448
445
459
464
474
471
467
452
456
437
453
485
482
470
457
441
424
433
466
458
460
458
463
457
463
457
435
448
473
490
512
484
468
466
468
469
476
492
507
503
490
466
458
469
477
478
484
472
467
453
450
433
413
466
490
481
462
467
458
467
473
477
480
471
474
476
488
482
462
440
438
447
447
449
445
443
451
436
445
445
447
457
453
461
466
484
479
496
496
483
466
458
460
459
448
457
481
490
493
489
499
492
478
497
530
504
489
485
495
498
513
504
488
474
473
497
522
523
498
493
498
512
530
533
521
518
527
538
544
529
513
519
532
534
527
541
559
566
563
547
528
510
480
474
484
504
510
491
477
460
457
468
462
475
459
449
476
481
439
421
417
406
416
424
426
417
389
427
437
427
429
455
456
451
451
448
430
423
417
418
432
439
424
441
455
438
427
453
459
423
407
424
423
424
423
426
437
447
445
446
454
446
423
407
404
410
417
426
423
432
434
422
417
424
446
472
490
506
496
444
432
448
456
451
430
408
427
448
479
486
471
464
467
494
498
500
494
495
512
535
560
573
560
582
614
626
619
595
603
611
580
566
583
605
604
597
577
551
502
457
440
401
352
310
291
282
251
229
220
203
205
199
200
216
234
257
283
307
329
333
343
366
397
406
423
416
402
411
422
421
432
462
476
463
475
480
465
447
446
465
503
519
503
490
492
484
469
512
523
491
473
478
492
489
493
496
484
478
493
500
505
495
468
480
493
498
502
517
494
485
502
531
510
477
451
462
482
460
462
476
485
499
502
515
524
499
507
504
497
514
520
517
500
496
505
528
531
510
488
488
478
486
493
514
508
500
501
499
497
495
510
538
556
535
497
472
492
480
491
507
519
533
533
542
536
547
544
529
508
499
504
515
537
550
557
552
526
535
556
546
527
522
534
543
537
537
541
538
540
548
564
559
558
577
568
544
522
528
532
521
537
561
545
547
548
533
539
567
563
551
557
581
555
521
514
529
535
546
567
564
568
566
552
551
586
586
561
550
540
539
552
575
566
542
531
535
546
546
532
520
522
538
538
539
551
559
556
547
544
553
560
566
564
527
536
550
540
532
550
564
549
528
543
552
548
543
529
512
517
516
511
516
519
510
524
566
558
518
492
509
521
518
507
499
500
487
468
467
467
459
466
480
488
471
460
470
464
448
430
422
423
432
432
434
469
482
441
420
426
439
463
459
423
426
432
435
439
437
406
406
414
405
418
435
437
432
440
433
427
413
382
403
420
419
447
448
432
437
421
401
404
425
440
436
437
425
422
427
429
433
443
459
450
433
421
435
446
468
478
473
477
460
422
423
430
431
438
444
442
440
436
458
457
449
462
472
466
463
441
452
495
498
485
482
459
434
458
459
435
440
447
439
434
440
463
475
481
467
451
458
451
453
457
466
454
457
472
490
473
463
440
444
455
443
439
451
452
430
417
418
440
484
464
447
454
477
476
482
467
455
454
463
484
484
464
454
475
471
478
474
469
464
451
451
455
463
464
439
439
443
468
467
465
479
483
468
457
449
459
479
492
496
495
474
450
455
449
442
435
440
438
423
418
427
433
455
466
448
422
437
445
462
470
483
508
523
524
533
514
467
460
472
462
458
452
465
472
477
479
473
480
501
510
495
487
497
524
528
523
506
507
530
518
516
511
508
515
515
501
464
466
492
494
494
515
559
579
566
557
552
532
525
517
519
518
525
527
524
522
528
517
491
474
455
463
465
469
448
430
437
456
454
457
470
461
445
459
480
495
471
441
408
409
427
451
435
437
470
462
463
432
431
431
456
501
500
471
444
406
401
411
414
406
419
426
425
422
432
444
445
455
450
453
470
450
432
429
422
440
459
442
423
406
409
409
424
418
415
455
489
502
506
464
422
438
445
444
434
446
462
466
472
490
489
484
478
462
472
473
493
492
487
503
511
527
544
559
562
581
577
582
581
601
604
615
609
592
594
616
610
626
604
580
566
527
484
461
432
390
339
309
268
287
296
299
295
250
218
221
264
277
271
267
264
278
291
314
346
383
389
365
373
408
437
412
420
443
464
484
472
472
469
490
506
493
473
457
460
464
468
485
502
509
476
470
497
491
504
484
486
507
503
472
467
477
497
483
466
467
485
488
466
463
475
489
492
490
472
485
495
507
518
489
469
492
488
465
492
507
491
466
479
489
492
481
470
467
476
507
522
509
542
556
572
549
514
505
494
501
489
466
479
504
518
529
554
552
515
494
509
511
514
509
529
517
513
519
524
520
498
497
486
504
527
542
540
567
602
585
548
513
487
477
507
527
529
495
468
499
509
501
506
493
494
510
533
529
508
500
526
563
556
537
536
540
542
543
557
556
519
505
520
543
586
579
576
587
583
571
559
573
564
534
530
547
552
531
534
540
576
562
539
537
543
564
571
546
519
521
538
527
556
591
568
555
541
534
535
544
532
525
530
527
540
544
547
525
517
513
515
505
487
466
494
519
513
516
519
543
553
528
515
517
540
559
542
529
567
559
556
511
473
472
466
464
461
470
484
497
511
496
478
476
456
446
478
487
480
467
485
488
459
436
436
455
480
459
440
423
402
395
420
425
410
443
444
421
403
394
369
371
372
375
404
412
435
456
464
476
482
481
449
434
427
443
450
432
368
350
371
392
427
447
411
384
401
426
421
416
427
440
463
467
429
397
402
395
396
416
429
389
378
381
398
404
428
428
449
439
434
428
429
422
448
475
470
455
460
473
450
426
437
429
449
389
412
457
459
432
429
425
442
457
445
422
44
413
447
476
475
474
474
452
444
439
448
459
466
461
480
502
478
457
450
440
433
449
467
479
478
471
459
451
451
461
473
458
459
465
465
472
477
467
467
463
447
443
464
481
487
502
507
485
459
448
464
470
478
481
492
498
441
444
453
442
462
469
467
470
479
491
483
471
474
474
468
464
465
480
480
470
465
476
487
477
471
460
442
430
455
477
479
470
483
489
469
454
473
482
480
478
470
473
465
463
450
469
479
479
480
495
483
497
490
464
482
484
493
524
530
498
475
477
487
515
536
516
492
499
488
486
505
520
512
516
521
527
522
532
524
514
503
493
496
497
509
513
538
531
542
545
537
534
552
584
583
517
510
524
523
514
520
535
517
514
515
504
487
481
493
509
499
481
483
470
473
475
468
465
448
463
458
435
449
458
451
447
448
442
442
448
455
451
440
437
449
463
448
440
448
458
455
449
429
416
453
468
453
445
443
445
449
448
438
439
447
451
452
450
435
427
435
434
431
443
461
474
448
450
458
461
472
498
470
435
428
453
472
462
456
452
447
438
435
445
456
459
442
429
432
447
488
515
523
505
494
486
502
500
510
547
566
597
594
608
621
637
668
659
651
656
668
695
692
668
661
661
665
657
634
607
560
521
496
458
400
346
313
258
244
258
262
248
231
226
241
257
267
274
281
298
317
334
347
367
375
382
422
443
431
419
429
465
490
505
517
495
494
490
493
483
468
470
472
480
513
514
489
471
480
514
512
491
498
505
501
483
473
466
468
474
488
495
520
524
500
497
487
486
505
529
495
485
482
487
495
498
504
513
520
508
527
529
479
464
475
511
533
546
533
522
489
487
501
513
503
493
511
516
512
512
520
513
502
509
512
510
518
532
535
540
548
530
503
493
499
501
511
520
533
519
530
537
523
518
516
526
532
531
534
538
525
502
518
549
569
558
552
528
513
515
507
524
545
534
524
523
545
574
558
545
537
535
531
535
541
547
544
540
543
567
592
550
558
575
566
575
555
542
541
554
531
548
572
577
580
589
574
548
545
559
557
560
529
523
531
546
545
549
557
558
560
535
531
531
530
536
547
553
552
549
539
539
556
554
545
560
572
566
565
563
558
535
526
529
539
534
524
542
551
563
557
510
492
513
514
513
518
528
534
517
526
528
518
514
505
513
518
510
503
506
513
499
503
495
479
465
469
485
490
471
462
451
455
464
472
472
472
466
438
421
436
459
481
463
474
501
492
502
480
452
436
419
420
453
459
439
425
425
428
414
406
435
449
452
440
435
443
448
449
447
439
430
430
418
422
434
443
424
426
454
466
439
424
418
425
422
436
449
444
437
443
449
449
461
474
467
452
466
479
482
471
442
441
441
443
444
440
460
469
477
482
453
435
426
426
441
427
433
441
468
490
484
480
481
479
474
474
482
482
477
487
485
469
436
445
453
462
452
439
464
477
483
484
471
454
461
469
485
517
497
453
452
484
478
450
459
478
481
480
489
490
458
456
463
456
469
477
488
492
486
479
475
470
471
461
459
459
460
454
444
445
461
472
489
493
489
472
461
465
479
486
491
489
482
484
487
472
479
484
488
494
483
474
477
488
475
475
471
459
507
532
544
551
556
544
502
494
495
508
508
520
512
494
513
525
512
495
489
498
497
498
513
525
508
505
515
497
504
531
534
553
558
536
527
515
520
526
512
524
520
504
500
498
496
488
481
485
477
471
478
487
486
478
448
441
445
451
458
467
448
438
437
452
466
452
445
439
436
439
442
441
443
440
432
443
457
438
432
433
432
434
416
422
446
444
434
458
455
446
455
463
462
460
449
425
424
453
462
456
463
443
446
430
417
437
464
476
441
427
424
430
436
439
430
445
445
454
463
481
465
462
474
486
481
464
450
454
478
517
524
534
514
476
476
488
524
533
563
594
621
653
676
667
641
651
655
665
674
679
689
667
658
650
635
600
547
501
470
429
384
352
340
327
308
304
292
266
253
252
252
248
251
260
274
308
326
337
336
334
384
436
456
445
444
447
435
429
435
445
466
461
459
463
480
492
501
476
466
490
487
489
488
486
484
474
472
472
469
484
487
497
496
481
489
480
482
476
482
490
493
502
523
519
494
467
454
472
479
480
482
483
456
456
470
488
500
531
554
536
538
515
485
489
494
497
499
504
505
503
497
486
503
516
499
481
497
509
517
520
514
505
500
500
498
497
517
525
517
513
505
497
505
495
522
546
535
535
510
487
484
490
513
544
545
539
545
544
533
525
511
513
521
524
513
487
511
541
536
514
509
516
543
578
586
573
559
535
534
547
555
548
539
536
542
555
541
535
535
531
535
541
541
544
545
542
534
542
561
568
588
562
543
553
569
565
551
554
552
563
553
518
510
523
549
564
571
576
564
554
541
537
522
524
530
550
559
553
551
553
533
535
535
549
570
573
545
534
525
518
514
523
538
541
541
542
539
508
501
519
525
521
522
515
514
529
530
537
508
469
465
481
464
470
476
481
475
474
518
517
500
483
483
483
492
476
461
456
443
444
455
457
449
441
447
459
461
445
450
455
458
467
440
432
428
429
440
433
416
418
433
432
438
441
430
425
438
444
441
442
439
425
441
458
438
433
441
448
444
432
441
442
436
444
425
421
436
435
434
438
432
440
461
473
486
481
465
438
444
454
445
442
442
434
441
447
438
442
455
469
469
465
448
427
418
442
463
476
483
478
464
432
426
443
452
456
456
460
460
450
455
470
473
480
473
480
480
457
426
407
439
441
449
512
523
481
467
469
463
461
453
452
466
479
466
458
462
473
510
479
465
465
482
490
493
482
464
447
445
460
468
479
479
473
477
471
463
463
472
478
480
479
487
495
483
468
457
464
452
459
473
508
501
478
468
481
479
476
477
473
473
463
463
472
501
514
516
506
497
489
491
489
481
473
476
492
507
495
526
528
545
529
468
451
462
498
533
540
550
558
534
509
499
476
491
510
506
503
499
501
503
514
524
534
546
547
541
525
519
523
525
511
490
509
508
513
522
491
465
473
484
489
491
496
484
470
460
462
458
446
433
426
427
431
449
464
452
438
436
434
447
460
468
455
446
446
442
441
443
465
461
459
444
425
431
437
441
439
427
417
416
429
455
478
484
459
439
451
480
434
417
411
415
422
435
439
435
442
452
448
440
451
469
460
441
439
441
449
446
448
446
445
449
463
444
424
435
448
476
487
468
469
497
514
503
499
524
538
552
559
558
562
588
627
647
643
628
639
663
676
684
679
686
701
701
694
682
655
628
586
550
481
430
394
366
344
322
311
296
273
262
256
260
269
279
282
293
300
287
297
319
348
360
384
412
426
415
404
416
423
418
433
453
455
463
468
471
445
438
453
480
483
461
482
480
466
458
470
473
474
482
485
505
498
478
469
482
482
484
497
507
500
480
483
488
469
461
473
479
496
510
494
486
503
506
488
476
480
486
496
499
503
488
474
490
503
499
497
499
511
538
527
493
480
488
492
493
502
514
522
531
530
526
517
492
486
500
496
492
481
485
496
501
513
514
512
511
522
524
536
545
544
523
494
507
515
525
527
504
508
493
529
525
534
543
543
544
543
535
528
525
538
558
559
535
522
523
526
530
530
531
509
483
475
507
586
637
613
562
546
569
573
554
556
556
553
552
540
530
541
547
553
548
553
579
564
539
532
536
543
552
557
564
556
559
557
556
544
534
519
521
528
537
545
566
600
578
522
513
533
548
552
550
544
539
536
537
543
546
550
552
548
546
543
545
557
554
549
532
526
529
526
523
522
523
520
510
506
519
517
510
494
473
480
496
513
520
508
494
493
497
488
482
474
474
480
469
451
446
474
489
492
484
467
458
451
427
437
450
441
444
446
451
436
424
424
427
433
455
438
424
451
479
469
445
445
448
441
436
432
413
400
423
433
418
401
414
422
444
468
468
470
470
444
422
423
449
440
428
420
438
446
445
447
459
474
460
432
431
446
447
447
450
448
443
439
441
448
446
449
458
461
464
470
464
451
454
453
446
447
450
451
451
455
470
483
484
472
449
438
441
447
460
473
475
461
450
448
458
466
470
441
431
435
457
477
497
504
483
475
475
474
465
460
459
447
444
472
496
502
489
481
485
488
465
447
428
438
451
463
480
485
477
466
468
470
485
492
487
478
477
459
463
486
503
493
468
433
455
479
475
464
467
439
446
452
442
461
486
476
468
473
484
496
500
492
480
452
439
443
449
473
480
480
483
471
466
458
448
466
473
464
472
473
471
484
507
518
497
476
476
474
478
475
477
460
456
475
501
515
513
506
509
504
503
503
491
487
509
511
497
484
502
554
553
537
535
512
496
494
489
511
521
506
509
523
538
556
561
551
548
533
543
541
525
517
527
547
559
535
515
508
489
479
489
494
505
501
487
460
457
466
461
462
457
444
447
462
450
441
439
443
434
463
464
451
453
452
422
419
426
439
459
465
454
450
444
438
436
429
429
444
447
444
451
441
420
409
422
452
470
450
432
413
415
442
457
463
458
464
464
426
405
429
457
462
456
448
457
454
447
453
474
469
443
438
457
452
460
460
453
447
458
467
492
519
516
502
505
498
480
486
486
503
542
561
572
586
595
613
632
643
654
658
665
672
681
698
694
686
691
697
693
665
631
591
550
504
449
407
387
351
303
273
262
260
242
233
231
226
226
255
278
299
313
330
350
355
361
375
372
366
365
369
398
461
482
468
466
447
452
481
480
477
476
478
470
457
456
461
467
485
478
466
469
473
486
480
478
482
495
498
481
483
498
491
477
471
489
486
458
448
445
462
510
545
535
519
528
534
531
513
487
494
499
485
485
489
495
496
495
496
507
508
502
500
499
505
509
503
497
510
506
503
518
523
507
506
509
508
507
507
510
504
494
495
493
493
484
498
534
560
555
538
526
519
494
497
508
511
518
531
549
542
525
516
513
529
555
552
529
529
526
537
545
527
516
544
569
542
536
537
532
531
539
543
543
546
549
547
543
560
553
545
544
545
543
529
517
518
531
554
545
566
566
566
544
534
555
555
556
554
559
559
535
528
538
531
523
530
545
560
556
565
575
557
545
546
554
552
551
540
530
562
589
573
545
533
529
521
525
537
545
552
564
556
529
520
528
541
545
545
553
566
557
512
501
518
538
528
520
518
517
522
532
538
535
546
536
498
510
481
493
527
525
493
483
493
481
475
471
461
480
517
530
498
472
458
456
460
462
461
468
463
435
416
414
421
430
475
501
483
468
457
453
430
423
432
433
447
460
458
428
401
433
450
443
422
417
427
430
439
442
429
421
411
411
441
448
444
435
438
420
413
428
455
459
459
463
480
492
458
439
422
412
418
428
449
445
444
451
457
446
435
448
449
445
470
488
471
442
430
433
449
473
481
469
473
481
480
452
448
449
461
456
454
459
470
493
504
477
447
443
450
456
461
474
450
447
446
462
461
485
502
485
462
458
460
452
439
434
456
488
488
490
505
497
475
471
465
468
473
477
476
469
463
458
464
468
473
479
471
450
443
455
454
454
456
460
474
476
462
462
476
481
484
480
472
487
485
486
482
462
452
464
484
484
481
471
464
469
496
494
486
459
439
447
468
479
485
476
455
440
442
437
444
487
523
516
494
483
461
457
451
450
455
460
467
484
503
523
462
429
416
447
486
499
505
480
484
473
465
474
477
483
479
461
458
467
465
466
466
466
454
463
470
479
498
500
492
460
453
464
467
467
468
473
492
487
467
472
482
484
489
502
501
491
510
477
470
479
482
492
492
513
527
516
518
542
533
527
528
529
520
498
496
507
503
506
506
509
515
522
528
531
526
512
521
522
523
534
559
570
557
553
557
558
552
546
535
513
484
481
485
475
469
487
494
485
467
473
493
468
440
449
463
459
455
453
454
453
478
467
445
450
444
428
430
430
417
438
456
449
432
426
428
432
440
446
466
460
459
454
449
450
453
448
443
460
439
411
430
443
431
430
441
422
397
407
445
459
461
451
441
432
423
407
405
441
481
507
496
468
466
450
446
455
458
446
432
452
453
447
455
470
477
480
485
488
493
506
507
512
525
531
548
566
581
593
612
633
641
668
664
676
688
697
716
689
647
664
663
659
634
606
586
547
497
440
380
335
316
297
260
243
243
243
233
233
229
240
258
267
281
298
318
336
349
366
386
400
422
454
445
410
423
457
466
443
435
449
477
479
475
471
455
458
465
474
492
520
520
511
495
477
478
478
464
463
480
491
495
501
507
489
483
496
493
499
494
484
496
511
496
482
477
476
469
485
494
507
519
523
513
508
502
500
504
515
518
515
518
515
500
499
514
501
493
501
499
494
492
499
514
526
514
503
496
502
537
553
538
532
523
512
510
525
528
519
525
527
522
515
512
531
555
546
531
521
512
518
523
526
529
536
541
533
529
532
532
526
532
534
536
534
531
527
530
531
542
550
553
540
541
550
552
572
610
574
492
479
502
536
541
539
522
530
541
541
544
552
557
548
532
518
512
544
559
576
571
574
573
559
536
537
545
573
554
545
549
578
594
571
539
528
514
526
554
570
562
564
568
560
546
540
541
536
528
521
530
547
564
576
573
561
558
537
543
536
520
522
534
552
563
547
525
512
526
527
524
532
535
536
560
545
519
514
518
514
493
493
500
502
507
512
508
516
522
529
514
502
491
491
493
483
469
472
475
471
494
482
478
482
476
477
471
467
436
432
435
437
448
451
450
434
443
448
452
435
424
425
424
437
447
446
435
416
402
434
459
456
438
432
438
433
446
428
419
433
448
447
427
421
431
447
446
438
427
433
454
461
475
465
456
454
437
432
434
430
434
458
463
461
460
465
466
464
456
446
442
459
467
461
448
436
448
458
460
451
450
429
424
463
473
476
510
518
480
446
449
464
459
473
459
454
467
464
463
468
476
473
485
494
491
459
436
445
459
468
468
460
461
463
468
470
467
467
464
464
465
462
452
461
476
487
499
488
469
469
473
479
479
471
460
478
480
477
466
469
482
460
469
480
474
456
451
468
485
496
486
449
435
439
425
432
455
476
504
495
476
464
469
487
497
490
479
473
483
472
459
463
463
471
477
477
462
446
449
468
498
497
500
442
459
472
464
488
490
453
435
448
469
482
484
476
469
461
467
467
466
468
467
465
463
457
470
486
486
495
492
483
474
461
452
446
431
425
433
458
492
502
486
471
469
470
470
472
475
475
494
500
498
495
503
523
517
494
495
508
483
465
493
496
483
492
516
513
498
497
495
510
526
517
517
518
518
524
533
511
503
514
506
503
508
522
534
569
591
559
533
527
540
551
543
554
565
556
536
527
516
518
516
506
511
521
498
482
475
494
524
512
507
484
453
446
448
463
466
457
447
437
432
437
443
440
441
450
451
436
434
430
439
464
469
458
443
432
424
423
431
439
465
468
434
435
464
493
469
430
422
432
440
443
438
443
450
436
428
433
445
459
451
433
417
408
428
472
473
454
447
440
464
473
461
457
437
431
424
421
426
439
448
464
477
479
460
456
454
458
484
508
522
515
489
477
465
476
505
543
584
621
622
610
625
641
643
661
681
699
679
683
686
677
656
631
645
642
621
582
541
495
425
362
328
306
268
245
238
235
244
225
217
222
237
244
267
292
314
323
333
342
353
364
374
392
406
410
440
475
504
505
482
463
461
462
473
489
487
479
477
477
485
461
451
465
486
499
495
517
512
486
486
491
484
482
481
482
481
482
482
477
493
489
491
496
497
518
516
492
489
479
478
480
489
506
535
538
510
491
489
493
482
473
475
494
508
552
543
515
510
515
499
493
494
511
526
524
503
481
484
511
540
537
518
500
490
502
542
549
535
529
532
517
515
522
508
505
509
505
517
533
515
492
503
515
528
534
532
519
518
537
538
546
546
548
540
534
540
557
570
570
575
555
528
525
520
528
537
540
559
550
537
523
526
538
569
576
565
556
546
515
522
531
540
547
547
558
563
555
545
530
529
561
591
573
548
545
539
536
573
572
556
574
543
545
541
526
523
534
536
531
544
573
572
555
535
524
529
544
564
564
558
531
525
540
539
526
534
547
540
542
535
518
514
523
551
558
542
513
492
522
539
551
543
535
521
510
527
531
530
538
539
533
535
521
500
496
500
510
517
509
507
504
510
521
528
481
460
451
469
483
484
472
444
442
464
464
459
454
458
452
462
458
448
453
453
447
448
440
442
439
434
435
435
441
450
458
451
440
425
427
444
450
438
423
428
456
447
423
400
392
419
443
444
427
447
455
446
431
430
437
448
450
448
445
445
452
453
445
429
413
401
433
442
453
454
467
455
449
439
438
469
489
469
455
440
449
461
458
460
467
477
479
481
444
430
453
475
472
434
424
432
454
476
474
465
450
451
468
478
470
474
494
492
461
449
451
446
443
464
472
473
475
490
487
461
454
466
471
485
465
464
465
471
477
480
462
461
471
481
473
490
498
500
504
475
454
473
485
462
447
452
461
466
467
466
463
464
464
461
452
451
460
476
494
490
470
467
472
480
486
484
464
457
459
470
481
470
454
456
467
482
474
472
481
489
479
456
446
435
445
468
481
481
472
482
491
488
486
476
457
465
490
518
505
485
468
460
429
428
442
451
454
445
440
444
453
458
465
474
480
499
512
501
473
461
457
462
483
485
489
479
453
453
467
474
480
483
489
481
450
456
478
505
512
496
467
470
481
490
491
506
508
489
474
482
511
508
492
494
508
513
512
500
507
505
498
493
505
511
506
510
510
514
522
524
522
518
525
541
564
535
520
523
496
494
507
528
548
559
566
569
552
546
548
537
538
527
512
512
523
519
504
503
519
529
523
514
489
462
440
448
463
471
457
452
448
440
443
461
465
460
468
464
466
459
442
429
428
453
474
465
447
462
467
479
467
442
422
424
437
464
460
449
440
436
434
457
467
453
437
448
443
435
429
436
456
454
417
417
432
454
460
460
452
439
430
434
444
439
442
442
425
452
454
451
454
444
443
454
435
440
448
449
447
457
474
481
482
477
481
504
515
519
527
536
525
523
542
559
573
599
627
653
673
669
662
661
673
678
672
667
665
670
671
656
615
585
556
515
462
396
341
334
302
277
261
238
231
193
211
226
234
253
273
274
275
297
298
330
355
371
391
411
411
419
415
421
447
475
471
459
450
460
492
517
510
480
491
477
465
481
500
497
479
478
481
510
502
470
470
475
478
486
496
503
500
500
494
484
487
485
484
479
476
494
504
494
493
503
512
506
502
517
523
517
517
517
502
491
467
456
460
502
568
540
488
475
479
507
522
520
521
504
499
501
498
496
509
539
550
531
548
542
524
515
519
516
513
510
502
502
507
520
540
555
538
529
519
527
520
508
535
520
512
523
539
535
526
543
531
524
518
515
524
544
552
550
550
559
553
539
546
555
535
533
547
561
568
554
540
542
547
554
544
532
519
516
525
540
538
528
533
544
562
578
573
566
558
552
552
552
556
561
565
568
547
532
540
555
578
592
579
540
525
533
540
540
542
541
543
560
549
561
584
574
544
527
535
547
551
546
543
541
542
538
538
540
527
519
534
522
537
579
553
507
517
525
526
544
568
552
542
538
535
531
528
521
516
502
517
541
537
519
522
506
496
499
491
516
529
515
491
482
505
521
511
491
475
467
459
456
458
457
459
460
443
429
437
454
468
465
462
468
463
456
448
431
427
429
440
442
443
444
441
436
432
414
417
440
453
460
473
487
460
425
414
414
419
419
422
439
443
436
427
420
432
436
430
440
452
440
430
441
470
476
451
444
439
444
454
462
443
449
444
437
441
445
451
454
456
451
442
443
453
456
460
457
450
447
445
448
464
472
464
466
455
444
441
441
458
496
491
478
469
461
465
454
454
466
466
458
447
434
440
458
476
486
462
458
472
498
495
492
481
465
464
464
457
463
467
469
462
462
459
460
461
457
448
442
441
441
475
480
465
452
465
468
479
485
468
467
469
478
486
486
457
450
465
471
479
480
462
451
472
489
490
491
475
476
460
441
459
478
483
495
499
482
448
428
435
462
468
471
481
477
472
464
458
467
468
460
458
451
459
476
487
468
459
459
468
477
490
493
471
472
477
466
449
448
472
484
467
451
457
473
464
453
468
500
511
488
460
448
445
439
458
473
456
455
474
457
456
469
474
490
491
481
462
472
476
488
487
489
496
499
491
476
476
481
481
484
484
480
490
511
516
511
506
506
515
522
520
531
535
535
553
553
512
487
477
470
486
517
524
523
545
541
532
531
550
555
558
556
549
554
541
537
533
532
533
526
510
498
481
487
499
502
480
480
484
487
474
456
445
444
437
450
456
445
440
431
432
444
470
476
456
448
447
431
416
415
467
514
480
431
435
449
454
454
444
443
440
449
457
453
440
448
469
458
435
432
447
447
431
430
419
415
426
435
437
428
414
419
437
455
455
452
432
424
423
430
439
451
471
471
445
416
425
445
474
449
433
451
457
456
470
477
472
471
493
486
482
484
503
510
509
526
544
561
570
588
608
616
637
646
653
657
666
672
672
658
664
649
642
627
644
647
600
535
473
420
383
335
318
309
282
280
265
224
213
221
226
234
242
259
275
313
350
371
378
359
363
380
380
397
405
415
431
432
437
442
458
500
499
492
492
499
496
477
467
469
483
484
481
489
486
458
457
473
480
480
481
478
478
478
481
485
492
496
490
489
488
476
486
504
505
506
515
496
496
500
495
489
501
507
517
522
516
507
506
505
496
499
498
503
504
492
493
500
508
520
526
523
517
517
522
522
497
486
489
506
488
479
499
516
519
523
527
529
518
513
516
515
507
520
527
535
525
532
556
563
540
499
496
520
534
539
559
561
539
524
545
543
538
521
514
525
530
541
546
532
503
518
532
516
534
559
565
559
538
517
517
545
575
554
535
545
539
539
553
550
544
553
570
568
559
557
561
555
552
550
547
545
540
547
566
560
548
549
547
545
543
542
547
566
580
550
534
533
534
535
543
540
532
536
547
559
564
545
538
541
544
536
512
500
536
565
564
553
553
549
558
557
549
565
555
519
505
517
524
566
585
557
519
499
498
498
509
527
512
507
513
516
511
511
509
504
499
480
492
496
469
459
471
486
496
476
456
445
467
487
493
499
491
473
452
451
450
450
453
447
438
429
435
435
444
449
458
452
453
436
432
442
439
436
439
437
437
437
443
446
425
408
405
408
427
441
429
420
417
421
431
444
446
451
438
429
428
427
427
430
446
473
469
440
437
447
442
424
431
455
458
457
457
448
443
451
457
450
449
445
435
454
480
458
426
416
443
473
466
455
461
462
455
460
475
473
455
442
433
441
454
470
475
461
464
473
445
447
462
483
486
475
471
455
437
445
462
455
455
464
474
478
471
472
479
468
459
458
457
468
470
469
456
455
469
452
429
439
455
505
531
515
488
466
472
479
476
475
476
465
467
476
477
486
487
488
474
449
451
471
487
488
489
500
490
470
478
482
479
474
462
463
451
460
471
483
483
459
459
467
471
465
462
459
458
488
487
477
463
452
465
469
473
478
469
462
465
474
480
473
465
467
462
455
459
478
512
493
442
432
423
427
464
486
496
517
502
473
461
462
468
478
486
497
502
490
481
483
492
500
498
497
500
504
505
500
498
501
507
516
523
527
511
502
511
520
528
547
541
535
532
529
510
487
482
493
509
525
517
521
517
515
530
549
554
563
556
559
555
554
551
538
530
516
506
508
508
503
499
479
469
472
482
480
476
471
466
464
461
454
454
458
455
448
439
436
437
430
441
445
449
444
436
437
433
439
445
437
460
482
484
483
452
428
428
435
443
443
448
454
434
403
403
424
442
440
439
440
439
444
446
446
439
441
435
436
439
454
474
484
503
485
446
444
450
427
398
414
447
449
467
471
440
427
418
432
440
460
504
515
497
500
493
474
471
490
491
504
526
542
552
576
589
593
607
636
655
654
654
669
683
684
683
671
668
666
648
646
645
622
609
560
484
423
371
327
293
274
280
264
239
221
211
214
225
245
253
245
249
259
280
313
349
376
386
388
409
428
424
420
420
437
468
492
510
505
466
442
449
473
483
484
485
482
470
464
489
527
508
473
465
492
491
479
510
515
495
493
488
485
496
500
496
505
484
474
475
479
476
507
520
518
525
513
497
503
504
498
501
511
521
520
511
515
520
525
529
522
496
484
489
503
517
507
511
504
501
528
544
523
521
515
502
501
495
499
515
510
500
509
504
504
511
519
525
544
562
555
544
545
547
537
506
505
525
536
544
553
547
529
505
504
520
534
538
540
539
534
542
541
541
540
529
536
548
543
529
546
561
552
521
516
519
516
519
536
557
578
582
560
545
546
552
555
559
570
575
576
550
548
563
559
533
506
511
528
537
533
560
594
585
561
547
535
541
562
587
590
569
542
536
551
561
563
563
564
580
544
521
529
544
556
549
546
555
572
573
567
547
533
538
543
537
533
532
546
564
560
540
541
543
526
519
508
515
542
553
533
525
539
530
518
518
521
520
521
511
502
497
491
493
494
501
495
482
473
490
502
507
489
458
459
480
488
491
479
460
446
449
447
450
450
449
457
457
468
471
437
392
385
416
436
435
432
440
457
463
454
435
436
451
467
457
424
409
423
423
417
408
411
441
441
428
448
461
458
419
389
373
395
425
467
476
459
458
460
446
432
430
454
472
459
431
441
456
468
466
452
450
441
435
437
439
442
451
453
445
459
466
465
462
464
467
463
457
454
450
460
484
477
446
438
444
451
464
460
457
439
439
464
479
470
461
476
499
476
442
433
438
471
484
474
471
466
463
462
468
453
451
463
469
474
476
474
472
480
482
475
468
476
469
455
457
461
467
478
474
475
465
455
467
463
468
492
507
479
432
424
442
447
448
445
457
478
495
505
492
469
469
452
449
457
462
467
479
482
471
474
476
470
455
442
457
460
440
437
459
487
487
477
470
460
456
465
479
486
465
449
482
513
504
483
472
468
468
475
489
482
464
453
450
452
446
476
502
499
458
447
465
476
464
450
451
462
467
473
473
471
465
459
462
495
519
507
496
482
474
479
491
510
512
498
502
507
498
503
514
517
523
519
489
480
492
501
514
535
540
534
540
529
506
505
487
480
481
499
505
498
514
519
521
516
544
565
565
576
581
569
550
532
523
518
521
518
531
531
506
493
483
470
471
467
449
469
481
478
488
499
487
485
468
432
417
433
449
460
449
446
451
445
428
419
429
459
489
467
440
435
444
464
449
439
450
457
449
435
451
460
468
462
438
421
430
435
439
434
427
427
443
450
461
459
448
444
445
446
448
446
454
451
458
438
405
414
429
425
431
451
459
448
436
455
458
447
447
459
467
464
466
476
485
480
466
471
497
508
490
487
511
537
555
561
559
565
627
643
635
639
669
687
692
700
693
694
682
657
631
633
639
632
594
539
497
451
395
354
339
299
265
250
253
227
210
201
194
203
222
244
282
323
351
342
337
372
373
366
384
406
431
437
442
448
447
448
445
451
462
468
471
480
484
483
487
476
476
487
499
496
479
475
470
470
479
489
500
492
478
465
474
477
494
493
480
489
510
537
539
520
505
488
493
505
502
497
509
513
528
538
534
519
508
489
496
496
492
493
494
499
501
496
493
476
497
507
506
516
543
546
523
512
512
511
513
526
533
525
525
529
540
549
533
514
493
493
500
510
528
527
501
482
494
516
533
565
576
534
523
534
550
563
555
532
521
510
521
529
542
521
518
534
556
549
526
535
535
537
548
540
533
532
544
557
572
582
576
573
565
536
523
528
539
548
573
575
556
551
548
550
561
566
566
556
549
552
556
560
567
565
552
542
540
554
561
553
552
546
547
558
555
547
544
544
549
558
566
562
561
564
556
555
562
580
570
557
546
551
555
538
532
529
517
506
523
545
548
543
545
549
549
535
538
555
553
528
521
557
578
539
523
517
514
518
522
516
527
530
530
528
525
508
478
485
512
488
491
500
497
498
492
475
470
469
466
468
478
484
475
472
480
475
471
465
455
457
489
498
449
401
420
460
449
430
426
431
435
431
425
426
427
429
427
421
431
441
446
435
425
442
455
459
456
427
428
430
444
447
441
439
441
432
432
426
417
415
418
434
457
465
469
472
450
421
418
423
432
437
444
452
462
473
469
459
461
435
433
442
452
450
433
418
443
506
529
499
455
427
427
430
446
457
457
455
463
466
452
456
458
446
433
439
434
429
450
496
498
455
441
470
475
474
481
478
483
485
479
480
487
464
451
459
467
452
446
439
451
466
476
487
495
498
497
485
460
469
490
485
457
433
447
464
467
464
464
463
463
451
455
474
479
479
471
464
471
486
492
493
489
477
464
470
470
481
483
466
455
453
454
464
474
470
471
473
470
475
472
463
459
455
466
499
491
452
453
458
446
444
464
480
500
478
469
453
446
445
452
479
493
488
476
462
464
475
453
453
473
477
498
508
472
455
455
462
452
459
464
471
476
480
463
445
451
461
464
466
481
494
480
479
470
472
471
474
483
508
529
511
492
467
476
483
482
489
494
498
500
498
500
508
522
535
527
521
511
502
490
479
474
493
524
535
543
543
532
508
491
483
507
546
569
558
559
535
518
523
539
561
558
548
544
542
554
565
563
541
511
487
485
500
509
512
490
482
488
481
465
464
461
451
447
456
456
444
443
455
481
470
466
477
441
429
444
459
451
424
439
448
453
459
468
431
413
414
423
429
437
434
435
443
449
446
434
450
470
472
451
437
445
462
451
429
427
437
447
452
454
460
463
462
453
435
442
444
433
427
419
425
447
463
450
444
444
422
425
450
454
446
453
460
475
489
510
504
496
513
484
468
478
482
495
531
540
558
590
605
596
608
637
641
642
660
682
676
669
682
670
668
659
649
643
635
650
614
535
488
440
371
325
294
267
249
241
256
238
215
206
206
224
239
267
298
304
305
317
334
358
364
367
375
398
409
428
451
471
463
453
458
479
498
490
486
477
486
483
479
479
476
490
495
495
487
460
464
473
494
500
489
504
522
518
491
479
483
500
496
502
513
506
496
497
491
495
499
497
493
494
502
504
508
504
493
502
511
504
504
500
502
518
510
521
517
526
538
540
520
488
489
498
495
492
500
517
527
531
525
523
536
532
511
502
508
496
479
494
529
536
535
527
505
489
499
515
526
527
541
542
533
538
545
530
504
511
519
525
529
544
546
541
535
544
535
528
531
525
532
563
574
559
549
548
550
554
564
567
559
542
506
490
507
523
527
549
582
606
608
603
561
535
515
539
554
566
566
550
546
547
556
562
559
549
560
569
572
567
549
543
549
553
556
564
571
575
562
538
527
525
536
552
560
559
558
553
551
542
532
541
545
553
559
547
553
551
554
555
536
524
527
551
566
542
522
530
549
562
570
550
541
532
535
542
532
523
539
539
522
501
488
495
506
516
520
508
488
468
453
470
479
492
501
496
498
482
481
489
488
466
458
447
452
486
499
474
450
436
453
450
456
474
463
459
455
474
478
449
417
414
427
429
416
420
438
447
460
460
437
405
397
409
411
409
423
416
419
424
429
446
431
429
431
426
413
422
430
434
437
434
431
447
444
437
440
435
452
481
470
448
442
435
429
436
443
445
434
432
428
436
446
448
445
440
450
459
438
433
447
476
475
483
488
474
467
454
448
438
438
441
449
459
473
467
449
432
429
417
422
445
460
496
499
485
478
469
460
444
444
453
465
460
470
479
473
460
460
458
457
472
479
473
466
501
497
490
478
462
441
449
441
430
450
472
463
456
468
457
450
449
450
452
464
484
487
468
462
464
452
450
447
468
485
483
473
465
477
486
481
470
454
459
451
459
470
472
469
467
475
472
476
473
467
456
458
469
470
477
473
466
468
471
480
477
466
462
461
471
467
447
453
463
469
477
481
478
487
485
469
456
453
456
436
457
510
512
451
446
456
467
473
482
489
463
435
427
454
487
487
496
501
491
486
495
509
522
508
491
480
480
487
491
484
492
506
526
554
543
500
471
453
456
488
516
531
535
528
541
534
490
470
476
501
525
529
533
545
554
534
528
537
537
541
533
536
520
502
531
567
565
570
529
507
499
495
495
501
494
468
458
467
476
478
473
466
465
460
460
456
460
468
471
464
448
446
456
461
458
448
438
443
452
435
436
455
469
453
463
464
449
413
412
447
454
432
443
449
444
441
459
447
431
426
428
437
451
464
457
450
443
451
448
446
441
446
455
456
459
458
435
447
464
447
451
445
453
466
475
477
461
441
456
477
481
468
431
433
441
455
472
495
508
534
529
488
480
497
520
506
541
604
632
630
632
625
651
661
659
654
666
671
651
651
677
684
696
683
646
591
548
506
486
434
368
342
329
304
298
297
290
249
206
206
213
252
270
291
300
307
320
324
343
367
391
405
425
433
435
433
410
430
444
438
473
506
491
481
481
481
480
485
479
485
484
484
482
481
484
481
478
460
447
464
475
497
504
506
513
513
491
475
476
481
489
498
495
497
494
488
485
494
490
493
503
511
518
507
510
506
494
491
496
514
533
536
525
526
519
496
497
492
498
494
487
483
502
530
522
514
503
506
525
513
499
500
531
546
545
533
524
525
518
500
498
505
530
539
519
494
493
506
510
518
515
501
496
518
529
535
519
506
498
495
510
548
558
538
537
528
529
528
546
527
517
530
533
537
541
553
582
589
567
567
564
570
558
530
531
532
557
560
549
533
545
556
552
542
528
544
556
571
579
587
569
562
545
532
547
551
551
548
553
548
560
552
545
556
556
550
555
557
539
537
549
547
533
545
550
548
558
561
543
551
552
555
549
559
577
572
569
547
487
486
528
534
522
520
530
548
550
553
517
477
490
533
528
540
528
517
525
529
537
536
534
531
528
496
477
483
491
498
480
469
471
483
475
466
461
462
479
490
467
453
460
461
444
429
425
418
431
462
493
492
466
457
458
457
448
428
419
411
428
459
468
474
463
422
421
429
426
427
423
421
433
431
441
448
445
435
433
439
428
417
418
407
406
412
421
427
437
479
484
461
464
458
453
452
444
449
422
408
408
428
469
492
496
478
429
399
391
417
453
449
455
475
478
452
432
432
446
450
451
471
466
439
444
449
452
464
450
437
426
447
472
490
483
474
460
435
438
463
460
457
453
453
462
469
495
499
492
464
435
426
441
457
470
472
468
470
469
472
466
455
458
466
482
471
469
480
468
465
463
480
484
467
482
487
478
469
461
478
484
459
444
437
426
452
477
486
492
477
476
464
450
473
506
532
523
485
472
454
434
446
444
423
435
458
485
479
472
461
441
493
514
484
494
493
478
456
456
472
459
463
472
462
460
465
464
480
458
447
451
466
460
444
444
468
505
500
491
467
468
455
446
479
498
508
512
507
503
499
486
496
511
515
523
521
514
509
500
499
492
495
478
493
510
510
503
487
468
488
497
504
513
531
532
512
510
494
502
509
505
508
541
530
543
570
567
542
530
515
501
508
543
540
552
535
528
501
478
475
481
489
484
477
452
440
450
462
453
451
439
444
450
456
465
482
475
449
457
465
471
474
454
440
440
445
425
447
457
461
460
451
436
434
433
441
454
462
469
452
442
453
457
453
444
447
449
444
438
447
464
488
472
446
445
444
452
454
478
457
431
429
427
447
455
466
472
459
441
434
437
427
452
449
455
485
491
479
464
451
491
498
480
484
485
469
498
532
533
532
539
567
593
611
622
639
661
669
659
654
654
650
656
667
666
674
685
690
696
670
620
549
526
468
437
405
365
321
289
276
289
291
277
263
264
267
263
273
289
299
310
333
350
360
371
389
415
441
446
416
406
437
475
471
471
477
489
505
503
474
469
479
472
484
482
477
481
477
481
502
512
469
450
479
480
465
476
497
498
479
480
496
497
495
487
483
459
459
476
487
508
531
507
468
471
482
497
524
532
513
482
466
471
485
488
486
487
484
479
489
492
505
520
512
500
513
539
513
497
502
504
480
480
502
523
528
536
530
532
530
519
498
511
519
518
521
516
509
480
488
514
518
520
519
527
529
513
491
476
503
518
538
540
531
530
539
533
529
530
554
549
524
516
523
541
544
539
534
530
538
543
541
541
530
539
544
534
534
550
575
578
543
535
516
535
513
528
574
571
563
560
569
560
536
532
546
550
546
555
561
557
551
545
536
550
562
544
529
554
586
567
532
518
512
537
560
585
572
565
577
569
573
553
545
551
543
515
505
516
503
484
489
489
521
541
550
559
562
563
560
543
532
515
521
533
545
551
512
488
505
520
519
517
513
505
515
496
472
470
474
480
507
519
497
479
455
454
492
485
491
494
486
442
440
465
481
479
463
457
452
452
457
479
471
450
437
440
430
427
452
448
437
423
421
445
459
425
421
429
441
452
445
443
448
433
427
433
439
450
446
447
457
437
423
423
407
405
425
436
446
447
431
434
443
424
408
435
434
445
466
473
452
438
437
409
432
465
449
449
458
486
482
451
435
420
399
413
438
464
460
475
484
474
472
476
476
463
457
470
467
468
461
459
447
455
462
471
470
464
468
462
467
462
458
453
443
453
476
482
478
457
438
448
477
499
484
471
473
472
474
474
447
448
465
505
525
516
468
452
481
519
511
478
430
426
451
464
462
469
472
477
471
463
445
469
447
446
438
458
498
504
481
472
469
475
481
496
482
484
483
476
482
479
482
489
470
455
459
469
476
487
484
471
463
464
479
481
476
471
481
496
524
513
484
469
495
495
466
472
479
495
503
513
510
506
501
505
503
504
503
501
520
524
503
488
509
525
522
524
528
534
500
492
474
464
477
487
503
522
528
536
551
562
543
541
554
552
548
541
523
512
527
527
539
538
506
476
490
495
470
473
484
480
472
485
473
464
452
432
443
456
454
448
477
476
477
466
463
467
472
453
434
433
425
429
441
448
454
443
454
479
475
449
432
428
417
420
452
458
460
455
448
438
437
447
465
448
439
432
426
440
458
479
465
448
444
438
455
451
435
443
459
453
439
450
445
443
457
471
474
455
449
458
463
463
468
472
477
460
457
489
507
499
511
498
486
516
543
541
552
579
607
600
589
606
620
658
683
713
701
678
658
649
656
687
697
685
665
633
594
557
515
481
437
365
323
312
308
303
298
284
266
251
255
256
265
278
290
320
349
343
327
331
354
387
410
435
438
430
434
451
464
464
461
469
476
489
471
458
454
458
488
498
484
470
463
459
457
465
477
479
470
466
463
491
502
489
483
489
493
490
466
447
463
513
535
509
499
495
461
468
486
496
485
475
493
498
503
501
492
504
507
486
478
512
537
519
507
508
505
494
502
530
521
509
500
504
495
505
507
495
491
496
503
508
493
480
484
499
522
528
517
512
521
524
512
509
507
526
525
504
507
516
527
533
498
499
516
523
530
537
540
535
528
531
523
504
508
513
522
536
537
536
534
548
554
540
529
522
500
516
537
542
540
534
562
576
570
553
540
537
548
548
549
555
576
559
538
537
543
543
536
531
539
550
556
560
564
568
545
530
544
561
579
567
536
533
541
586
604
570
550
539
535
547
537
530
527
559
574
572
575
574
570
568
543
530
537
538
530
538
537
529
530
530
518
511
515
542
566
551
539
534
543
537
541
552
531
502
500
498
507
519
496
487
502
494
481
482
490
503
493
492
482
474
482
469
456
454
465
454
416
427
465
476
466
448
456
469
461
470
467
452
429
431
432
431
448
443
434
432
427
433
435
424
423
419
438
454
446
431
429
425
423
427
431
433
408
414
430
435
436
442
434
433
416
420
424
442
465
448
443
428
433
457
447
451
455
440
430
421
421
442
471
483
483
483
441
416
424
429
438
438
438
432
430
447
483
487
472
459
457
468
448
433
442
453
456
470
466
461
460
464
487
490
482
469
451
445
445
448
457
447
441
449
457
464
495
496
499
488
472
468
477
491
474
462
447
447
456
469
479
479
484
472
460
451
447
451
465
475
486
509
493
479
477
456
455
467
471
476
484
485
465
457
464
466
473
463
464
477
470
474
497
490
455
449
453
455
468
488
505
511
507
473
428
446
480
497
491
506
497
459
443
444
461
475
466
467
473
481
477
452
452
464
477
489
506
509
485
463
472
476
464
460
468
482
513
522
511
509
504
500
483
486
482
487
505
506
506
504
509
520
522
505
509
505
496
512
528
516
503
496
497
496
498
488
486
493
499
519
545
555
523
519
523
530
539
545
563
578
547
512
507
509
503
492
514
543
540
508
470
457
463
470
471
480
499
503
502
480
449
447
444
441
439
435
436
453
467
465
452
457
461
460
435
421
439
435
429
434
439
434
434
441
442
429
434
445
467
498
483
475
439
423
433
432
429
427
438
449
464
493
474
474
439
418
428
453
476
472
452
428
430
450
455
441
444
447
446
442
444
452
450
453
456
465
478
480
452
435
442
452
470
484
504
521
510
491
491
514
526
534
541
564
587
627
638
644
638
646
664
674
675
687
690
699
686
665
671
691
668
630
594
559
546
497
433
370
314
280
253
232
220
224
240
264
278
274
278
287
289
309
324
342
361
366
377
395
414
408
405
430
443
455
473
468
465
465
489
489
472
480
468
463
467
472
485
467
461
470
475
461
455
474
492
496
483
474
475
481
472
471
469
474
482
491
517
541
536
513
510
499
484
480
482
499
513
505
487
484
487
488
500
506
517
534
523
501
499
487
467
467
460
483
515
527
507
505
521
531
506
504
502
505
516
517
516
515
526
546
523
487
491
491
505
528
510
486
496
509
516
517
518
518
498
489
503
541
559
556
542
528
497
507
538
523
507
489
516
547
533
549
560
547
524
529
539
543
537
532
534
555
565
570
543
531
520
524
537
552
534
527
530
550
563
543
544
555
561
564
574
582
565
540
536
528
525
548
576
575
553
543
547
542
546
532
553
580
568
542
535
541
548
550
552
555
553
545
545
560
567
557
552
543
539
539
540
549
558
560
565
557
541
525
541
557
544
522
496
493
489
512
561
569
553
534
516
519
524
520
523
532
518
502
471
499
552
528
523
516
516
523
510
486
455
440
441
469
488
483
504
510
491
471
469
470
471
480
480
457
442
448
453
443
451
456
465
447
405
398
420
448
474
468
447
425
423
431
436
434
447
444
440
430
422
435
430
431
428
428
435
447
451
447
417
416
430
441
460
446
434
432
440
440
429
446
452
435
431
448
460
457
452
447
443
457
462
468
466
455
433
451
461
451
440
424
427
441
441
449
461
463
452
445
432
424
446
461
458
463
436
439
444
437
454
475
479
465
454
449
451
469
475
481
478
474
473
482
513
508
460
426
427
444
451
451
477
480
470
476
480
470
458
465
480
484
475
466
460
457
454
459
484
495
476
474
468
460
464
476
486
475
461
463
481
486
478
485
473
464
464
469
471
469
462
469
483
477
471
474
479
480
471
463
457
456
463
464
480
478
475
461
463
488
492
479
467
462
488
499
489
493
473
416
398
413
437
453
462
454
460
484
486
481
480
487
479
473
471
479
473
471
473
478
488
481
467
452
451
451
460
469
457
451
467
473
478
487
474
478
470
451
452
465
450
463
486
483
478
478
496
480
469
461
487
480
470
475
483
503
511
506
501
485
473
474
483
495
489
489
505
514
525
519
496
486
492
500
504
503
497
493
513
517
523
535
526
499
495
500
506
513
508
501
510
530
548
557
560
567
581
543
536
539
519
506
505
503
497
487
467
471
507
532
515
471
468
477
472
487
490
473
464
455
442
418
425
459
476
455
439
441
463
472
464
456
449
438
442
439
444
449
439
423
412
413
433
463
477
470
453
457
458
455
474
479
461
455
461
463
451
440
451
456
427
422
435
448
446
444
446
427
425
433
438
439
438
438
454
466
456
452
456
455
456
446
452
454
446
437
449
449
481
512
537
520
454
438
455
480
492
498
502
518
531
544
557
557
576
615
651
656
648
668
663
656
661
670
681
692
687
675
643
635
638
601
544
521
481
429
383
357
338
313
266
249
249
241
240
243
252
259
269
289
285
290
303
319
337
364
402
421
411
397
402
413
425
467
460
475
503
507
500
476
469
464
474
470
466
467
469
478
462
435
450
484
526
528
498
481
482
489
494
486
484
479
474
483
493
501
473
477
482
493
496
476
475
487
486
489
502
508
494
486
490
496
519
550
540
560
543
496
480
472
479
487
486
485
497
498
509
521
518
522
520
511
492
486
480
475
480
500
526
525
516
491
498
520
530
519
512
508
523
528
522
524
538
549
534
509
523
523
515
505
504
490
504
538
566
561
530
515
520
514
514
522
528
534
539
530
515
500
517
540
559
573
571
550
524
532
535
543
547
543
538
537
536
514
525
563
581
606
582
542
523
520
521
527
534
540
564
597
604
573
544
561
570
577
558
541
537
544
549
553
559
562
575
562
540
532
559
568
577
561
544
530
531
510
493
512
534
531
535
543
551
557
555
545
531
520
510
525
535
517
509
518
535
544
535
527
533
541
559
548
526
524
527
519
516
513
508
502
503
507
505
492
491
495
496
515
514
502
490
481
462
456
460
460
468
486
470
465
466
464
464
469
464
462
457
435
435
444
447
448
455
455
434
422
442
445
438
436
437
443
427
422
435
444
441
452
439
430
421
422
440
452
472
471
440
407
386
383
413
433
448
439
436
436
431
443
449
439
432
444
434
414
443
439
454
481
473
461
452
447
425
424
436
440
446
441
437
449
451
442
439
443
472
494
476
447
448
437
426
436
451
485
491
480
470
452
440
433
451
451
430
438
477
506
477
470
484
484
472
451
462
468
464
464
454
455
459
478
491
478
460
463
476
492
496
480
482
447
451
456
456
459
457
457
456
461
464
477
497
499
492
489
485
466
446
448
454
467
478
470
469
486
503
492
468
442
440
437
432
455
474
488
504
494
475
459
464
468
465
463
467
473
475
473
459
464
463
461
472
498
507
486
461
454
476
480
452
445
454
455
460
472
479
479
472
477
469
445
433
440
471
474
474
476
481
491
511
494
464
460
473
472
449
439
460
493
503
481
462
470
468
461
466
483
493
510
519
492
468
477
473
457
451
460
461
460
467
480
485
488
493
494
486
463
445
442
447
460
482
482
476
480
474
457
454
464
465
464
465
477
491
484
460
460
467
469
482
493
499
505
497
485
476
475
500
517
521
517
506
508
518
516
515
496
503
502
500
509
501
504
507
508
507
504
516
520
517
524
517
510
506
506
509
502
508
523
539
553
549
531
526
543
567
587
568
539
527
531
535
545
531
492
482
490
537
555
506
476
444
426
437
452
446
460
473
459
451
446
452
462
469
472
458
446
439
454
476
478
474
444
437
431
426
435
427
447
462
453
457
457
442
444
437
444
460
456
449
448
437
445
450
450
441
432
427
414
427
449
460
472
482
460
423
415
412
433
449
457
463
445
435
439
440
450
447
441
447
471
477
458
451
452
462
472
482
483
488
501
487
480
478
491
493
493
520
541
544
555
569
585
606
636
652
656
651
668
686
715
721
692
669
667
667
667
665
636
596
559
519
468
420
370
325
303
289
289
295
266
232
200
205
244
270
283
285
289
305
329
340
358
372
386
404
409
413
425
454
459
448
457
457
461
453
456
484
492
503
497
467
457
459
462
467
478
468
477
481
474
459
452
460
467
497
538
516
486
495
507
512
512
510
513
506
461
448
460
472
507
528
534
521
505
502
499
498
490
485
490
493
484
489
498
503
507
508
506
509
499
496
514
509
488
484
493
512
536
526
519
529
511
493
500
513
517
519
522
525
509
501
511
517
526
522
503
500
505
512
492
496
515
528
524
528
554
562
554
552
545
521
509
522
541
562
573
553
535
524
518
513
507
513
501
528
540
557
562
565
571
543
521
532
548
544
536
534
534
536
539
542
567
586
573
562
566
552
560
544
540
533
531
532
548
565
562
565
562
556
560
565
573
557
539
531
529
546
542
532
555
567
559
526
517
544
573
583
557
539
544
535
536
543
561
562
545
544
550
557
562
547
510
506
507
529
533
541
554
550
540
540
539
524
528
526
524
530
537
546
552
550
545
525
511
508
487
480
484
490
490
487
490
506
525
514
491
496
520
503
489
489
471
458
458
456
456
465
472
463
453
455
462
476
474
443
435
436
434
423
441
444
445
461
453
444
438
438
437
424
417
419
416
440
452
438
431
424
424
417
416
434
443
437
438
451
457
437
432
418
414
431
452
468
470
442
412
404
427
446
467
463
462
473
481
452
427
422
430
445
472
456
448
426
422
423
436
454
481
480
461
457
469
468
439
442
459
485
486
451
413
404
430
458
466
472
490
494
468
457
459
461
459
461
460
458
452
443
437
448
466
479
487
481
481
471
465
479
488
473
456
445
450
470
484
486
470
469
479
489
502
481
442
445
457
459
468
465
481
483
471
455
468
481
488
498
491
460
465
456
450
463
474
474
475
477
485
491
477
456
445
438
446
456
463
468
468
461
468
488
503
490
472
454
456
452
458
477
474
456
477
480
470
484
512
498
486
482
460
448
432
431
445
455
479
496
493
486
474
457
461
464
466
470
481
486
496
490
463
449
446
457
480
479
472
474
454
449
466
475
483
481
469
468
463
469
485
482
492
479
455
469
469
474
479
484
488
470
465
468
461
476
490
490
475
467
474
479
479
485
475
458
453
460
476
484
481
468
467
463
441
433
438
462
498
504
498
485
485
488
490
496
502
507
492
501
520
521
509
492
493
518
529
528
508
479
470
493
517
512
537
567
587
573
557
516
482
483
480
499
511
502
513
524
534
547
558
561
561
567
561
554
548
540
537
525
525
499
497
503
516
529
534
528
526
505
455
422
431
459
490
491
477
473
475
472
469
454
434
454
463
451
441
442
450
443
436
436
440
447
447
445
450
460
454
446
437
429
429
437
465
478
466
466
469
481
466
448
452
444
432
432
433
444
447
440
432
427
439
444
433
438
462
483
456
446
429
420
429
455
459
440
458
462
447
434
429
433
455
452
469
482
484
463
442
450
474
497
513
517
519
495
492
517
533
537
541
554
580
610
635
653
668
679
688
683
671
676
676
666
682
688
682
679
661
631
587
528
482
423
373
347
331
314
284
258
237
214
214
225
250
272
278
279
290
303
322
334
344
362
385
405
414
412
421
441
445
438
439
450
463
473
478
481
487
497
490
481
461
462
510
511
480
446
446
472
477
476
476
454
473
482
501
522
523
506
494
496
516
523
510
497
491
485
474
450
447
464
494
492
490
507
529
541
521
534
543
543
518
510
516
503
471
466
485
502
495
489
495
508
508
511
515
519
509
499
510
523
526
520
510
516
498
493
489
522
531
522
520
524
535
547
536
519
520
528
544
534
532
536
540
543
551
517
507
520
500
498
525
558
539
534
522
524
529
523
551
543
540
549
552
532
513
505
534
556
554
577
564
541
559
585
590
569
538
529
537
541
547
552
559
548
532
528
530
539
547
557
561
546
540
545
555
571
574
569
560
553
529
503
531
545
548
532
558
577
569
562
546
557
552
554
558
557
547
541
552
556
548
539
524
515
522
553
587
560
530
525
530
539
547
550
560
544
536
550
558
554
533
538
555
544
538
539
531
523
523
526
519
513
497
506
519
526
529
533
511
491
489
495
501
508
527
543
529
492
459
435
425
438
454
467
489
492
489
472
462
453
439
433
430
437
441
449
461
466
460
445
418
410
423
449
466
460
439
435
438
433
427
434
441
437
433
428
433
432
428
445
448
435
414
406
416
421
430
444
440
432
448
458
451
438
448
455
469
433
402
414
432
451
459
469
480
479
467
451
440
425
428
433
436
439
453
451
453
464
472
477
456
430
410
413
460
474
466
456
449
475
491
467
434
406
415
446
499
529
496
467
454
458
475
485
485
469
453
474
479
468
467
468
462
461
461
455
456
467
487
476
463
464
455
457
461
466
462
472
477
473
472
469
471
480
483
483
480
477
483
471
468
474
480
474
470
470
482
491
483
471
454
444
446
459
464
455
465
489
497
489
485
478
463
466
483
507
498
450
441
430
449
481
475
463
454
458
463
457
459
471
473
450
437
457
478
476
497
511
503
496
481
467
451
441
439
444
451
473
489
490
484
482
487
478
484
476
462
466
455
458
453
455
470
472
464
473
479
461
459
466
463
470
477
480
469
466
462
463
476
483
475
464
440
419
440
479
483
472
472
481
485
474
463
464
471
476
491
502
512
508
488
469
470
486
488
483
483
474
462
466
476
485
531
516
489
466
483
500
519
523
513
512
517
529
528
510
500
488
484
520
525
500
496
495
508
498
498
547
579
573
557
544
536
543
560
572
569
558
543
522
517
503
487
497
490
492
488
502
519
517
499
481
469
468
465
463
458
454
466
476
464
466
457
437
442
454
456
456
448
443
451
458
462
453
430
439
444
434
421
428
438
451
447
440
430
427
426
422
429
449
460
458
457
448
442
440
435
445
455
459
453
454
472
482
434
418
419
406
406
416
444
475
493
466
446
447
449
446
444
428
431
451
444
413
409
425
449
472
457
451
487
521
530
519
494
477
478
487
512
543
556
542
548
564
610
665
678
680
680
682
699
714
719
716
671
653
652
665
667
631
590
547
505
477
424
370
337
319
290
265
255
245
226
216
232
253
241
239
246
263
272
293
326
346
350
361
393
421
442
443
432
439
444
448
454
465
463
456
452
480
524
521
501
469
463
457
481
492
491
474
480
498
502
491
479
485
482
472
453
474
509
514
505
504
491
494
487
493
496
485
475
470
459
476
508
514
492
496
520
532
525
527
536
544
535
536
504
484
502
501
483
474
481
489
501
501
497
503
512
523
541
534
534
542
545
533
520
508
506
500
495
492
500
530
542
536
518
517
521
507
486
490
507
523
527
520
518
540
561
561
545
530
542
542
529
534
521
516
540
544
531
536
540
554
549
538
544
549
555
537
535
532
546
565
551
529
532
538
552
556
551
551
544
554
524
519
526
542
551
559
583
594
569
546
542
546
553
560
560
557
563
551
539
541
550
555
564
577
583
567
565
555
542
541
545
554
540
497
487
501
526
557
573
572
567
554
540
548
569
571
569
564
549
538
538
527
524
517
522
537
559
548
534
527
525
522
541
542
526
508
508
523
545
546
529
515
508
505
498
498
496
502
513
519
531
528
498
491
490
496
508
479
450
437
430
452
489
487
467
467
466
473
470
445
450
454
448
434
421
430
435
442
441
433
430
425
422
431
445
445
424
420
415
431
449
467
473
454
415
405
419
429
432
429
414
423
427
433
436
432
430
428
429
430
431
431
442
451
450
440
433
433
447
452
455
436
418
414
421
411
410
435
443
461
495
495
469
452
445
435
429
437
464
464
471
466
438
441
461
488
484
455
453
470
483
475
460
444
444
456
451
446
461
464
454
448
452
475
483
475
472
466
471
472
462
459
463
480
470
467
470
470
465
467
460
459
468
476
483
478
476
484
484
481
476
441
437
457
470
494
486
471
476
478
466
471
470
472
481
472
466
468
461
467
462
455
460
456
462
466
453
466
493
497
504
508
498
463
433
426
451
484
494
484
467
458
459
444
440
459
480
489
480
473
467
463
448
438
428
437
447
484
496
496
487
484
478
485
470
442
430
451
495
503
520
495
480
488
485
471
470
463
467
461
449
443
482
482
469
481
474
465
474
484
475
464
491
474
469
452
445
430
451
500
511
493
491
491
490
492
487
473
474
480
481
501
493
483
476
492
496
499
499
507
516
534
531
519
527
534
547
539
523
518
504
512
527
538
543
518
507
492
472
497
525
524
530
531
528
536
554
564
549
550
561
547
538
542
532
528
524
518
519
502
495
480
470
467
485
496
490
481
464
450
461
461
451
435
438
452
467
444
440
475
487
455
423
416
428
440
460
469
463
464
452
437
428
425
422
437
457
468
481
450
427
432
428
429
446
454
441
432
430
425
432
436
439
451
458
447
438
442
440
428
436
447
456
455
459
462
467
465
469
485
481
467
476
442
407
405
425
446
461
469
455
446
463
475
490
483
475
469
465
484
508
513
526
546
561
569
578
606
619
645
677
683
679
679
670
675
689
706
684
646
624
615
615
626
589
526
476
413
353
314
339
343
318
255
238
216
203
224
230
232
233
256
292
308
355
348
325
332
342
385
397
411
437
453
464
463
458
465
465
475
480
467
458
455
447
469
491
497
514
502
488
485
483
489
490
487
487
492
502
502
506
512
515
522
512
470
462
485
509
514
518
496
475
480
490
503
492
495
503
515
509
504
503
500
495
495
492
498
488
499
525
527
536
551
535
529
543
557
519
491
498
502
495
508
512
517
539
523
507
503
526
541
520
490
485
504
506
529
531
510
489
499
513
520
531
536
551
543
523
517
521
532
534
520
533
549
541
527
526
536
543
535
532
543
530
528
532
530
535
531
539
548
547
552
563
564
564
566
556
537
532
528
533
561
584
584
564
554
566
555
544
548
553
542
536
547
544
549
554
559
568
569
567
558
548
564
555
530
540
547
544
542
549
554
550
562
575
567
562
566
555
531
526
532
540
556
557
558
555
543
548
553
549
523
536
563
563
552
540
536
533
530
542
543
549
542
540
537
521
515
512
533
556
544
529
521
537
531
517
499
499
501
513
522
511
493
500
508
505
510
509
505
495
488
490
482
482
483
478
473
471
467
467
456
446
439
460
457
452
436
441
440
443
437
436
455
466
455
440
439
437
433
434
429
441
446
435
418
418
417
413
423
415
412
442
463
466
483
491
455
420
412
429
440
436
432
429
406
417
423
427
443
438
422
422
422
415
431
467
471
451
443
460
476
472
449
431
408
398
422
470
485
491
476
471
451
441
444
451
450
422
451
471
467
459
446
446
474
491
481
470
489
483
471
454
452
450
472
492
483
490
495
472
466
475
447
440
433
440
457
474
460
469
465
475
473
469
472
467
459
469
490
512
525
503
461
437
440
451
453
459
460
484
491
471
454
458
475
473
464
464
466
476
496
483
446
440
456
467
471
467
466
464
471
477
465
463
467
459
484
486
483
491
501
498
474
461
474
475
451
444
457
479
479
469
469
476
483
489
488
487
465
448
460
459
455
466
469
469
473
468
462
468
481
512
507
486
476
471
473
472
469
477
478
462
465
477
497
497
482
477
476
468
456
451
483
506
529
532
517
509
517
515
522
530
537
525
508
504
506
504
516
521
520
513
507
519
527
505
487
490
503
527
559
560
558
562
553
532
522
534
546
552
552
508
479
484
493
501
506
506
473
460
459
454
458
477
477
473
483
475
463
445
446
449
454
451
447
454
463
435
420
439
436
434
439
448
443
436
442
449
471
487
481
477
468
470
458
439
421
433
441
440
450
452
441
436
451
459
462
456
447
448
451
452
454
459
453
447
445
449
457
454
448
437
446
446
449
450
471
478
481
471
451
440
448
469
485
493
478
481
501
509
512
509
491
495
506
498
488
499
522
541
568
592
607
616
629
629
656
667
651
649
685
678
675
666
638
623
623
579
546
529
532
532
478
393
340
323
295
294
297
298
261
226
223
246
269
288
295
318
326
321
340
356
376
397
413
417
419
433
435
460
457
466
476
482
477
490
488
501
485
482
476
480
499
497
483
472
470
476
483
489
494
498
492
485
470
475
482
487
487
492
503
516
505
502
497
487
496
499
494
497
496
499
511
516
519
525
517
531
546
538
491
458
475
496
497
502
511
498
483
491
517
514
504
492
478
483
496
528
530
525
521
503
493
493
496
496
506
520
528
522
517
543
559
515
473
481
485
516
539
531
528
510
504
515
544
538
556
548
527
519
535
539
540
536
528
527
536
555
556
551
525
509
516
519
522
521
538
545
545
544
546
564
544
541
551
561
541
524
536
552
554
548
549
558
553
553
560
550
543
543
551
555
541
559
549
551
553
556
554
550
561
569
565
551
547
552
577
566
566
555
535
535
547
558
569
567
556
533
532
545
549
538
521
516
548
572
568
537
520
518
526
532
539
550
546
542
537
530
539
549
533
515
530
518
518
531
535
530
510
508
530
530
527
551
562
535
491
465
457
464
491
498
478
461
458
463
481
493
471
459
463
458
461
463
471
462
442
433
443
449
445
449
457
463
456
446
430
430
442
433
443
453
462
434
401
414
432
453
455
454
452
459
452
429
402
410
438
445
453
463
458
444
447
435
422
420
422
429
430
436
442
451
458
466
453
426
424
438
462
443
435
439
444
437
437
443
452
462
446
443
452
445
437
441
476
475
445
437
446
454
448
446
462
458
456
466
469
443
453
489
491
462
431
434
444
461
457
446
452
460
465
491
484
480
487
480
462
453
458
466
450
439
450
468
490
473
474
487
491
481
462
454
457
469
474
475
479
485
479
467
471
477
479
487
476
463
469
468
462
470
470
461
464
475
482
480
475
481
479
465
481
471
455
454
452
447
444
460
474
463
480
471
459
465
468
484
508
485
470
473
470
469
477
487
478
469
470
473
473
462
483
491
480
478
491
497
487
488
502
500
498
486
487
506
505
470
473
491
513
520
517
504
489
483
491
505
550
582
548
524
537
523
493
478
467
472
491
503
503
500
497
505
500
495
498
511
524
539
582
613
565
508
484
504
514
515
511
508
514
508
512
549
523
477
468
467
473
483
480
466
443
441
452
457
461
454
464
456
428
446
453
453
462
459
435
435
446
444
436
438
444
450
452
441
449
455
448
444
450
454
437
439
441
438
442
438
435
460
469
460
454
461
459
457
435
443
441
423
419
430
469
508
466
460
461
435
443
461
462
460
456
439
450
485
477
467
462
448
433
414
455
498
509
512
496
479
475
473
488
494
501
521
535
550
568
576
589
592
604
620
626
631
654
647
656
664
665
662
660
671
679
670
633
586
550
522
475
422
360
335
320
314
307
293
268
252
235
246
257
254
276
305
315
324
341
377
389
413
412
392
393
414
434
445
453
453
455
465
477
481
481
471
473
474
475
480
486
491
500
480
459
452
461
482
474
479
503
504
498
495
481
467
448
455
467
482
494
485
474
488
500
503
495
496
506
497
494
515
499
464
464
477
489
492
485
481
504
511
508
493
480
484
485
489
473
465
484
508
495
483
484
519
519
491
494
508
513
508
517
502
494
504
527
528
538
511
499
519
521
488
489
508
515
514
510
514
514
524
527
525
536
521
527
527
523
520
518
523
535
550
566
531
502
510
520
513
520
519
515
524
541
536
524
538
566
573
551
532
535
532
542
554
555
557
549
543
557
577
577
551
544
554
523
490
492
507
535
554
578
571
553
542
544
540
539
560
566
553
539
541
550
550
546
556
558
557
574
580
542
527
530
545
567
560
540
539
542
540
539
542
533
543
572
570
532
521
521
512
526
543
549
553
540
513
502
520
516
514
518
538
541
546
530
519
518
511
512
494
507
507
496
502
515
503
491
488
480
478
480
475
463
478
493
507
480
470
462
440
439
450
454
451
448
460
474
471
432
402
427
451
440
420
416
424
430
434
452
464
437
424
444
449
421
416
427
424
425
438
432
413
409
411
409
427
437
431
434
444
429
430
443
446
434
432
441
444
431
436
431
431
431
440
436
442
474
462
431
436
430
428
436
448
444
438
439
457
463
460
457
458
446
448
452
438
430
465
463
471
478
453
447
434
432
456
473
468
465
453
452
464
474
475
481
478
463
432
435
455
468
467
456
450
449
455
463
464
467
475
477
507
482
428
440
459
461
471
506
500
469
457
461
453
452
453
460
464
465
458
462
462
462
470
486
496
493
480
472
468
449
444
448
444
449
456
473
495
485
481
476
473
462
444
417
432
442
472
526
529
510
499
465
457
465
472
468
460
466
479
484
472
464
458
439
444
478
483
464
458
458
480
502
500
487
480
497
493
477
471
491
488
485
492
499
506
518
514
509
499
489
492
515
542
535
508
485
475
492
504
518
522
521
519
519
488
485
494
490
500
502
499
499
509
525
524
528
538
552
551
546
545
542
543
533
520
516
516
507
491
488
472
450
454
475
499
489
464
463
464
461
484
480
455
443
444
453
462
454
421
425
471
470
443
434
435
429
424
425
443
454
446
444
442
437
446
466
478
472
469
457
453
441
412
418
435
440
438
428
437
446
445
441
435
430
428
439
457
451
431
455
487
483
461
443
431
426
437
452
464
476
469
453
451
443
430
429
437
445
450
455
460
463
472
473
477
480
484
499
514
508
494
515
540
561
575
583
595
610
639
659
669
671
671
666
658
662
676
674
663
658
661
643
621
590
559
531
467
395
353
337
328
325
306
262
236
214
230
241
253
265
279
296
308
305
318
338
361
391
426
458
450
435
445
434
417
432
452
469
462
461
452
457
497
507
489
495
496
471
439
426
429
448
470
485
490
489
484
483
478
473
472
477
486
489
490
492
495
497
503
496
485
492
509
504
484
483
492
491
490
498
505
495
488
496
490
486
486
495
510
518
522
517
508
491
472
480
496
508
509
511
507
495
492
499
503
496
502
505
515
509
515
513
509
518
527
532
543
522
483
492
507
507
510
531
540
514
497
486
492
527
541
539
520
500
507
529
517
520
527
526
523
539
545
526
508
502
525
556
562
555
532
525
535
539
531
519
534
549
542
529
526
553
564
561
564
543
509
499
516
557
565
556
526
553
574
578
570
550
535
523
529
548
556
590
585
542
532
542
547
540
533
541
554
566
562
556
551
543
543
552
547
553
529
526
524
537
560
531
529
558
570
571
568
531
532
546
537
513
513
519
518
525
550
545
509
490
513
535
553
553
532
522
544
539
515
508
515
528
524
498
490
493
498
496
473
451
458
468
493
492
488
478
465
460
472
485
468
453
460
478
482
470
453
431
425
450
477
467
461
453
427
396
401
403
402
418
432
403
428
451
463
460
443
425
411
411
418
412
419
423
421
422
432
433
421
434
448
436
435
443
440
428
431
439
446
458
438
434
436
434
431
425
445
466
454
446
443
437
452
473
477
489
477
442
422
425
433
437
433
436
437
442
447
448
449
446
453
470
446
428
449
459
471
478
470
464
469
475
475
461
451
445
457
456
448
456
458
456
453
456
459
463
468
474
474
469
468
472
474
473
483
478
469
463
472
475
492
473
451
450
464
479
490
490
468
449
451
459
459
460
460
461
463
480
478
465
461
461
450
457
471
476
473
469
480
485
484
468
452
461
480
479
473
464
460
461
454
451
446
450
458
488
511
508
484
474
479
470
464
462
460
467
469
462
450
449
453
449
458
481
488
483
465
473
490
486
469
471
486
490
487
478
464
462
469
478
490
487
458
441
458
473
469
491
503
505
495
477
482
508
519
515
514
512
466
472
490
499
490
502
517
517
515
520
503
503
501
504
519
522
517
507
509
509
521
519
497
494
508
512
523
524
526
555
582
587
564
544
534
536
545
535
510
493
490
489
480
495
490
487
484
485
493
482
469
458
460
460
462
462
467
461
437
435
455
456
454
456
439
432
439
443
442
440
436
448
450
444
436
437
426
441
451
454
461
465
457
443
434
464
483
485
475
472
466
418
414
421
436
445
443
445
457
471
467
440
423
430
418
419
422
425
433
454
471
488
499
480
463
431
389
403
440
445
429
424
426
445
478
501
516
513
498
487
491
491
500
513
530
545
552
562
583
604
627
649
662
651
638
643
654
672
689
691
690
688
688
679
667
645
614
556
508
459
393
361
340
319
291
273
254
237
230
231
241
251
266
293
319
329
330
334
336
349
372
391
411
416
433
438
432
439
453
457
454
458
468
480
484
478
473
479
490
487
476
464
466
465
455
455
470
490
498
498
491
479
477
486
490
486
488
496
512
510
496
477
467
481
476
485
491
479
486
511
572
564
519
475
463
495
491
464
429
422
454
533
574
557
523
504
494
504
534
521
514
494
508
540
533
509
517
509
489
486
511
521
508
498
498
501
516
534
535
518
515
519
532
535
523
520
521
515
516
524
533
540
527
523
515
507
513
514
521
553
564
548
529
521
525
539
544
544
537
530
517
511
511
526
550
549
555
565
551
546
550
546
547
546
554
545
534
539
542
537
540
544
531
522
540
555
555
550
564
613
612
553
552
552
549
548
530
536
546
541
543
551
545
536
552
552
556
548
553
554
559
553
552
558
563
561
551
533
535
551
568
563
540
537
553
554
566
560
538
523
532
547
552
554
548
556
564
545
523
534
541
533
541
545
523
513
510
506
504
501
492
483
479
493
506
516
489
489
509
503
499
493
490
478
475
479
479
478
477
473
473
476
470
473
472
459
446
450
450
447
447
441
440
443
439
443
446
455
454
442
447
436
441
449
441
433
430
423
408
411
423
444
477
470
446
421
416
425
436
445
443
446
457
447
433
436
416
416
424
435
451
443
433
447
470
478
469
448
428
420
424
435
445
460
472
484
464
432
432
439
432
437
440
440
441
450
452
452
468
465
458
459
467
472
472
472
451
429
430
454
471
469
499
501
470
447
453
465
448
440
457
479
489
481
474
459
454
461
467
471
463
460
464
463
460
452
458
462
469
475
476
478
477
476
475
468
467
486
478
487
486
452
427
436
460
477
478
484
491
486
484
473
460
450
471
476
473
494
507
491
481
476
455
448
473
479
465
462
466
476
471
473
471
475
474
469
459
460
464
467
472
465
458
458
457
456
460
491
484
481
485
492
488
473
464
462
466
489
478
473
471
455
472
459
457
471
472
469
486
499
488
482
482
492
484
460
446
453
454
451
456
460
463
469
465
472
484
479
480
483
483
488
494
492
487
478
477
480
497
512
512
500
498
502
469
459
467
510
530
528
523
512
496
502
509
515
515
517
523
523
529
530
531
517
500
504
510
514
522
516
514
528
540
544
549
541
526
532
541
552
566
571
563
534
516
512
507
504
505
501
494
490
487
477
478
483
482
473
467
467
471
471
471
463
458
467
464
455
455
462
464
455
437
462
464
445
448
443
442
445
451
446
436
435
444
448
448
447
450
450
445
443
449
438
444
444
438
447
465
463
438
453
464
443
430
438
451
458
470
458
445
432
449
467
475
465
444
429
426
412
408
423
441
449
466
460
442
445
449
455
460
456
454
443
467
502
504
496
491
489
495
498
506
529
551
565
582
589
605
624
639
639
644
653
676
705
707
697
688
683
680
677
665
651
620
569
525
478
418
358
325
299
271
251
253
257
251
227
220
247
251
255
265
281
311
329
334
345
362
386
408
416
428
441
443
434
455
465
449
446
457
446
470
482
481
483
505
528
533
502
465
432
434
454
472
480
479
485
500
508
482
460
474
478
482
521
517
510
507
484
486
499
504
496
495
487
478
472
480
484
498
519
510
498
495
506
514
511
490
467
490
498
495
501
508
502
500
516
515
507
512
521
508
506
511
514
522
527
528
523
511
506
510
516
515
521
527
515
503
504
508
512
512
515
520
521
523
527
528
524
524
526
528
535
536
534
535
549
543
514
516
518
526
537
555
559
568
568
520
504
535
533
514
509
519
526
522
534
530
535
543
542
548
570
555
552
552
545
550
562
566
555
545
538
536
540
543
553
553
548
531
522
557
589
569
549
536
533
537
565
579
568
546
537
538
532
545
569
572
561
549
547
548
559
561
557
564
549
544
539
535
551
547
544
543
529
529
540
545
552
565
553
538
540
539
537
529
522
524
517
524
531
533
530
525
507
500
495
523
578
564
524
509
508
504
515
530
526
494
472
462
470
477
477
478
477
471
467
465
472
463
462
458
465
468
442
435
457
467
462
451
461
467
451
443
453
469
457
437
413
421
434
425
424
432
440
452
438
426
425
432
430
431
436
434
433
434
437
439
439
440
449
454
441
434
428
435
457
453
436
430
431
443
453
433
440
458
451
450
449
431
420
432
431
429
443
463
457
448
460
458
449
449
464
467
466
489
492
481
460
442
422
415
429
452
468
472
468
459
454
446
448
448
454
471
487
480
463
471
471
454
440
433
431
456
481
475
472
482
495
502
496
483
464
468
489
500
471
434
431
422
445
471
481
474
476
465
469
477
486
508
483
471
473
478
472
470
472
467
465
463
464
463
459
457
459
473
497
501
475
467
472
472
469
463
464
472
472
473
464
473
481
487
474
457
460
477
467
466
465
468
486
496
478
464
453
444
460
486
490
482
469
444
447
444
452
456
464
486
498
468
467
476
467
459
452
446
459
481
480
453
447
455
479
485
475
472
481
485
474
468
474
481
485
462
443
451
474
482
486
489
472
446
444
454
474
487
475
450
457
482
478
475
471
481
472
481
488
499
504
486
486
492
508
510
500
507
531
521
505
479
462
479
510
524
523
525
518
514
511
520
534
565
535
511
505
486
478
499
512
533
526
531
579
567
533
526
533
529
518
529
543
536
535
537
526
520
513
505
502
498
496
495
492
487
480
476
464
463
463
447
441
457
468
465
435
425
438
449
454
442
438
463
487
490
465
433
425
435
435
442
451
452
457
455
447
460
447
437
431
429
434
443
447
441
455
458
436
460
470
437
434
445
442
443
440
453
459
454
459
452
443
433
429
437
451
461
460
445
431
434
431
432
432
436
450
460
463
469
466
457
444
441
451
455
467
498
494
488
500
498
488
513
536
541
556
570
587
613
627
631
643
660
666
661
666
673
673
671
675
681
674
660
652
631
584
543
510
466
387
326
299
263
251
251
242
222
209
211
226
242
263
284
294
308
327
349
362
367
366
368
383
393
425
423
398
419
470
507
472
446
471
488
479
463
473
491
497
492
502
497
486
494
526
520
505
466
451
467
473
478
480
495
499
495
494
486
488
494
498
499
503
508
503
505
480
477
488
512
526
516
523
543
524
510
496
479
486
491
498
498
504
519
516
501
499
496
486
493
525
542
527
520
516
518
520
526
530
517
495
496
508
517
532
524
511
501
503
503
505
516
531
537
521
509
518
526
544
525
516
520
533
536
536
530
514
502
516
538
532
505
495
549
558
534
515
514
514
525
554
542
555
558
556
543
523
522
522
533
556
560
560
552
551
548
552
561
571
568
567
525
521
548
561
573
569
550
535
533
550
569
557
557
549
546
558
556
538
541
548
559
561
567
557
548
553
553
549
548
543
546
545
550
547
543
544
550
552
558
578
564
552
551
539
532
542
551
555
546
526
513
514
520
535
548
552
545
549
526
524
529
535
536
523
505
499
505
525
521
535
532
512
492
473
473
491
513
525
520
516
492
484
493
501
501
481
463
464
462
458
463
467
461
458
495
491
470
472
454
444
449
436
421
434
452
446
449
458
447
423
424
419
435
459
450
437
446
436
416
417
404
374
370
400
434
447
444
435
438
434
428
427
427
432
468
493
489
463
421
423
426
431
421
420
431
432
442
466
446
429
430
440
447
440
437
451
461
466
480
466
438
442
448
453
445
430
432
437
451
450
440
437
443
469
484
472
461
456
452
453
459
472
472
462
440
444
442
448
467
479
484
469
451
461
483
480
479
472
463
460
465
482
488
491
509
505
470
458
456
445
442
452
455
458
468
455
459
485
487
485
485
468
466
468
473
474
466
474
477
464
464
465
471
471
472
473
459
448
446
465
509
502
483
467
455
460
466
468
469
473
476
482
496
496
462
442
446
457
450
456
465
465
480
479
462
463
475
474
471
466
467
461
456
469
475
464
463
473
478
483
486
472
464
464
455
449
450
449
461
495
499
479
468
459
465
471
475
476
453
439
438
457
480
475
457
469
473
474
477
475
477
481
468
478
473
485
509
514
510
481
451
473
499
487
481
491
506
514
507
501
503
513
498
489
488
511
569
581
522
491
495
518
508
521
537
543
541
512
490
492
491
500
523
542
534
537
570
545
524
544
566
555
545
544
544
538
528
513
510
502
500
514
538
531
509
495
498
505
501
494
484
478
470
472
477
479
470
450
417
416
434
448
451
443
440
445
451
450
453
454
454
450
451
448
436
424
434
471
470
457
459
448
443
461
467
456
452
448
437
409
438
453
453
451
453
443
435
441
457
462
458
428
424
434
437
431
439
477
501
462
426
413
436
459
476
454
445
437
437
447
456
456
459
449
435
447
465
477
491
501
471
462
469
465
473
495
512
532
559
569
581
588
585
600
610
612
614
647
678
693
686
682
676
673
673
673
664
644
617
552
498
451
389
338
309
303
299
271
258
247
225
207
207
220
247
281
286
290
306
334
354
365
381
375
373
383
395
414
437
443
444
451
463
473
485
490
504
508
494
492
478
453
456
459
463
475
476
470
448
463
499
505
490
479
485
483
473
478
501
513
517
498
478
484
483
497
493
493
491
490
496
504
504
502
511
525
504
495
481
504
531
547
526
494
494
514
539
530
500
494
515
501
499
506
516
508
503
514
508
499
508
516
513
505
478
480
508
532
538
548
516
522
513
513
506
516
544
567
569
564
538
500
507
528
534
546
520
510
504
491
496
516
533
560
547
546
547
532
524
521
505
505
501
518
556
562
561
547
552
555
555
548
548
550
543
546
558
560
546
547
550
548
549
553
560
579
568
554
550
551
539
546
576
577
566
558
545
534
528
530
537
547
567
594
585
559
562
562
564
557
546
539
541
559
572
584
568
546
520
528
537
562
571
566
566
579
561
544
551
570
569
588
596
574
542
511
492
513
517
517
514
516
515
519
514
520
537
539
534
539
529
496
490
502
513
522
514
495
476
481
499
518
508
514
517
519
495
479
486
475
467
472
469
456
463
471
470
464
452
453
448
454
435
431
453
447
459
459
452
448
444
442
435
426
433
436
431
424
425
429
428
425
438
442
444
425
424
426
443
456
452
438
422
399
394
398
396
398
429
449
461
465
474
447
435
447
449
449
449
427
409
430
483
484
468
457
452
449
447
479
469
439
426
428
422
428
447
447
432
439
449
449
453
464
475
465
461
478
469
450
463
462
457
442
436
447
446
455
463
467
464
464
470
465
469
480
456
452
452
463
459
472
462
460
472
476
472
470
472
462
457
468
469
477
485
480
474
487
482
487
492
468
450
465
483
510
514
480
466
459
449
450
467
475
467
470
470
466
469
461
466
466
467
459
477
453
437
493
489
454
475
476
468
475
476
477
480
499
482
471
460
468
471
481
484
479
465
460
461
452
449
459
468
484
486
465
468
477
472
454
443
448
460
482
492
489
498
485
482
488
480
479
476
473
488
487
498
523
515
486
467
485
494
509
512
495
491
496
491
502
509
515
507
514
512
511
508
506
508
514
519
504
500
498
508
512
501
496
483
481
524
555
533
519
519
532
559
551
565
541
545
543
517
501
522
512
523
525
521
495
496
488
502
508
505
489
461
450
452
462
470
458
452
452
478
471
455
433
432
432
442
459
475
468
451
445
437
466
463
440
441
449
437
447
466
456
444
434
429
429
449
453
472
468
455
456
454
462
449
474
504
474
441
434
442
447
432
433
456
448
444
452
441
445
440
446
458
460
443
431
442
455
458
449
441
453
462
455
442
446
446
453
459
466
476
474
477
488
510
479
474
502
525
549
571
587
590
609
614
621
635
651
642
651
682
687
683
676
663
670
673
691
691
637
611
565
498
447
423
401
371
330
278
243
245
265
282
272
241
254
283
298
310
315
308
315
324
341
354
374
372
386
396
425
466
467
451
436
432
449
488
500
484
477
483
484
492
497
510
519
482
459
451
461
502
499
479
487
483
482
487
493
480
468
472
489
489
496
499
494
497
500
505
511
486
500
518
486
476
475
475
472
517
537
503
489
493
507
524
544
513
505
517
526
500
481
509
524
516
522
518
503
497
500
498
488
496
517
526
516
529
516
497
487
486
506
537
552
533
503
500
521
527
515
500
516
527
527
532
521
507
527
530
520
515
512
523
546
545
539
534
538
516
532
539
525
523
543
539
532
543
536
540
533
511
514
517
536
547
548
563
526
512
566
587
564
527
526
516
542
568
557
535
568
602
564
541
556
573
571
570
566
562
566
569
565
570
565
546
544
547
554
539
528
525
530
565
566
565
565
573
576
564
573
554
551
542
537
539
541
543
559
572
545
522
530
553
541
531
538
548
555
532
515
522
537
550
533
536
537
531
513
509
514
524
535
536
536
539
493
472
483
519
530
501
490
496
513
503
497
469
463
456
451
470
470
465
455
454
458
440
441
464
463
455
443
443
469
444
435
438
442
442
449
465
476
448
446
425
428
432
444
424
424
421
430
425
423
434
442
439
442
427
439
430
436
435
434
439
420
416
437
456
472
474
464
425
427
441
439
416
444
464
451
429
415
431
409
391
445
483
483
457
446
450
450
448
450
478
472
440
433
433
448
464
450
457
463
476
473
464
467
483
476
463
466
509
507
470
450
458
470
435
422
442
455
444
443
447
458
461
472
480
470
458
450
448
456
456
483
476
467
471
495
503
491
497
492
475
459
458
461
470
472
477
479
474
479
479
491
482
484
478
477
473
459
472
471
453
456
457
450
451
451
448
458
480
490
469
466
475
449
447
440
477
527
514
476
459
449
462
492
497
491
487
484
491
492
480
463
461
475
489
510
501
487
496
466
460
463
475
469
479
476
486
485
483
491
520
520
506
512
495
462
468
502
517
541
560
560
493
435
462
473
479
506
507
508
516
517
527
533
538
549
519
490
482
486
490
508
517
508
504
525
542
546
541
532
538
561
558
531
509
498
486
487
488
516
512
486
469
455
444
459
482
482
460
455
445
452
451
467
454
459
449
462
484
459
447
458
486
466
438
452
459
450
456
441
441
443
457
469
452
451
457
432
457
486
461
428
435
439
444
470
459
451
447
455
477
472
458
458
451
451
429
432
432
454
464
452
437
441
464
457
469
476
460
463
471
482
480
451
423
409
418
458
485
482
471
482
483
499
491
513
540
519
499
496
513
554
580
591
563
560
579
612
628
612
594
638
668
679
687
697
682
677
656
670
668
644
612
563
526
469
420
397
377
361
344
329
326
298
284
311
309
281
273
295
321
337
343
350
358
359
357
380
403
429
442
451
455
429
434
438
470
489
504
489
485
475
497
491
469
445
440
476
485
470
470
460
460
465
484
504
506
487
496
495
503
505
497
492
489
477
484
507
480
465
469
469
475
482
495
509
490
478
502
505
511
521
512
493
487
489
475
464
478
482
515
521
506
507
495
501
500
505
512
496
495
498
514
519
505
523
511
498
500
505
497
513
520
515
500
497
496
510
555
568
545
557
558
531
491
477
471
473
492
498
496
516
513
509
502
504
500
495
508
523
516
511
520
537
559
558
538
523
489
495
525
530
538
542
533
533
539
544
544
549
543
545
541
545
542
539
545
529
537
566
568
571
559
521
502
518
556
548
540
541
543
542
512
504
528
543
568
567
556
553
559
558
549
551
539
537
538
530
535
530
526
532
562
560
542
525
534
549
565
558
529
533
532
538
519
521
537
555
574
552
519
521
525
524
522
511
514
505
509
516
501
504
517
503
509
508
494
506
508
517
511
493
485
477
463
464
459
463
459
445
471
478
466
442
462
463
451
460
479
466
449
463
450
467
459
455
447
457
462
445
436
445
454
454
426
413
430
439
451
449
437
426
407
429
467
476
468
458
433
430
434
446
437
429
428
440
439
434
436
442
431
425
442
450
454
448
449
424
431
458
427
402
406
416
439
473
468
462
456
462
468
458
464
479
476
461
461
453
429
455
445
422
457
510
466
438
464
462
467
469
463
447
447
449
442
459
458
472
474
456
467
475
460
459
467
477
482
480
489
480
482
475
467
454
445
466
474
457
460
456
457
468
501
498
494
488
462
460
469
491
479
454
450
466
471
470
470
477
479
459
460
477
463
466
479
486
489
484
485
482
477
473
482
473
463
456
465
477
473
476
472
451
451
464
449
471
495
490
493
487
481
485
497
498
493
494
493
482
472
477
489
499
504
494
504
524
496
482
513
509
515
533
514
488
475
470
466
483
511
526
529
516
499
503
511
510
504
484
480
476
481
482
513
513
510
549
556
532
517
520
510
509
519
520
540
580
556
523
481
463
488
497
490
486
476
470
479
480
477
480
470
455
457
461
471
480
466
478
468
454
453
451
452
441
441
460
462
465
460
441
428
435
451
459
438
447
451
452
445
461
478
471
453
444
449
453
464
465
446
433
444
465
469
458
454
455
450
447
425
433
450
445
451
473
486
469
474
462
438
439
459
441
434
437
455
457
454
464
467
459
453
486
487
471
480
487
498
510
504
501
540
561
559
556
561
585
594
606
606
610
616
626
628
628
636
654
654
663
670
650
630
604
596
569
526
493
454
435
389
348
329
313
325
340
328
305
300
293
293
323
356
362
354
353
371
387
402
423
429
423
424
441
447
455
448
459
466
474
475
456
456
456
479
486
467
460
468
476
490
509
499
464
445
447
469
464
449
466
486
498
498
501
488
469
476
477
481
496
496
489
475
492
500
489
469
475
490
480
466
465
474
490
505
507
509
511
515
502
507
504
504
503
506
505
495
470
470
478
481
502
508
505
505
496
509
520
513
517
515
507
515
519
498
490
464
482
498
511
532
536
531
515
516
522
517
496
492
498
506
514
510
508
515
524
540
530
525
523
519
518
494
483
483
488
488
512
541
552
549
547
560
538
523
532
544
564
551
517
505
512
512
518
528
539
553
563
554
552
563
569
557
534
525
529
513
524
546
557
554
551
554
543
530
528
533
544
557
562
571
574
557
551
548
552
546
538
533
525
513
506
527
536
556
549
537
529
540
541
549
549
546
551
546
551
544
551
543
517
510
523
532
518
502
496
510
519
526
535
538
538
521
494
491
495
497
498
508
508
492
495
489
471
464
466
492
507
494
506
518
473
449
456
455
448
453
471
475
468
464
461
459
455
453
440
452
457
427
394
396
407
423
420
424
454
449
446
430
436
438
429
436
444
444
448
453
445
431
427
432
462
455
439
438
446
455
454
436
431
418
426
439
447
439
447
459
475
470
456
426
417
416
423
431
452
464
470
479
442
431
455
494
465
447
435
433
459
472
462
435
431
437
443
458
470
467
462
462
466
457
452
453
450
450
459
472
493
503
481
476
482
468
459
467
473
472
474
476
480
482
473
448
428
451
461
472
479
479
463
461
481
472
453
460
457
460
465
478
480
482
471
479
480
470
473
497
509
499
493
490
459
448
454
437
436
452
455
475
483
470
464
471
459
478
490
484
469
464
481
469
453
455
465
475
483
485
488
487
450
446
458
477
479
457
441
454
497
505
490
487
495
505
513
492
490
507
520
513
493
486
487
495
499
512
516
508
507
493
499
511
524
517
510
501
493
495
490
487
481
468
478
505
527
527
508
527
560
550
522
508
515
536
523
485
486
519
550
555
526
511
518
507
512
508
475
470
476
474
464
452
452
463
467
456
453
459
453
442
440
438
440
436
447
463
479
471
466
460
462
467
460
469
445
428
428
434
436
440
448
476
498
468
433
426
430
421
414
424
424
443
452
456
464
472
477
455
453
460
444
447
454
457
461
468
444
432
432
418
414
441
470
447
448
458
458
482
470
465
471
474
458
457
468
477
476
473
473
474
483
478
501
500
493
513
535
547
558
567
574
587
616
635
646
643
630
640
656
679
701
724
749
721
685
682
654
609
574
523
468
424
409
378
362
345
320
333
330
294
290
278
283
301
322
332
337
348
361
369
378
393
410
418
424
435
454
461
441
434
447
453
449
420
417
459
481
468
462
471
482
483
492
482
476
479
477
477
472
473
481
478
469
455
452
474
485
479
457
455
467
490
509
482
496
505
510
510
485
469
468
480
485
480
489
492
483
479
488
508
512
513
514
493
481
490
494
503
498
485
482
483
484
484
468
472
508
511
502
508
538
546
512
521
502
482
475
500
494
497
510
515
505
500
495
476
494
538
539
523
517
517
530
529
515
506
508
521
536
537
531
515
510
514
526
543
547
558
538
500
497
508
514
534
544
546
555
532
511
525
553
559
547
511
495
513
528
551
553
539
526
523
527
541
559
549
533
522
527
560
564
550
540
532
528
543
562
566
542
545
547
580
579
532
513
515
534
528
517
520
536
549
560
562
569
553
551
541
550
565
571
556
538
539
554
550
544
539
527
532
539
555
564
562
554
534
524
524
511
497
503
498
504
519
526
513
508
511
517
522
522
512
508
511
500
491
485
480
478
479
473
475
486
477
473
471
483
483
465
454
471
472
455
451
451
444
443
454
460
447
434
434
432
437
454
468
446
434
435
435
447
445
444
436
425
417
409
387
389
406
430
464
481
465
428
422
432
427
433
460
454
438
437
428
433
442
441
440
436
430
427
432
442
451
450
458
465
462
453
448
444
443
448
457
473
447
424
426
443
469
474
455
445
437
450
447
443
444
449
460
468
470
463
447
436
431
441
465
472
474
467
462
464
463
458
458
460
467
487
494
478
483
474
459
443
471
487
453
453
448
455
473
484
476
465
469
494
496
480
485
474
475
471
472
470
475
497
498
480
455
452
463
470
474
491
506
496
465
446
440
447
457
465
479
480
469
465
447
443
443
445
433
447
461
470
496
487
476
476
474
470
456
451
455
470
473
475
468
477
473
471
472
463
461
467
478
497
497
479
465
476
491
479
461
449
450
467
473
469
464
462
455
461
463
478
477
456
465
477
482
494
502
503
480
468
469
468
465
479
475
490
502
495
496
509
499
496
510
491
487
491
487
480
477
501
539
548
529
502
491
511
516
517
517
528
541
501
482
478
499
517
541
546
523
506
518
528
530
528
533
552
539
526
505
498
517
517
495
481
470
455
456
482
508
518
493
468
452
459
460
463
467
464
447
438
438
438
443
428
446
468
457
456
457
444
437
444
456
466
453
437
434
435
449
458
464
458
451
437
434
438
447
460
455
444
446
450
450
448
444
436
439
445
457
461
472
463
437
417
419
465
466
419
408
422
446
451
458
461
450
442
440
455
477
467
440
451
449
422
445
453
440
445
469
490
489
493
499
520
508
506
519
534
553
589
621
625
619
624
636
641
649
664
676
694
717
700
692
692
679
681
682
656
608
558
517
448
395
375
369
335
296
270
259
235
245
249
254
276
301
308
320
317
318
325
349
379
398
403
413
408
426
431
422
421
432
436
436
457
478
485
464
449
451
450
468
499
486
480
484
488
479
487
484
474
474
488
496
488
459
440
449
469
472
482
494
486
490
492
487
473
466
466
482
491
497
499
489
489
494
501
511
515
483
472
486
498
510
525
524
505
480
460
461
473
483
486
485
485
511
539
545
520
511
496
488
483
488
497
516
520
504
505
513
521
501
519
521
513
498
497
517
527
536
530
524
530
529
528
515
509
517
514
498
494
493
491
480
487
519
528
537
548
544
539
539
542
553
560
555
540
514
511
510
513
516
528
526
533
547
540
537
541
559
565
588
587
543
506
498
523
542
545
549
546
538
530
527
527
552
576
561
546
535
541
548
537
543
547
555
560
557
540
536
545
552
552
548
543
532
545
572
559
535
552
584
581
536
524
513
500
497
498
519
547
553
543
537
529
526
526
546
580
583
551
519
510
520
534
552
551
533
534
516
508
490
499
504
478
495
511
507
501
498
491
492
495
494
483
490
489
484
475
463
491
497
465
456
454
453
459
460
463
464
464
471
469
465
450
450
461
450
445
436
429
434
441
437
438
443
433
423
422
431
433
427
430
435
432
426
430
429
437
441
446
447
434
422
417
409
418
421
422
424
446
456
458
452
442
452
462
450
429
417
433
465
444
453
474
456
440
439
442
449
448
449
454
458
454
455
448
448
450
438
439
466
472
459
454
460
465
456
452
450
445
446
468
492
506
493
470
456
446
437
447
451
448
450
437
443
459
470
465
464
476
477
456
460
440
431
486
510
489
474
461
468
481
478
482
481
451
446
450
452
451
453
457
468
478
466
464
461
469
479
492
490
473
456
448
453
472
477
474
464
448
427
432
441
456
473
480
484
484
476
466
465
463
460
470
480
475
467
468
468
483
481
463
456
438
458
488
489
469
467
461
461
466
469
477
473
475
475
476
474
469
473
474
464
459
465
468
477
479
471
478
478
461
453
453
456
464
475
493
506
486
470
431
399
416
450
478
507
523
527
489
467
466
486
487
485
488
485
489
492
483
487
493
498
507
499
483
490
490
505
509
514
510
484
487
492
507
532
551
556
545
509
487
499
514
509
501
515
509
512
516
513
515
533
564
557
545
533
523
519
519
527
534
527
521
516
518
495
474
466
465
462
490
513
491
469
459
457
454
455
457
458
453
450
462
464
443
437
419
415
414
448
477
481
462
457
453
435
410
412
444
471
490
480
471
454
448
450
438
425
418
418
431
454
460
438
430
435
437
420
419
443
462
459
447
434
429
436
448
447
447
438
438
434
434
436
415
426
460
461
458
459
456
450
463
474
475
470
452
457
477
473
483
492
502
504
486
479
493
510
526
544
571
587
590
605
636
655
660
661
670
676
689
696
676
671
678
675
672
655
633
589
536
488
444
413
379
330
282
266
272
262
242
228
220
231
245
254
281
298
302
333
358
358
371
367
404
426
413
425
440
440
448
454
451
455
470
481
491
515
517
498
491
465
439
452
465
462
463
466
467
476
481
484
492
497
478
461
461
462
486
488
490
491
503
509
494
488
490
485
474
465
473
480
494
491
477
495
505
504
493
495
493
492
510
550
565
550
526
508
501
497
497
495
509
508
495
495
493
490
494
512
525
519
525
518
499
516
519
515
521
501
475
475
494
534
540
534
512
512
523
526
518
522
536
519
511
522
543
540
523
519
523
521
514
510
511
535
545
540
541
567
561
540
550
556
558
543
501
488
526
556
555
542
547
551
536
542
535
516
514
520
522
550
563
551
564
566
551
538
528
542
575
565
536
529
547
569
564
538
534
547
561
555
572
561
559
574
604
582
565
541
510
512
516
526
554
556
544
537
542
552
554
544
553
551
547
542
525
523
534
532
534
554
568
552
520
514
536
550
556
559
536
511
510
519
529
527
523
518
515
527
545
537
519
525
531
532
518
519
527
533
505
481
484
487
491
495
488
474
477
476
489
485
436
419
442
472
478
470
474
491
494
473
453
443
449
467
457
435
426
424
429
441
451
463
457
435
420
416
437
448
447
430
426
442
466
454
436
422
433
440
447
451
431
426
432
431
426
430
443
442
442
439
442
441
447
457
463
458
437
419
414
428
442
451
471
470
463
450
449
455
463
451
440
440
457
462
456
467
448
439
436
444
458
452
450
475
488
472
464
477
479
467
460
459
439
433
425
428
470
482
479
484
481
481
486
486
467
455
465
478
502
512
501
452
433
438
438
436
444
469
486
469
464
494
506
473
462
467
467
476
483
476
463
460
465
477
478
476
465
444
446
453
466
494
470
466
462
468
475
478
477
465
470
470
477
492
482
459
449
461
453
454
445
461
479
474
468
473
477
482
480
472
471
467
467
472
474
480
487
485
489
485
472
463
460
454
457
462
470
469
470
468
466
466
458
460
465
472
459
466
476
483
469
461
472
466
454
459
457
459
497
501
474
457
453
459
470
470
488
507
514
498
481
476
453
476
493
486
484
495
495
506
513
513
511
495
493
498
500
491
473
482
502
520
518
488
490
510
512
521
533
527
529
526
505
483
475
490
518
529
524
517
515
515
521
544
572
594
571
537
542
551
552
530
512
504
497
490
481
479
483
479
477
478
484
490
487
474
455
445
451
461
461
457
452
448
447
456
462
447
433
431
436
449
447
435
443
451
455
456
444
434
443
435
439
449
460
453
448
452
454
444
434
434
452
462
479
492
437
411
434
440
439
448
453
448
447
461
477
456
425
419
445
435
434
444
441
431
445
466
465
456
459
462
468
466
457
441
438
451
455
471
507
494
480
457
451
450
453
499
570
577
566
560
566
588
619
625
641
656
663
661
655
662
673
648
630
632
646
672
645
578
531
527
517
491
439
379
337
308
259
231
235
245
236
221
234
238
261
277
292
312
337
367
398
405
403
355
368
395
411
432
452
460
477
473
474
479
489
475
452
450
461
481
486
480
468
460
471
464
485
511
486
473
483
487
489
490
488
489
490
490
491
494
507
506
493
494
498
500
497
491
491
506
519
525
515
495
509
495
480
481
491
509
511
508
493
487
483
475
494
531
531
509
504
507
506
509
521
524
513
508
497
492
486
492
515
518
541
531
525
531
535
521
529
544
552
527
489
485
505
522
531
532
529
549
532
533
532
523
519
521
534
543
543
529
531
549
558
552
539
530
529
539
521
511
526
545
550
566
555
548
543
532
539
551
544
530
532
533
531
541
539
546
555
544
536
543
553
567
567
554
537
544
562
560
544
543
544
549
547
547
547
559
568
562
544
531
537
566
576
560
539
535
536
538
538
536
545
568
575
570
565
548
534
529
525
521
526
537
548
559
569
560
540
544
543
540
528
527
535
543
528
506
505
521
533
552
543
524
519
530
526
508
482
476
461
483
525
539
549
551
534
528
513
487
488
491
479
468
457
451
458
473
502
498
487
477
477
485
491
499
490
460
426
429
452
464
476
477
450
442
432
425
429
421
422
439
448
431
419
432
437
432
436
428
418
428
451
442
425
424
424
445
466
445
426
428
439
456
432
427
427
429
430
437
436
425
427
436
448
449
443
440
437
438
439
448
462
463
460
449
439
441
446
448
447
464
465
454
462
464
452
445
459
454
445
453
440
453
456
452
461
468
501
484
451
428
435
467
478
467
458
444
443
459
456
467
474
477
453
431
435
440
461
475
473
475
470
460
466
478
488
476
456
446
448
466
478
473
483
485
476
477
474
462
457
469
498
499
482
473
474
466
456
453
451
450
465
489
504
508
501
483
477
462
452
453
466
470
479
469
466
463
460
455
459
455
449
453
453
450
483
504
499
498
494
486
487
481
469
449
457
465
469
458
467
474
477
493
490
479
462
467
467
464
459
455
455
462
469
468
467
463
471
479
475
462
459
475
471
471
473
491
523
488
448
444
458
467
472
471
456
432
427
451
480
474
460
465
452
501
539
520
471
472
493
491
497
485
478
475
479
480
491
491
487
499
498
505
526
520
513
508
513
516
523
524
512
510
505
502
501
503
508
512
506
493
497
542
537
517
511
527
540
537
534
538
542
548
552
554
559
546
552
532
521
519
522
520
516
521
513
507
501
486
467
462
459
462
464
463
469
474
477
481
457
456
460
461
464
440
435
434
432
444
468
467
465
454
453
443
431
431
437
440
453
466
455
446
456
454
440
441
446
443
442
451
455
445
429
417
421
442
475
474
451
437
434
433
441
452
465
459
444
424
428
435
441
454
441
432
414
432
444
443
427
434
474
493
505
515
493
461
468
481
489
480
477
477
486
506
511
501
510
527
550
570
595
610
622
641
646
640
663
654
652
651
650
657
659
668
667
658
641
600
559
522
487
438
384
348
315
274
249
248
243
233
238
233
243
243
251
270
279
298
320
347
385
383
379
403
414
409
406
421
444
457
462
469
466
474
486
495
498
478
461
460
469
491
501
499
496
499
487
463
457
466
479
503
519
495
452
444
470
492
503
506
514
529
539
534
502
472
492
495
487
503
506
513
506
501
499
498
501
503
503
506
513
538
534
505
499
513
504
484
494
517
514
505
506
509
508
503
508
507
513
517
516
516
524
526
525
522
533
527
510
513
519
530
536
526
508
497
490
490
502
540
559
548
543
556
547
530
527
505
500
507
511
509
521
543
534
529
531
538
549
550
546
528
509
515
541
565
561
561
543
512
512
527
532
532
546
574
589
565
548
545
554
559
544
548
552
546
535
530
534
538
552
553
541
546
553
558
558
561
578
602
601
569
559
526
564
570
552
530
525
529
522
519
530
546
556
553
547
543
539
546
552
551
549
550
551
556
555
535
524
536
544
547
550
537
535
548
546
527
514
525
531
528
528
531
541
540
528
522
521
528
538
520
499
491
489
493
501
512
508
491
475
505
528
507
494
504
514
510
501
478
456
436
453
467
469
467
464
458
455
457
460
459
463
457
461
456
443
430
435
449
466
472
470
435
406
406
401
424
436
419
430
479
484
459
450
432
431
414
392
399
412
431
436
439
439
433
420
418
432
442
452
457
447
446
444
442
451
455
458
452
439
429
428
436
444
447
446
441
438
436
441
461
454
448
464
473
455
442
448
442
439
461
462
440
446
460
465
457
446
431
431
444
453
481
491
489
489
483
462
458
458
465
476
454
446
467
476
475
469
462
469
476
464
448
450
456
459
462
464
459
463
469
474
482
483
476
460
440
441
448
461
483
500
501
489
486
489
482
481
479
473
489
463
456
452
458
461
481
494
490
498
480
445
445
461
476
478
464
453
458
459
464
468
469
476
463
441
432
453
465
487
499
479
468
471
450
441
439
469
476
463
463
467
470
474
473
472
470
463
465
470
479
488
497
508
494
465
463
473
471
448
458
469
470
452
445
447
467
471
466
458
469
476
476
473
473
476
480
479
476
472
478
456
426
443
467
470
498
502
491
493
496
495
505
493
481
492
497
507
513
498
496
488
490
496
502
505
510
517
532
531
509
497
510
528
531
533
536
534
523
502
504
525
526
521
524
519
523
532
537
551
551
547
546
536
521
529
533
533
528
512
497
492
487
491
497
495
484
470
465
474
491
491
501
470
457
442
444
441
432
431
435
462
476
450
419
409
410
421
450
471
467
461
460
463
473
465
431
421
453
454
434
430
433
444
444
437
432
421
420
443
454
464
490
472
439
431
431
418
392
392
413
443
476
467
454
442
435
435
437
440
442
434
435
447
455
462
469
459
437
428
438
451
459
449
449
455
476
497
501
497
503
518
511
502
504
502
557
572
568
587
601
618
630
635
649
665
687
692
675
647
633
633
640
650
639
623
590
550
511
440
371
329
305
293
280
262
244
229
213
211
221
239
247
267
285
301
324
368
384
395
393
353
336
381
406
426
422
430
463
468
464
470
479
475
476
495
490
466
445
479
492
471
485
490
474
478
473
448
425
417
431
493
533
524
518
521
517
511
514
514
506
507
496
489
489
492
493
481
478
503
510
538
518
499
510
508
483
498
509
513
503
501
501
495
498
511
517
504
503
526
527
550
569
554
499
464
469
488
500
510
523
512
525
526
516
522
532
524
520
520
518
516
516
527
550
537
509
506
514
527
529
527
526
529
532
527
525
526
537
555
526
504
511
534
557
562
552
555
561
544
534
531
526
529
524
522
523
536
527
544
558
555
529
533
559
560
546
543
543
543
563
563
553
540
517
532
554
562
551
556
550
530
520
516
543
558
574
578
562
556
565
563
557
561
559
549
547
553
569
580
579
581
556
528
524
530
547
561
553
544
536
531
532
543
564
553
540
539
528
518
530
550
542
539
534
546
553
558
539
527
515
526
537
532
524
517
515
517
519
520
516
507
506
512
532
553
532
510
493
496
505
531
545
521
497
453
439
441
444
449
461
487
482
461
459
469
470
466
454
444
428
432
445
433
442
447
449
454
441
436
409
423
449
454
444
420
428
434
431
431
448
449
431
412
395
400
421
431
429
445
449
457
463
463
455
436
428
427
428
431
429
431
438
444
442
441
431
438
451
450
454
459
455
450
444
450
452
454
453
451
462
469
471
457
438
442
439
442
444
453
448
456
457
458
442
444
474
491
493
464
457
451
453
482
485
472
440
432
445
451
453
457
461
470
464
465
467
471
482
462
459
456
452
452
459
458
452
428
436
452
473
485
506
493
463
450
456
458
453
463
477
479
474
487
500
483
486
478
461
456
454
465
471
475
468
465
456
447
439
445
439
458
494
508
500
471
452
475
483
482
482
464
460
457
455
462
468
468
450
462
473
481
487
490
493
494
484
481
469
454
449
464
475
474
466
470
498
499
468
452
472
506
514
499
489
482
450
425
425
452
460
476
481
467
457
456
453
455
466
478
477
471
466
467
463
463
477
485
483
487
483
489
484
476
488
495
506
515
518
508
504
502
509
510
507
500
513
517
517
516
512
514
515
513
508
514
513
499
506
522
516
499
498
505
516
524
534
540
544
545
554
571
569
570
565
564
548
509
491
501
484
488
506
510
513
512
491
473
476
467
462
480
508
495
468
460
462
468
469
471
450
416
430
471
507
491
456
427
423
436
437
429
431
468
481
470
458
448
441
420
421
451
485
477
468
439
413
414
435
437
438
445
442
447
432
435
442
441
430
434
443
448
448
449
449
450
447
444
448
451
447
446
443
445
457
461
453
469
481
467
449
441
446
442
444
461
479
493
498
479
480
467
457
465
481
512
556
573
566
570
592
624
653
649
634
637
648
647
637
636
653
681
691
692
669
652
626
595
557
511
459
393
338
301
296
291
276
248
215
209
207
226
239
252
287
298
298
297
304
334
386
406
400
404
412
411
435
465
461
454
443
451
464
480
488
495
496
487
466
464
476
486
496
476
476
483
482
491
504
511
496
478
463
485
503
490
484
489
488
487
486
479
482
499
525
517
494
493
502
502
509
512
498
491
494
498
497
500
506
509
515
509
494
481
482
483
498
528
540
530
517
524
530
524
520
514
503
491
497
535
550
529
500
491
497
504
527
554
544
531
529
542
539
532
522
497
492
497
523
550
553
522
529
533
519
510
528
557
566
572
562
536
497
521
549
555
537
543
546
528
501
520
531
540
546
559
552
518
513
520
524
527
547
553
557
549
536
546
560
562
554
543
554
556
560
555
544
539
533
536
539
571
565
559
564
562
559
557
554
556
557
554
554
557
558
554
547
546
554
557
550
547
556
567
561
553
541
535
529
528
546
565
566
543
536
541
524
537
565
553
536
534
540
554
573
572
569
548
530
507
492
486
507
532
549
566
551
542
535
522
512
503
517
526
504
495
498
502
518
508
483
456
451
469
520
537
526
498
483
480
481
489
493
487
475
457
425
436
467
461
425
424
423
435
442
432
431
437
456
447
426
418
422
433
441
447
444
437
435
439
452
446
423
418
430
443
454
434
428
435
426
418
428
448
440
426
425
428
433
430
433
433
435
438
438
439
441
446
450
444
436
433
431
432
436
436
435
429
449
461
469
480
473
453
438
427
427
448
469
483
475
450
442
446
452
462
454
456
474
477
453
442
452
461
469
489
487
471
460
463
461
462
465
467
482
493
475
464
450
438
439
445
456
458
470
485
475
456
464
467
468
473
465
482
459
455
444
450
471
469
467
472
468
460
466
477
482
476
481
469
480
468
464
461
465
465
479
483
464
455
443
436
462
462
471
478
487
491
473
469
475
484
475
469
475
479
479
479
480
487
492
492
471
449
439
440
451
454
448
472
501
484
463
462
470
467
467
463
458
444
418
417
447
485
509
528
506
477
465
469
471
475
502
530
521
482
454
450
441
444
464
472
477
470
472
463
441
444
475
499
501
499
497
499
488
486
489
491
483
491
495
492
492
507
526
526
509
490
477
472
487
509
522
546
544
544
538
508
504
507
513
509
509
513
513
515
518
538
551
545
541
548
552
552
548
539
528
527
531
527
520
510
504
508
519
539
537
514
470
458
464
473
466
476
470
474
471
451
429
417
421
424
449
468
467
467
464
447
428
427
445
447
435
434
451
482
478
463
464
462
444
433
438
449
468
488
476
450
429
421
418
409
406
423
467
470
443
434
434
462
474
452
437
436
442
437
434
441
454
461
464
461
428
423
429
435
443
440
448
469
497
495
477
443
433
448
460
467
477
486
486
479
471
472
488
513
533
526
536
571
585
593
606
623
647
648
650
677
681
694
701
687
689
679
669
640
634
610
577
514
475
436
400
363
339
301
269
254
229
204
188
194
222
231
237
245
263
287
310
342
364
372
379
375
395
384
374
422
473
476
455
440
456
496
521
515
494
475
466
468
476
468
467
467
463
468
477
480
481
489
482
482
503
517
497
479
472
468
473
483
497
496
497
505
505
505
508
510
516
518
519
501
491
496
493
489
477
485
501
503
485
491
507
526
546
569
558
499
472
491
516
500
493
501
507
506
523
530
532
543
542
545
529
506
488
509
509
504
517
531
525
509
505
521
527
517
510
517
508
512
528
525
530
541
536
525
524
524
536
544
526
522
526
532
554
551
534
540
551
564
575
543
519
540
540
533
533
529
544
548
543
543
547
547
542
530
521
533
554
571
555
535
527
537
561
562
560
558
558
560
559
560
567
558
543
528
536
557
574
572
559
562
567
548
538
535
543
567
586
571
559
554
553
547
537
528
535
546
550
560
555
554
563
589
575
572
561
571
555
510
500
524
526
537
515
494
522
556
560
552
535
533
535
535
528
532
533
530
533
530
533
531
526
541
543
522
508
510
505
516
514
473
459
477
487
502
503
502
506
502
488
471
454
446
448
450
444
439
439
445
439
434
431
435
448
457
454
438
424
428
446
454
431
425
435
440
444
441
417
424
442
441
436
443
428
412
396
419
435
454
457
431
424
428
443
424
410
408
425
447
438
439
448
458
450
431
428
432
432
442
470
460
462
460
442
447
439
424
435
445
434
411
408
414
430
432
462
483
495
483
455
443
448
447
442
445
461
461
467
463
455
464
455
482
499
464
434
451
449
450
454
462
468
466
457
461
470
477
476
470
453
452
463
472
476
474
497
473
439
441
457
476
493
473
474
485
464
451
454
459
462
460
465
468
466
460
463
458
452
431
418
442
494
513
481
469
498
490
468
469
473
470
472
477
475
471
479
472
452
442
462
468
451
454
486
476
488
478
476
474
480
488
490
481
459
453
469
460
464
488
497
466
456
461
469
468
461
470
468
465
475
476
460
462
451
458
464
471
484
492
490
483
467
459
462
472
479
485
495
486
469
469
492
493
477
461
483
493
491
506
526
519
515
505
508
521
529
515
509
514
528
513
514
514
517
515
526
553
539
489
466
480
501
525
541
543
544
552
552
547
531
506
499
517
529
538
536
526
531
523
517
517
503
495
490
483
477
464
464
470
501
493
445
451
451
438
460
486
472
446
449
449
450
449
465
457
457
468
454
433
435
442
440
443
439
435
438
441
443
451
446
439
430
434
450
457
459
439
441
439
443
457
466
480
462
444
417
423
439
442
429
425
442
459
479
465
449
452
454
459
457
454
456
455
436
424
431
436
439
456
461
464
472
463
455
446
462
496
517
496
497
494
491
518
539
538
563
579
598
631
637
628
625
649
673
669
667
684
708
696
683
683
672
640
603
567
523
496
479
409
363
339
311
275
254
244
234
231
239
255
235
238
269
285
298
322
335
359
371
369
375
384
397
404
423
464
465
451
458
458
468
470
468
491
507
500
494
510
489
477
480
480
475
470
477
486
500
498
498
494
495
502
502
491
500
489
465
458
469
482
492
500
522
526
504
480
480
492
498
503
504
504
504
510
517
514
526
540
529
498
485
485
491
506
510
511
496
494
488
487
503
520
513
518
505
508
525
528
512
498
491
495
519
541
559
545
511
505
511
521
518
512
505
497
512
514
509
527
541
567
559
508
507
532
563
575
572
535
530
525
526
527
543
539
518
522
535
540
539
531
537
546
541
541
535
527
514
504
539
562
555
543
549
542
573
578
554
547
562
558
551
538
530
528
524
538
575
582
564
552
553
542
540
548
554
554
556
559
561
558
560
570
554
560
567
573
584
589
568
547
541
530
537
542
545
548
552
550
556
557
546
540
544
557
561
549
524
525
537
552
560
557
545
540
531
531
546
540
535
531
529
531
543
547
520
515
517
518
506
515
521
515
515
507
497
500
507
541
543
500
487
489
477
452
454
465
491
526
502
469
449
440
441
440
449
429
412
444
464
446
444
452
449
445
443
453
454
444
436
428
433
442
441
427
415
410
390
405
454
488
479
454
428
418
423
442
455
453
430
422
426
428
438
453
463
464
453
452
462
478
480
467
442
414
417
425
432
438
445
447
442
438
433
449
459
459
464
467
458
451
442
451
446
436
452
438
423
453
498
485
469
479
481
465
455
452
453
455
460
466
462
459
479
494
488
475
479
455
446
454
456
473
499
507
492
474
448
433
440
443
459
468
470
467
468
472
487
468
474
487
481
455
456
468
463
452
444
469
500
489
481
477
476
461
457
459
454
465
477
476
474
481
486
478
475
476
483
505
506
502
478
478
464
451
447
460
494
511
497
469
470
483
479
459
466
470
452
462
480
472
458
454
453
476
492
498
507
490
473
469
460
461
464
460
477
479
468
468
490
502
505
502
488
474
498
508
512
512
502
487
488
499
517
529
535
505
466
461
485
494
497
512
512
505
508
511
513
509
517
511
503
489
478
482
493
499
497
504
510
518
524
528
543
557
558
549
544
541
534
522
517
513
513
520
518
505
514
544
522
483
462
477
487
471
454
450
458
479
482
486
466
441
433
432
449
446
450
458
443
427
425
446
471
478
477
488
469
432
399
399
401
415
445
457
444
440
441
444
469
499
496
454
429
438
439
431
426
429
456
456
454
455
456
452
455
444
420
412
430
440
445
460
467
463
450
445
450
450
440
443
465
443
443
435
450
463
452
462
473
473
488
508
513
501
501
506
506
516
531
546
559
559
563
595
623
634
638
647
658
657
658
659
652
641
646
653
668
676
655
623
550
502
487
438
371
331
298
277
274
259
246
232
223
249
261
262
269
316
320
312
332
351
387
399
373
359
376
397
414
442
459
460
456
458
479
493
492
466
469
478
475
473
461
443
454
495
500
470
448
442
469
471
504
514
495
485
482
487
489
490
485
486
502
497
501
504
492
488
482
485
501
502
501
503
509
516
510
501
493
499
509
496
492
489
495
499
497
495
493
492
500
514
535
533
516
501
489
485
495
519
512
505
532
549
548
537
520
487
462
461
470
496
527
541
533
531
523
509
515
520
521
536
502
475
501
531
531
527
522
518
534
548
539
547
556
580
582
530
518
520
520
520
515
503
490
522
552
575
546
531
541
551
562
556
547
540
536
540
548
550
541
538
541
546
549
532
538
555
541
537
555
531
527
537
535
545
575
593
600
588
573
564
545
547
545
551
561
568
564
554
554
556
557
559
558
556
564
581
574
557
549
543
544
549
559
564
545
531
542
559
575
569
569
580
563
520
496
507
522
526
520
523
532
537
535
529
526
525
528
529
529
536
546
541
532
535
506
476
473
462
451
455
473
487
493
497
484
465
457
452
440
429
439
442
460
480
479
478
475
451
433
423
432
466
435
426
437
443
444
446
451
446
439
437
431
409
433
423
420
414
416
431
426
444
421
425
422
430
434
438
451
450
439
440
443
428
418
422
425
430
434
440
440
432
430
433
439
443
445
440
450
438
440
443
434
439
450
447
444
442
443
443
454
467
483
489
472
435
415
424
445
462
461
453
455
441
427
432
437
465
489
481
468
434
414
428
449
455
461
471
468
460
465
470
491
496
482
459
451
458
459
455
461
455
452
465
479
503
500
453
437
432
470
491
493
491
467
471
462
466
471
454
441
454
458
451
479
496
496
495
491
477
475
479
477
475
477
476
474
464
467
474
481
485
484
478
472
468
450
450
475
507
514
495
475
466
465
466
460
470
471
461
451
455
467
468
483
504
513
504
484
473
452
447
464
481
484
471
450
451
465
488
505
485
461
466
496
513
510
490
474
474
474
492
504
502
507
531
517
490
495
509
518
513
484
449
477
505
526
528
529
534
545
524
513
521
514
499
495
503
508
500
508
520
527
538
557
546
528
534
546
555
569
549
522
518
520
527
503
486
482
477
477
472
465
463
475
494
481
467
462
460
477
479
462
456
453
448
458
461
452
454
465
467
454
437
421
423
428
461
464
450
438
436
435
440
452
454
449
437
442
458
452
448
448
434
423
418
428
457
455
445
444
449
451
452
449
434
438
421
418
422
428
456
500
465
428
435
447
448
447
440
439
441
444
461
465
463
470
451
428
433
452
468
478
483
488
490
487
505
496
480
505
518
527
546
570
599
619
646
651
638
655
671
672
678
673
667
656
667
691
686
665
648
615
567
526
475
415
378
365
338
290
266
271
267
254
240
251
262
256
239
258
279
298
323
351
375
400
398
401
403
422
440
456
450
433
419
428
441
473
501
496
485
474
488
494
490
484
457
450
460
465
482
494
496
468
477
498
504
499
490
494
480
473
473
475
478
494
496
487
480
493
503
480
470
492
497
489
478
485
494
492
491
495
502
508
509
477
464
487
497
511
514
514
505
495
500
505
506
530
522
509
499
502
506
505
506
509
514
517
516
528
549
556
538
521
496
492
493
507
531
525
500
483
482
486
492
510
528
536
530
524
521
524
521
514
520
525
519
522
526
534
550
553
556
534
519
501
514
539
553
547
549
561
546
538
542
551
551
546
554
569
585
570
554
550
532
531
541
549
547
556
566
558
546
543
549
557
561
564
568
544
542
553
543
543
563
560
563
563
555
555
553
558
557
558
563
548
546
560
567
558
556
560
579
569
535
523
536
555
550
550
556
563
566
540
540
534
524
517
522
538
538
517
501
501
519
538
520
519
507
527
538
530
527
522
509
502
498
495
494
494
512
537
522
497
486
485
479
475
495
478
481
481
467
464
474
469
456
449
432
414
401
442
454
452
470
473
447
435
439
454
483
458
416
416
445
467
450
430
421
416
422
426
427
430
441
445
447
447
423
405
418
420
418
420
424
429
445
453
443
440
425
440
436
420
429
445
439
442
475
479
467
447
441
425
419
430
443
452
446
461
472
434
420
420
435
449
446
443
443
437
442
445
462
460
448
447
448
451
460
464
454
454
463
466
472
458
436
432
451
438
436
453
456
445
450
471
472
471
491
499
470
449
442
442
458
490
480
462
460
453
451
458
476
500
493
470
458
454
459
474
479
474
476
496
496
469
456
464
475
475
491
479
449
456
484
498
490
479
494
500
485
454
449
446
453
479
485
464
480
477
458
446
453
474
505
506
498
472
450
440
457
468
476
477
465
464
467
462
455
454
469
464
455
447
451
457
452
489
504
492
471
461
457
457
463
471
469
467
482
497
475
457
467
468
463
463
472
474
471
443
442
450
460
471
470
470
467
458
455
460
460
462
463
462
461
461
460
462
458
462
479
480
474
472
469
474
465
458
459
463
480
495
487
487
508
512
505
492
465
447
461
484
495
502
500
508
527
519
502
487
495
492
491
489
467
458
478
514
550
556
522
516
522
517
496
495
519
522
515
515
521
527
531
534
534
564
578
568
553
553
543
543
535
515
496
485
485
482
482
484
499
494
470
469
466
482
514
506
480
439
411
410
423
457
451
437
442
455
457
450
448
444
445
444
449
453
440
448
453
462
451
449
448
444
438
436
449
459
454
455
470
463
450
452
430
430
448
465
451
434
443
455
468
473
473
441
414
401
420
433
457
464
448
440
442
454
459
458
452
437
440
449
447
470
464
444
437
438
445
445
467
485
494
495
488
478
472
482
500
519
540
572
591
598
608
619
636
654
671
651
656
679
705
684
652
642
675
720
717
698
641
587
522
473
419
371
341
325
305
300
291
267
251
235
221
229
246
274
290
293
316
343
344
352
370
377
387
400
429
451
463
461
447
426
437
453
460
477
492
498
494
472
450
465
479
473
471
474
479
488
497
482
469
469
467
482
498
489
479
471
478
501
504
511
495
493
485
484
484
496
500
498
503
498
493
492
493
501
505
500
495
504
516
508
508
495
493
493
498
500
500
501
495
494
490
484
506
530
516
511
509
514
523
526
548
522
513
501
494
502
515
520
510
510
512
520
530
515
508
521
516
531
580
578
537
519
526
532
533
538
528
504
505
508
524
546
547
535
522
505
498
510
531
541
544
549
539
532
536
534
535
540
532
523
538
548
535
547
540
526
560
556
560
561
545
542
547
545
550
555
566
552
534
531
552
574
590
594
572
553
535
580
579
548
522
514
532
552
560
553
545
543
559
585
595
564
544
539
534
541
543
539
534
534
546
563
568
549
553
550
557
556
549
525
494
498
502
534
566
583
576
576
581
542
517
500
513
534
529
525
533
537
525
506
507
508
500
498
500
504
503
504
521
527
505
497
489
488
485
493
485
475
487
484
469
466
467
467
461
456
461
458
449
440
439
445
465
465
446
431
445
430
428
425
421
427
441
452
459
462
462
440
428
419
389
380
379
391
427
447
434
436
446
447
441
445
435
427
435
460
474
463
451
440
427
419
420
431
448
448
456
438
460
468
455
441
435
416
422
443
443
439
435
438
445
441
450
461
463
457
453
419
427
444
461
455
451
458
464
455
435
438
468
494
487
456
457
475
469
453
452
477
481
471
461
462
458
459
473
460
456
466
470
475
470
466
470
452
449
449
464
479
481
484
496
506
497
482
454
444
443
446
457
473
487
481
458
438
453
464
474
485
471
471
473
476
477
483
483
462
454
459
458
460
466
474
475
470
478
486
482
466
451
461
482
485
478
482
479
469
451
443
452
479
487
479
471
473
470
484
466
440
422
443
467
480
492
472
462
466
487
487
474
460
455
462
474
446
461
466
472
483
493
487
473
463
461
467
466
468
470
467
467
466
464
457
448
447
478
505
501
466
449
464
468
472
473
471
482
461
476
483
476
470
472
471
473
467
463
485
479
471
469
467
464
475
481
484
510
522
504
492
469
465
478
483
484
476
472
481
493
504
508
502
487
485
504
518
507
503
523
535
537
524
513
513
520
528
524
518
515
515
505
502
516
524
524
528
538
539
531
533
532
537
549
555
543
542
539
544
539
521
523
505
484
485
509
532
522
520
480
468
458
462
466
454
444
438
445
455
455
444
467
481
442
427
427
433
438
457
455
452
444
447
453
453
453
452
449
439
425
424
423
425
449
465
454
450
447
456
453
446
446
451
454
462
467
454
442
436
432
433
433
440
449
459
454
457
458
444
445
446
449
450
440
433
423
418
431
427
440
454
452
453
467
487
483
474
468
449
435
454
485
520
486
460
468
481
513
544
549
544
551
570
594
622
645
668
664
657
652
664
684
685
675
671
665
658
650
630
617
597
533
502
455
380
350
354
300
258
242
240
233
214
205
218
248
266
275
292
317
326
329
346
363
379
396
413
411
420
432
433
427
427
465
483
469
467
473
486
486
468
473
483
482
491
464
451
443
453
472
483
493
506
519
508
486
465
451
466
479
480
479
488
503
495
481
490
501
506
501
489
472
470
497
522
522
503
502
509
501
490
480
487
512
533
521
509
522
526
510
495
478
501
528
505
478
480
499
509
514
514
508
508
513
506
505
507
521
529
518
509
504
507
513
511
512
514
516
517
518
520
518
507
512
534
543
529
511
514
530
532
516
513
520
534
546
545
529
508
527
499
496
550
578
563
535
542
545
556
549
533
536
542
538
529
531
542
548
540
527
524
520
522
547
556
565
573
575
577
561
543
530
525
535
573
595
585
558
524
516
524
535
565
591
574
573
562
563
571
581
571
552
534
507
505
543
558
550
546
548
550
552
555
551
554
561
553
559
548
527
524
544
555
540
526
524
535
554
541
536
539
545
543
541
550
539
528
527
541
531
515
515
515
515
510
505
502
496
491
500
510
506
494
479
478
478
513
527
512
498
480
483
490
463
436
446
466
459
446
454
461
457
450
448
437
436
440
446
457
453
433
423
429
439
434
435
430
423
425
432
428
432
429
412
430
452
479
458
446
445
435
406
376
397
428
438
442
439
445
455
448
439
434
430
437
452
455
438
419
420
437
436
450
459
441
427
420
414
428
451
465
456
435
446
451
450
451
450
449
436
456
470
438
432
433
439
457
470
462
462
459
460
463
474
469
437
440
484
510
495
461
444
455
461
453
457
455
435
424
438
455
467
461
451
452
454
475
477
454
460
459
465
462
464
492
504
495
465
456
454
456
463
480
477
460
464
475
490
492
473
472
475
471
460
463
470
457
454
465
466
441
444
460
466
484
484
479
482
482
468
451
450
462
455
452
451
455
475
472
474
466
469
463
480
482
481
456
463
472
476
476
479
478
468
453
452
459
462
458
464
472
473
473
476
477
477
481
483
501
506
480
467
462
452
441
444
432
465
499
500
480
476
472
466
467
452
466
476
471
461
460
473
474
469
461
473
473
468
480
486
493
483
456
445
463
485
474
442
433
447
457
464
486
486
483
480
470
468
470
476
494
500
508
496
478
453
463
481
485
485
506
510
491
467
450
460
476
481
501
514
524
531
534
528
500
493
501
519
535
538
535
519
508
509
513
509
501
487
479
478
488
518
540
543
540
527
528
548
568
567
573
573
553
552
545
530
508
501
528
549
527
507
503
504
494
489
484
488
469
464
454
451
461
480
483
447
444
458
459
453
448
442
442
452
442
439
439
453
475
479
