467
456
457
464
455
449
464
481
496
494
483
466
435
452
489
493
475
462
457
458
468
471
486
487
480
488
482
451
433
428
445
455
452
460
468
479
493
508
504
489
472
458
461
455
454
485
507
483
469
470
464
464
462
464
471
477
469
457
462
463
472
477
472
462
459
466
472
474
475
485
489
476
443
441
462
482
494
495
510
506
451
425
446
462
480
486
483
464
454
457
469
479
484
482
471
469
477
491
493
497
494
494
493
499
505
513
536
517
498
485
492
503
505
508
519
523
524
508
519
533
531
519
515
521
527
522
510
510
508
509
519
523
528
528
526
538
550
560
557
551
547
552
543
518
514
506
502
503
497
503
508
525
526
505
476
471
472
472
477
477
466
456
453
456
463
458
456
441
439
463
469
448
437
444
456
455
456
452
430
432
432
432
435
434
427
439
443
447
444
439
435
451
452
442
433
442
446
446
447
463
456
443
432
448
461
464
458
438
434
445
454
457
448
424
434
450
460
463
455
442
445
451
450
450
451
457
459
464
474
468
457
457
466
475
485
490
490
490
501
515
520
512
522
530
545
560
580
611
627
633
643
655
657
648
655
669
682
676
670
662
642
634
623
615
578
533
500
443
390
352
344
318
274
256
250
238
231
236
244
261
287
303
319
317
320
331
350
374
401
426
449
435
441
437
427
420
432
454
468
478
472
473
492
493
488
489
492
488
490
491
490
474
474
493
502
508
501
502
508
493
475
470
473
482
496
517
519
510
506
469
463
494
524
515
504
514
516
504
499
502
501
504
513
509
505
500
495
496
516
518
528
530
531
515
498
507
510
522
516
518
524
522
515
516
519
523
529
529
528
530
516
491
487
498
517
532
534
533
532
540
557
566
553
518
507
510
518
521
519
518
527
528
528
533
530
533
533
531
535
539
534
537
539
540
542
544
545
542
541
537
535
536
538
544
542
548
552
551
551
549
549
543
541
547
549
550
553
555
553
556
559
558
554
552
562
567
565
560
562
560
559
563
562
564
567
568
570
563
553
538
561
572
568
554
549
553
551
553
554
557
563
558
548
547
542
542
540
545
553
566
568
553
537
538
548
556
561
556
546
551
555
555
557
545
528
541
550
546
550
534
524
527
527
531
538
537
536
530
521
533
552
541
521
509
510
507
498
501
505
503
491
489
491
491
481
474
474
481
481
477
467
467
463
466
458
453
451
455
451
450
451
451
459
450
438
435
439
441
443
444
442
445
451
470
465
458
451
438
408
413
417
409
413
425
455
469
441
413
416
429
443
442
437
447
435
419
424
429
434
425
423
429
437
446
430
430
433
434
442
443
456
460
440
426
422
423
420
426
437
454
480
485
471
464
460
468
471
475
462
468
485
457
441
449
457
454
456
454
448
450
453
447
446
456
464
465
459
458
458
464
471
467
466
467
490
479
466
460
455
456
465
468
473
471
462
463
479
488
478
469
462
467
495
509
493
474
450
452
468
481
471
458
449
448
457
470
484
487
491
493
484
478
481
464
466
477
467
461
463
477
486
490
488
490
490
495
488
474
462
456
458
454
455
471
491
477
500
518
480
456
451
457
472
484
489
489
487
464
449
461
476
486
481
475
471
476
480
473
461
470
472
469
477
469
460
465
472
470
488
495
492
494
482
469
465
460
462
482
493
504
496
486
494
495
488
487
491
502
501
503
506
526
526
508
506
504
507
504
499
496
490
499
513
527
534
518
493
493
509
511
513
509
508
520
534
545
547
537
528
546
541
544
543
540
537
540
542
538
531
503
480
487
493
497
494
480
479
476
472
466
466
466
466
458
454
436
425
452
488
486
479
472
470
462
456
456
459
444
446
453
456
462
461
456
449
456
475
480
462
438
425
440
449
461
480
459
421
414
446
480
499
472
452
447
429
432
442
460
475
475
459
446
437
439
440
445
450
454
455
458
462
461
452
448
450
446
443
457
466
465
472
459
447
454
463
479
516
521
503
499
498
491
493
503
520
549
571
572
569
585
617
627
631
639
645
651
657
659
656
650
650
647
634
612
597
578
554
522
483
462
425
388
359
317
290
284
298
293
280
265
261
257
267
290
326
339
324
344
380
382
398
417
437
457
463
470
458
449
451
460
466
477
486
491
488
489
484
479
479
481
480
486
489
502
507
508
501
497
503
494
487
488
496
510
498
487
490
504
513
504
498
488
491
493
513
510
497
497
501
492
481
483
490
498
498
494
501
500
508
518
515
514
518
521
511
495
494
499
501
496
516
517
509
517
516
505
502
509
511
508
504
502
503
510
519
526
542
553
553
533
510
509
512
517
512
518
517
518
522
525
524
527
526
510
505
520
563
565
547
542
540
538
534
538
542
540
533
546
553
556
551
540
523
526
545
548
534
530
528
529
535
542
551
554
551
551
550
549
548
547
540
544
548
555
567
567
558
553
547
550
564
567
560
560
559
562
562
565
560
555
549
546
551
551
550
551
557
563
564
542
528
539
553
557
554
555
548
553
555
548
542
549
563
548
549
557
556
543
540
536
534
538
539
538
546
551
544
534
534
531
519
514
526
535
531
521
509
491
482
494
521
552
540
517
502
502
510
499
480
481
502
498
489
497
493
478
471
468
467
471
456
457
454
456
455
449
449
450
444
447
454
453
448
449
441
439
438
432
428
429
432
435
432
433
436
437
432
424
423
424
425
425
424
422
425
427
428
421
427
438
439
430
420
417
426
430
431
444
439
439
446
440
436
439
439
434
432
433
434
435
428
430
434
443
442
442
439
439
439
448
476
487
454
424
423
435
433
436
451
457
457
459
451
452
449
449
449
455
453
459
460
458
461
463
462
461
458
454
450
447
449
460
467
463
456
455
455
469
508
518
484
459
455
464
484
480
464
464
453
456
460
464
465
464
465
467
469
472
470
470
465
458
452
455
463
472
469
463
464
494
496
487
478
474
477
478
473
476
468
468
467
465
471
471
471
476
479
485
479
467
463
462
459
456
453
476
487
489
482
461
454
459
472
482
471
471
471
469
467
468
469
470
476
476
477
481
483
482
481
478
477
481
493
494
485
479
481
490
490
501
501
495
494
494
502
512
514
515
514
516
515
509
512
513
514
515
512
508
507
502
499
503
508
508
507
510
515
529
542
540
536
532
536
545
544
536
533
530
522
514
510
504
494
487
484
478
475
468
468
470
475
476
487
491
473
460
452
449
449
454
457
457
449
444
439
435
431
441
465
478
465
450
445
443
458
469
446
433
432
437
442
441
444
448
450
447
446
451
458
457
465
452
441
434
431
438
451
469
458
438
434
434
437
442
442
447
447
451
455
458
457
453
451
453
455
455
457
455
452
452
448
444
451
457
472
473
469
474
496
512
501
489
490
498
503
514
532
543
565
582
582
589
609
629
640
643
644
648
652
659
671
672
671
665
656
667
655
618
564
516
472
423
369
334
317
307
300
288
272
256
245
241
245
249
265
282
302
329
347
359
366
375
391
400
412
426
439
446
449
457
460
473
481
483
490
492
486
480
475
476
473
467
464
467
475
482
485
485
488
486
487
489
490
485
486
498
514
507
483
473
476
499
533
516
477
473
488
488
491
496
501
501
501
517
533
525
503
488
488
494
498
508
509
511
504
498
503
511
515
510
515
510
508
512
520
519
510
495
490
495
497
501
498
498
496
499
506
521
516
513
516
515
528
536
523
519
522
522
521
523
527
527
519
512
514
514
514
519
529
536
542
555
567
542
532
536
527
502
497
505
516
524
528
532
533
544
550
549
544
542
538
533
536
546
560
564
548
536
538
548
556
559
555
550
543
536
528
538
561
575
578
574
560
545
550
560
561
552
554
560
563
560
548
557
567
564
562
558
556
553
558
557
557
548
545
546
550
557
558
554
547
551
557
556
548
546
546
550
554
553
551
550
543
542
537
539
543
549
548
542
532
523
519
521
526
530
526
521
521
523
518
516
519
516
506
499
495
491
485
488
489
488
486
487
485
484
480
470
452
453
464
467
456
446
449
450
446
441
447
445
442
451
449
442
434
427
427
431
429
433
429
425
427
431
435
430
437
429
419
420
425
424
425
427
429
425
425
422
422
425
426
428
440
445
436
429
433
433
427
432
433
430
432
439
448
455
458
444
422
418
429
424
422
421
433
438
431
423
426
432
431
423
434
471
497
486
464
440
424
434
456
455
450
462
463
457
457
453
447
442
449
457
455
454
451
450
454
458
462
466
464
463
465
465
460
470
473
464
457
459
463
472
471
470
468
467
468
469
469
462
464
465
470
474
472
466
462
458
459
463
466
466
460
462
466
463
464
466
465
462
468
467
460
461
477
485
482
480
477
470
465
460
461
463
467
472
476
481
482
485
473
470
464
460
467
470
464
451
451
453
461
474
476
472
476
481
472
461
461
468
469
466
467
467
470
467
467
475
475
470
463
461
462
462
461
463
458
462
468
464
461
463
467
474
462
465
486
505
507
505
501
495
492
494
496
491
487
484
492
505
508
502
499
501
507
507
506
500
500
503
506
507
509
503
500
513
524
520
520
519
522
514
511
517
517
518
524
540
558
559
561
554
553
546
539
533
523
524
519
516
512
514
512
510
500
491
486
473
468
469
467
471
465
466
466
470
476
478
458
451
452
448
444
454
456
456
451
441
436
441
449
444
436
438
436
427
427
451
462
454
443
453
461
455
442
442
441
433
435
442
446
430
415
453
486
489
470
443
446
455
470
470
460
450
452
443
434
430
437
445
445
433
431
443
468
504
511
473
450
432
431
433
445
457
460
467
475
495
507
501
500
503
490
475
476
485
505
524
543
559
573
592
610
636
655
667
664
663
680
705
709
707
702
686
673
666
634
600
572
536
496
449
402
373
350
323
304
287
271
253
241
238
237
254
274
280
299
304
316
333
361
388
399
395
398
403
410
419
443
460
461
482
487
482
490
494
496
497
494
499
494
488
491
493
487
476
480
481
476
473
469
474
489
511
519
500
494
489
490
496
495
492
492
485
486
497
506
509
498
509
525
534
546
550
543
522
508
497
491
498
509
508
511
511
506
502
511
515
516
524
527
528
517
511
511
518
529
525
521
518
527
533
536
532
530
528
530
527
527
518
515
523
530
526
518
518
516
524
536
538
531
538
551
546
537
538
539
544
546
547
540
537
538
540
541
544
549
542
537
535
524
526
536
537
531
533
540
547
544
555
572
581
579
571
563
560
552
534
528
554
573
564
550
552
554
561
589
591
581
561
561
564
562
569
575
578
575
569
559
557
553
568
575
568
557
543
546
555
556
556
561
569
574
573
579
582
581
566
567
566
557
550
558
567
560
567
574
579
562
549
560
565
563
566
563
553
551
550
547
540
541
543
537
531
533
537
532
532
544
551
555
558
547
531
532
532
524
517
517
513
502
498
515
520
518
510
504
505
503
500
496
482
467
464
453
446
450
463
466
460
454
455
457
450
446
446
464
474
452
438
434
441
458
478
485
495
489
482
472
471
465
445
423
427
449
451
440
427
425
425
422
422
424
428
443
448
446
443
439
444
460
468
455
446
442
447
451
454
454
450
459
475
479
481
475
469
460
444
446
459
469
36
451
457
428
416
416
422
436
443
452
460
470
458
442
439
448
452
451
452
443
440
435
435
437
437
432
433
459
466
449
443
441
446
462
462
461
456
445
434
455
464
457
464
472
464
457
459
460
464
464
467
464
467
469
465
464
464
469
471
465
459
463
474
478
475
467
463
462
453
454
464
464
472
472
468
488
475
477
474
470
463
464
468
474
476
473
479
487
474
470
468
467
468
480
490
491
482
473
467
465
468
479
476
472
474
477
488
490
489
484
482
487
485
495
496
492
484
477
487
502
499
497
502
504
499
491
494
493
522
532
530
526
528
520
511
512
523
522
517
522
526
518
503
502
505
498
498
502
510
516
526
535
539
537
535
538
530
521
529
543
535
524
510
506
508
516
536
508
479
475
479
478
477
475
471
466
463
467
457
449
440
437
439
446
447
443
445
446
458
461
450
441
436
439
439
450
459
449
439
431
426
428
423
446
456
434
422
430
443
444
444
440
440
444
441
441
442
440
443
442
439
438
441
449
440
432
434
432
434
431
444
452
454
452
445
442
435
435
448
449
441
443
452
447
447
443
444
455
462
469
477
480
482
469
458
469
489
511
519
537
546
555
571
606
636
637
645
663
671
675
673
680
690
691
685
674
669
667
635
590
543
508
467
409
361
334
301
278
266
263
248
228
226
244
250
252
278
301
311
321
339
349
356
367
381
380
390
412
449
455
458
458
466
467
461
463
467
475
474
469
464
468
475
486
484
478
475
478
480
476
471
471
471
480
482
471
478
490
490
484
474
472
489
483
470
476
495
497
519
514
501
499
501
499
499
495
491
495
496
505
503
492
495
500
506
511
503
498
495
505
515
520
520
505
506
510
512
515
516
517
513
508
510
511
494
496
504
514
522
522
518
511
501
500
502
531
523
522
528
537
537
537
525
523
524
523
520
526
524
520
525
522
520
523
519
518
522
534
544
546
535
530
530
531
542
547
543
539
541
546
545
539
528
526
526
536
551
555
552
555
556
552
543
543
548
552
550
545
548
557
557
560
555
544
543
543
540
538
536
538
540
539
542
542
538
531
531
529
541
548
549
545
554
570
560
547
547
549
546
547
550
548
544
544
555
553
535
533
536
537
539
540
540
538
536
541
541
534
525
527
537
531
529
543
549
542
533
525
522
520
517
515
519
516
514
497
482
484
500
506
518
505
497
492
487
486
490
486
482
485
475
464
459
464
465
458
455
457
454
453
447
440
434
427
425
437
452
454
445
433
430
425
427
447
451
453
446
442
436
432
421
422
436
441
435
423
419
429
449
448
436
433
435
435
439
439
433
430
437
441
438
431
424
429
435
450
448
445
445
446
444
442
438
458
463
457
456
459
456
452
444
450
470
474
453
445
435
443
457
455
453
451
455
456
451
448
456
462
466
468
463
456
453
457
472
467
461
456
462
464
462
463
461
457
453
476
502
489
477
472
474
478
469
471
472
469
465
463
468
470
467
464
464
465
469
466
472
482
486
476
473
475
469
466
468
473
462
461
466
481
484
483
488
481
469
469
478
490
483
471
469
468
465
468
472
493
491
480
480
469
478
482
481
486
488
486
489
486
481
484
489
504
506
499
495
501
503
513
511
501
503
504
516
535
529
513
512
513
515
511
503
522
529
528
525
526
518
522
517
501
498
500
500
510
533
540
555
564
562
556
554
558
568
554
534
525
512
511
509
516
523
512
501
500
505
491
477
468
461
484
498
471
451
451
460
468
462
453
446
445
443
439
441
442
449
450
448
451
445
431
421
413
437
447
446
442
445
459
464
452
447
448
448
447
444
440
443
443
443
441
431
424
420
432
448
455
458
451
446
442
439
439
442
447
452
449
442
433
439
437
427
431
433
444
453
455
454
449
454
460
453
446
457
471
475
473
473
482
488
487
496
512
515
523
549
570
578
586
606
624
641
658
663
679
699
704
702
702
707
710
709
700
687
665
624
580
532
475
409
364
343
315
293
289
276
260
243
231
237
242
250
257
274
292
301
312
332
372
398
411
406
412
421
425
429
434
443
448
455
465
466
465
467
467
464
462
461
467
472
469
463
448
446
457
467
468
483
513
515
494
482
479
473
467
466
480
494
493
487
489
489
505
507
494
491
487
493
503
506
507
506
500
494
496
499
498
491
493
495
499
497
498
499
503
520
523
516
507
505
513
519
515
510
506
501
500
503
500
492
483
494
505
521
531
536
533
530
527
527
529
525
519
516
525
528
531
521
525
521
517
518
523
527
529
525
515
517
520
548
545
534
533
541
546
544
544
530
530
548
545
541
543
544
547
545
537
529
526
535
556
561
551
564
571
560
549
546
549
553
550
542
544
546
548
550
547
546
549
559
558
548
537
558
563
559
554
549
549
547
550
558
555
559
567
562
552
554
557
550
546
538
530
551
557
550
546
545
544
545
560
564
564
564
562
562
557
553
548
549
542
543
540
537
539
547
546
538
523
526
530
531
523
528
543
548
527
511
509
530
520
511
503
503
520
510
515
513
496
490
491
481
477
479
476
486
479
465
453
471
475
478
469
456
451
450
447
443
440
436
434
444
444
443
442
440
435
431
424
419
416
431
447
443
437
431
429
427
424
424
425
425
432
436
439
436
435
435
438
437
439
443
438
432
433
437
445
448
435
430
436
437
444
441
435
428
433
444
446
448
462
468
458
454
460
455
448
448
453
465
468
450
437
439
457
468
452
450
460
465
461
461
453
450
467
472
467
463
461
458
457
455
452
440
439
443
458
479
477
474
474
473
472
468
475
468
465
467
460
461
466
467
468
469
469
471
470
471
474
476
472
468
462
466
478
477
475
473
471
470
473
483
478
470
463
461
466
481
484
483
476
472
465
463
467
462
463
469
474
475
476
473
472
476
489
489
477
467
463
464
466
469
474
477
470
474
487
505
486
466
462
460
455
453
461
473
475
477
489
478
476
482
480
476
468
473
479
480
486
481
484
483
485
486
490
501
499
499
504
508
508
512
507
506
509
508
507
507
516
522
525
531
539
535
528
522
513
512
516
519
524
533
533
528
526
531
536
549
553
545
540
541
555
553
546
538
536
533
530
524
522
524
515
496
484
479
475
468
459
461
474
465
461
460
460
464
463
457
456
448
442
437
441
440
441
441
438
436
451
451
444
439
437
439
439
439
442
437
434
429
431
438
453
450
444
443
443
440
431
424
416
412
432
447
465
460
443
440
447
455
452
434
439
438
438
436
435
439
443
439
434
430
437
441
433
435
446
463
465
454
451
454
452
452
458
466
481
487
477
476
478
470
465
466
480
514
556
575
581
583
604
631
655
661
667
681
690
705
707
705
702
708
716
720
724
710
680
635
591
538
470
411
375
347
314
290
270
251
246
227
228
235
245
258
277
301
321
323
335
351
364
385
399
402
408
421
430
432
432
436
455
464
465
474
478
477
467
459
458
461
462
457
467
483
478
478
486
487
481
481
474
473
473
478
485
490
503
498
487
486
487
486
486
486
486
489
492
496
489
492
491
490
495
502
500
491
491
508
516
515
510
508
497
488
489
493
497
506
504
503
508
507
509
514
508
503
498
500
509
520
521
517
516
515
513
514
515
513
504
498
504
520
529
529
528
525
523
518
522
533
529
525
524
521
521
525
532
530
525
523
525
529
529
533
533
535
540
544
543
534
525
532
541
545
564
549
531
523
520
521
557
560
542
538
539
544
547
543
546
549
550
552
549
544
540
546
548
557
552
552
547
555
551
547
542
547
552
555
556
555
555
552
551
545
544
541
542
548
550
550
556
561
559
555
550
548
542
540
530
543
564
565
559
550
544
543
544
548
553
552
544
543
542
548
555
552
551
548
544
540
542
530
515
512
516
530
548
549
540
526
509
510
533
517
507
523
515
500
496
493
494
490
486
482
481
486
477
475
470
468
464
467
468
464
448
439
443
435
448
459
452
446
445
443
437
437
441
445
442
442
437
433
432
428
428
433
438
440
443
435
431
423
416
425
436
440
433
436
440
432
423
433
437
433
436
433
431
430
432
436
442
453
450
441
426
433
442
441
439
436
446
441
431
429
443
460
467
452
435
445
450
464
468
458
454
456
457
446
453
449
451
461
472
471
461
451
449
444
452
466
462
454
445
453
455
459
481
468
453
469
485
468
455
454
453
444
442
466
483
482
482
475
478
480
477
473
467
467
462
459
458
463
464
467
464
471
485
481
473
463
463
466
471
477
478
476
474
471
459
460
470
485
483
471
469
471
470
480
479
472
478
480
467
451
465
472
468
470
462
467
470
475
469
470
467
460
456
459
477
493
500
509
486
464
450
451
456
456
459
464
472
471
466
464
458
468
471
468
468
462
474
472
475
482
473
482
478
483
478
472
467
461
450
452
460
475
484
478
469
462
458
457
455
457
470
478
468
463
459
466
471
470
470
473
477
475
475
463
478
481
470
466
471
473
476
478
471
474
481
486
505
497
482
465
477
496
506
512
514
506
484
491
502
493
488
491
504
511
508
511
511
511
510
511
508
517
526
527
524
520
515
512
520
524
516
512
509
498
505
540
562
566
562
561
558
546
553
554
554
542
548
558
544
513
495
489
480
481
486
490
488
491
487
488
488
485
468
451
440
450
455
469
483
469
457
456
447
451
457
443
430
441
460
466
452
440
447
449
459
461
457
461
458
445
442
442
435
448
451
446
443
443
449
455
453
454
438
437
439
445
450
444
453
450
447
438
438
443
448
443
441
448
451
446
441
443
448
452
450
452
456
457
459
444
441
452
453
458
460
461
452
454
475
503
496
481
477
483
492
523
543
563
584
591
586
605
630
650
666
680
676
690
695
706
711
708
706
716
705
698
685
651
597
545
495
438
396
362
322
302
292
273
265
240
226
236
256
270
280
294
309
317
332
348
367
378
387
398
401
403
407
424
438
461
482
477
471
472
482
487
488
483
476
482
475
474
471
469
471
483
487
483
486
490
492
492
494
496
494
490
494
495
486
475
478
485
488
495
509
512
503
496
494
502
501
506
508
486
479
484
490
508
489
481
519
545
517
498
492
486
510
522
516
514
514
508
502
503
501
514
517
515
518
534
522
517
516
525
524
519
516
514
523
523
517
506
509
520
530
527
523
527
520
525
520
515
518
525
524
518
525
527
519
521
533
538
538
539
533
529
528
549
547
546
530
521
529
536
541
540
534
538
540
543
540
539
541
538
543
546
545
544
552
545
527
536
538
533
541
558
569
563
554
548
546
544
542
546
558
550
545
553
545
561
554
542
534
529
541
538
559
579
573
559
547
545
547
548
551
566
560
543
540
546
544
550
552
549
536
527
532
539
542
534
540
540
547
546
544
548
550
548
542
540
541
546
535
533
532
536
532
532
522
522
528
520
525
522
521
522
523
532
521
504
497
490
482
481
484
489
491
508
503
489
475
470
466
463
471
481
488
478
467
460
451
448
447
442
448
445
439
440
439
429
415
406
407
446
460
468
476
446
436
448
438
432
424
423
438
442
440
436
436
435
441
446
445
437
431
441
455
454
441
435
425
427
438
444
444
439
441
445
450
454
447
453
456
455
444
447
453
442
438
447
462
456
439
444
448
447
449
458
472
471
451
444
443
453
451
450
451
451
456
464
463
460
460
464
468
458
458
460
460
459
461
467
475
475
470
471
463
459
465
472
479
480
473
478
485
469
459
459
452
478
469
459
460
465
466
484
497
499
496
485
480
481
481
487
481
478
477
462
461
468
482
488
481
477
480
490
481
477
474
480
472
474
482
482
492
481
466
450
454
463
470
485
491
485
478
479
468
475
475
468
462
468
479
477
471
471
462
464
475
471
475
478
481
481
474
474
479
478
476
471
471
468
468
468
481
475
472
473
470
466
467
475
481
482
474
484
479
480
477
472
463
468
470
468
465
467
459
468
485
471
462
480
486
487
494
498
496
482
473
491
518
526
515
504
499
503
502
505
508
508
507
502
501
510
519
526
517
512
507
507
519
517
500
492
498
500
507
523
540
554
546
539
546
545
542
545
538
538
536
528
520
514
511
509
498
494
491
473
477
479
477
483
483
476
469
469
469
463
456
449
446
438
434
440
433
434
443
448
448
443
438
439
444
441
442
454
459
458
459
447
431
416
415
405
408
452
470
471
467
462
456
452
448
448
444
447
447
446
449
454
449
448
440
436
442
451
470
458
443
435
439
443
453
463
459
455
447
446
440
433
439
457
465
460
463
457
449
452
475
489
484
480
485
491
484
486
493
508
524
548
561
579
590
601
614
620
622
637
664
668
671
676
691
696
698
684
678
679
662
619
572
535
506
449
394
366
326
300
289
288
284
260
241
238
242
261
285
291
303
318
335
347
362
373
394
420
440
445
434
432
442
449
458
469
480
479
479
489
490
485
476
466
466
465
471
481
478
482
490
484
482
483
491
489
488
489
487
486
485
488
492
495
498
496
496
492
488
497
499
504
499
491
493
495
490
483
486
504
524
516
498
494
499
503
509
510
508
519
503
497
495
507
518
526
524
519
508
507
505
508
510
508
510
502
494
497
505
508
507
510
508
516
538
540
533
523
525
526
533
529
516
509
496
520
531
537
549
537
523
514
523
537
535
533
538
541
547
544
536
534
533
540
538
545
549
552
540
534
526
525
530
544
546
538
534
534
547
555
552
552
545
541
542
547
546
547
555
555
550
554
555
556
562
563
544
525
534
554
569
569
564
560
555
555
553
551
549
549
566
572
558
542
545
547
554
557
564
565
559
554
551
546
549
560
556
552
539
529
524
533
536
556
563
558
554
553
549
542
535
533
531
539
541
544
538
534
534
536
529
526
519
520
520
518
519
515
520
518
513
501
506
499
494
484
483
488
489
496
485
475
474
463
466
481
475
459
454
447
452
467
459
452
451
448
457
455
450
442
439
430
424
430
440
450
451
438
420
408
408
425
445
432
426
428
440
440
442
433
429
433
437
442
433
427
431
431
441
438
430
431
430
425
427
428
424
434
436
431
443
439
433
431
432
433
453
448
444
453
465
461
450
448
448
451
457
450
445
444
449
453
447
449
454
457
457
464
468
468
451
446
462
462
458
461
462
464
463
462
458
458
462
466
470
470
467
464
458
462
464
473
475
472
471
465
457
462
466
469
466
468
477
491
480
459
463
471
472
468
481
490
481
478
472
468
468
464
452
453
464
474
477
475
483
483
477
472
472
475
484
490
485
476
473
480
477
473
468
470
466
459
463
464
479
481
494
501
480
473
469
471
470
474
476
479
482
479
477
478
474
470
473
470
474
477
476
476
476
477
472
465
463
471
468
462
457
473
486
496
479
471
467
468
474
473
475
472
477
484
488
482
463
459
463
464
474
482
477
473
476
473
468
468
475
473
476
484
473
477
486
506
507
499
492
483
478
486
487
499
512
509
502
513
515
510
508
506
509
504
499
502
517
523
519
522
523
515
510
496
488
486
505
538
530
530
536
540
547
547
546
541
540
552
553
550
542
529
514
512
517
516
507
509
510
505
489
475
486
497
487
466
454
461
461
454
452
451
451
449
447
440
437
436
435
451
465
455
453
453
449
445
445
446
447
450
463
475
459
455
451
438
435
433
436
447
449
451
458
457
456
453
452
450
445
442
446
452
441
434
435
437
448
453
451
447
452
448
448
448
447
445
444
440
439
442
447
462
447
441
440
448
465
473
472
460
458
456
460
486
495
485
478
470
481
515
533
545
552
563
578
606
626
639
652
665
675
681
696
696
697
702
710
706
705
706
683
658
615
572
533
480
416
374
360
343
314
282
265
244
228
227
237
249
259
275
295
311
321
339
354
372
382
388
399
412
430
431
449
451
449
448
441
435
446
471
484
489
487
498
488
478
476
479
485
486
485
479
480
485
494
488
488
486
486
489
489
489
488
486
485
485
485
485
486
491
510
530
512
494
490
497
503
502
501
504
503
497
507
510
502
498
497
500
501
493
490
487
489
526
535
527
517
511
512
519
513
517
514
515
518
512
505
509
509
512
532
525
521
521
522
511
514
517
521
517
513
516
517
525
530
523
517
515
516
518
520
530
533
545
557
539
524
519
516
523
542
537
542
541
547
556
545
536
540
545
548
549
553
547
542
543
551
560
563
552
542
540
540
542
539
550
550
543
543
557
566
551
555
562
567
559
554
549
552
557
551
549
545
545
534
542
544
560
572
568
565
561
563
559
559
560
560
556
550
543
547
562
562
561
557
554
552
555
561
557
557
554
551
552
550
548
553
543
551
554
543
537
536
534
532
542
542
543
541
537
540
543
549
528
522
516
508
499
496
498
522
531
514
501
498
512
520
508
498
495
479
477
478
472
472
474
471
462
461
464
463
461
454
450
451
450
449
439
432
425
435
447
436
437
441
436
434
435
434
437
437
432
425
417
407
403
433
433
426
434
444
444
435
433
430
427
426
426
432
428
432
442
441
439
432
426
425
427
422
429
443
430
434
439
446
453
454
448
442
443
447
453
450
443
433
432
439
446
462
471
465
453
441
447
443
443
454
449
456
443
470
478
459
449
452
456
456
453
457
463
466
459
459
460
461
461
459
458
458
459
460
455
455
454
453
465
478
472
474
471
471
468
473
483
477
466
466
469
468
470
472
472
469
466
457
456
455
479
482
476
474
471
466
466
470
478
486
475
467
463
463
466
467
465
468
474
466
455
449
452
479
509
514
485
471
467
468
467
461
466
481
483
476
465
468
475
478
476
474
470
467
470
476
478
476
462
467
481
478
461
454
470
477
473
459
456
467
480
468
471
477
478
478
481
484
478
475
471
467
462
464
469
484
481
469
474
472
471
467
465
472
475
476
481
475
471
470
469
473
475
472
467
461
456
454
464
478
480
480
481
484
484
484
474
470
476
474
467
462
459
468
471
467
464
466
474
473
472
474
483
496
496
490
493
500
499
494
495
483
479
479
489
505
506
501
510
514
516
512
507
509
507
505
518
528
526
522
516
513
515
520
523
520
515
516
519
512
495
499
516
544
547
551
554
552
557
560
560
560
555
557
549
540
533
522
534
520
506
500
503
508
509
496
482
470
465
467
462
453
474
490
482
467
459
457
454
450
450
453
449
447
444
435
430
438
458
455
465
469
463
457
450
444
437
437
438
444
450
457
460
464
457
450
449
450
454
458
456
449
453
451
454
460
453
444
445
446
447
446
443
444
450
456
460
451
442
440
436
435
431
445
447
437
429
455
462
456
453
457
465
476
477
467
462
466
478
485
492
503
485
482
492
522
546
562
571
582
601
616
639
662
687
690
695
707
709
715
714
710
717
710
698
682
660
626
580
530
474
429
389
354
317
287
275
263
252
229
223
238
251
258
275
293
308
324
340
353
362
373
392
411
424
429
432
437
441
444
450
465
470
474
480
479
479
479
473
466
464
467
485
483
478
468
477
476
475
472
476
484
500
499
477
467
462
476
503
518
514
495
484
488
493
500
504
503
501
500
497
498
498
497
496
499
500
498
506
516
515
509
498
500
500
494
523
525
518
512
509
502
501
510
519
522
526
519
513
517
518
528
534
526
522
518
519
520
529
524
518
520
518
517
519
526
528
530
529
528
532
531
527
531
537
538
531
528
530
532
537
533
526
525
531
544
545
542
538
541
541
542
544
538
537
534
535
558
568
555
540
537
537
538
540
541
533
542
544
541
551
551
543
545
561
558
572
570
562
570
568
558
548
549
548
551
547
543
564
584
566
555
555
553
554
558
555
554
552
551
549
550
559
554
552
560
553
547
547
539
550
562
568
566
562
559
555
553
559
569
555
537
538
536
538
540
535
534
538
544
539
536
536
552
559
551
541
533
528
521
520
517
512
510
512
514
512
508
507
504
502
499
491
503
502
478
468
470
474
495
496
466
460
461
465
465
464
463
457
446
438
432
432
443
452
446
443
447
440
431
420
415
417
425
436
442
442
435
430
429
432
425
424
432
440
432
425
423
425
420
416
421
413
413
427
461
447
428
421
426
425
424
430
429
432
446
465
458
440
434
428
428
442
445
437
437
434
430
432
447
448
445
443
440
441
440
446
460
457
443
448
447
443
455
462
456
442
438
433
435
457
467
450
454
464
459
461
468
470
463
460
455
456
456
450
453
460
464
469
473
476
476
471
463
463
461
461
460
464
469
468
471
467
465
471
465
464
463
466
455
462
472
468
480
493
471
462
461
474
498
496
479
464
460
467
469
461
452
451
461
471
467
471
477
472
460
459
467
468
462
468
477
477
472
467
482
484
465
451
451
456
459
461
476
477
480
478
471
471
468
462
463
473
469
449
442
462
463
464
466
465
467
465
471
483
486
485
479
468
454
461
464
464
468
465
464
460
457
454
466
487
486
481
480
490
481
480
469
466
462
462
470
472
468
467
473
492
491
474
472
465
462
463
466
471
468
458
450
456
469
473
465
466
460
462
470
479
476
471
476
479
473
472
469
478
473
479
485
487
484
483
475
485
492
488
480
479
494
499
483
484
479
486
491
502
484
491
521
515
519
515
508
508
518
520
510
499
503
512
523
523
503
511
534
538
524
519
527
534
535
545
543
544
548
549
544
543
545
543
544
546
531
524
525
519
516
509
507
509
509
507
490
480
470
475
474
468
466
476
480
475
460
459
460
459
453
449
454
466
448
438
439
447
447
443
439
434
433
443
455
452
445
434
428
420
429
448
459
485
478
457
454
450
451
453
449
447
450
448
446
444
435
425
443
453
453
463
451
445
446
445
453
460
455
440
426
434
448
446
446
441
436
447
448
447
462
473
465
452
438
444
465
493
496
491
483
484
480
487
504
525
538
557
580
599
610
617
627
653
672
692
695
689
695
705
716
715
707
698
706
700
677
644
606
564
526
456
404
374
330
301
267
253
242
232
222
240
238
273
296
299
303
303
313
334
368
379
391
401
400
413
420
416
422
439
475
482
484
478
486
490
483
490
484
483
482
482
490
483
474
471
473
474
474
479
480
491
491
490
489
491
488
497
490
493
502
501
488
492
498
491
489
496
499
501
502
498
494
499
502
501
509
508
514
503
498
497
516
532
523
511
508
506
509
514
516
512
508
506
509
495
506
513
514
520
511
506
508
506
520
517
507
507
519
535
540
525
509
498
495
501
502
522
531
527
532
531
535
541
543
522
520
529
532
532
538
536
538
534
528
527
526
523
535
550
546
530
540
547
540
526
523
527
535
545
554
554
549
541
541
552
552
551
547
555
562
556
541
538
547
552
559
558
549
546
546
548
550
542
537
539
548
560
573
567
552
539
538
547
569
551
541
537
538
550
561
577
561
549
547
547
549
549
548
547
544
540
560
568
559
547
534
525
529
541
551
566
563
552
558
558
554
546
542
549
541
528
530
536
537
534
533
537
539
527
518
523
516
515
517
514
503
507
508
510
514
508
504
497
493
489
495
486
480
479
475
478
472
466
465
467
464
455
447
443
445
441
451
458
470
467
447
436
435
445
446
439
431
429
432
444
441
414
417
440
453
435
433
439
450
448
443
438
430
424
420
420
417
408
415
445
448
448
454
457
450
447
448
446
435
434
429
425
434
436
433
439
439
438
447
452
455
452
443
433
451
455
459
443
430
434
439
446
462
464
454
460
475
466
451
449
451
449
459
460
456
451
457
467
475
474
463
460
458
459
458
458
465
465
467
467
466
468
462
470
485
495
482
469
465
470
476
477
473
470
462
453
447
447
467
487
483
479
476
486
481
457
458
461
475
483
473
465
465
470
463
470
469
483
490
480
464
462
484
501
490
479
481
488
480
485
490
483
468
461
459
472
472
467
464
472
475
467
468
466
473
484
479
468
474
481
483
478
473
472
472
478
478
470
465
463
464
473
496
483
470
468
475
494
491
479
472
467
471
474
477
484
482
486
487
483
485
487
488
490
482
473
477
502
528
518
506
508
514
490
486
494
509
522
523
521
516
521
520
515
520
516
513
511
512
502
497
490
495
500
522
537
536
544
555
567
560
554
547
532
537
543
544
533
526
518
508
502
506
497
482
486
487
493
491
483
475
470
460
467
463
451
448
463
460
470
475
450
432
431
445
456
453
444
451
460
460
448
451
456
452
451
449
455
456
452
451
452
449
441
437
441
446
446
443
447
460
462
459
447
441
434
439
459
471
467
462
468
454
445
438
443
462
458
455
452
453
454
459
452
454
453
456
456
461
461
457
447
453
464
466
462
474
494
499
499
504
511
508
508
515
530
561
577
572
578
592
605
642
646
647
657
673
684
695
681
671
674
661
667
655
625
597
559
521
491
440
390
360
339
316
301
288
276
269
251
237
243
256
275
296
309
320
331
341
356
364
374
389
397
439
465
481
482
470
462
461
480
486
480
484
482
478
484
493
482
487
498
499
489
482
480
472
474
495
504
497
488
486
486
494
510
504
494
483
483
496
521
521
500
493
493
488
494
497
495
495
494
497
510
518
507
500
490
484
505
512
511
505
502
506
507
514
520
518
510
507
515
512
511
512
505
517
524
520
515
511
509
517
519
513
515
514
517
517
518
516
509
511
513
516
532
531
529
543
551
536
532
528
522
525
530
527
530
534
533
536
539
537
541
542
540
539
535
537
536
526
528
525
525
546
544
543
549
551
548
553
543
533
535
549
561
563
561
560
556
542
532
554
565
552
548
552
556
555
553
562
564
564
567
571
564
557
561
562
563
563
557
549
544
535
533
545
552
557
562
556
554
556
558
549
545
549
553
564
569
561
553
548
547
544
540
533
523
525
562
562
556
544
540
540
545
546
555
559
552
542
532
529
531
531
532
530
525
520
520
518
514
506
505
503
498
499
502
501
492
488
489
486
496
492
470
464
468
460
454
450
466
487
475
462
459
453
450
454
452
447
431
430
437
438
438
428
418
423
429
440
439
422
420
419
415
418
423
424
423
425
422
420
421
423
434
436
435
432
428
425
427
432
437
434
438
436
426
417
429
436
436
435
442
442
441
433
419
414
405
425
449
454
458
457
448
449
444
442
447
447
448
443
434
438
441
438
442
449
465
462
454
457
461
465
461
456
459
466
459
456
447
441
447
469
489
465
454
448
445
450
461
469
469
466
462
464
466
458
453
448
453
457
472
476
459
454
452
467
481
475
472
467
470
472
470
481
494
484
468
463
461
466
477
474
468
474
477
469
470
475
469
469
470
469
468
467
470
474
477
476
474
471
457
448
448
445
462
466
462
476
491
489
482
484
478
481
482
478
476
472
465
460
470
476
473
473
478
468
482
488
490
481
465
475
483
491
496
490
486
488
483
492
503
504
498
497
494
495
493
484
483
490
504
520
518
518
523
527
523
517
510
514
514
514
516
512
508
495
488
490
503
523
532
526
527
531
545
548
549
547
545
542
538
532
527
522
513
509
504
491
485
484
485
485
490
493
488
479
473
462
452
466
464
454
447
461
464
454
450
445
442
442
458
460
447
450
456
456
454
449
443
436
440
446
445
439
441
447
458
465
448
439
438
446
448
441
434
429
446
460
439
448
458
454
445
439
431
437
450
445
439
438
435
437
441
454
463
465
455
450
448
446
450
453
452
451
445
445
451
452
459
467
484
493
484
477
481
486
486
482
487
498
518
535
549
564
571
591
612
635
653
664
672
678
682
690
695
695
692
685
677
673
674
656
625
581
539
482
412
363
337
311
319
302
274
244
229
233
250
260
268
275
278
288
307
320
337
357
374
391
401
405
419
435
452
473
469
456
454
461
461
472
480
470
457
463
482
473
477
480
481
482
476
470
472
465
476
483
483
480
477
479
479
476
482
501
501
487
479
476
485
501
501
501
498
498
502
505
498
488
480
493
514
510
499
496
491
486
491
501
511
523
515
509
499
499
510
514
511
506
500
503
506
506
505
504
510
518
518
521
522
519
515
526
526
512
521
531
542
532
514
499
498
499
500
523
534
531
531
530
525
539
540
536
530
521
530
531
528
527
527
523
526
524
534
553
540
536
540
543
540
537
535
537
537
533
544
549
541
540
543
550
557
552
547
547
545
548
551
551
541
539
539
562
563
556
558
560
561
566
566
563
563
569
560
555
547
545
551
567
573
563
554
550
552
559
563
559
563
568
564
552
545
538
533
537
538
545
547
548
553
565
579
571
548
543
547
553
550
544
540
543
544
543
541
536
527
526
517
511
530
530
532
543
546
543
540
532
521
514
516
507
498
491
480
487
485
484
498
494
485
482
485
480
484
480
483
480
472
465
462
449
453
452
454
455
449
443
439
439
439
443
432
422
410
401
417
436
438
440
445
442
438
433
428
440
443
426
419
416
420
430
437
439
430
425
427
430
427
423
422
422
422
426
431
438
439
429
425
429
434
438
443
442
443
441
445
447
445
441
439
445
448
443
450
461
461
449
444
441
439
444
442
449
454
452
452
451
448
443
444
441
446
450
450
447
445
467
475
469
466
468
462
456
452
452
454
455
458
472
470
444
442
448
449
453
459
463
463
470
477
473
464
452
444
439
459
493
490
471
467
466
469
460
457
475
479
466
461
467
477
475
479
482
473
465
465
475
473
471
470
470
473
477
475
476
471
465
466
469
469
469
468
473
477
470
470
469
464
461
469
480
485
484
469
464
465
466
467
466
467
468
465
465
464
469
467
448
475
487
486
482
468
469
472
478
476
476
479
478
477
474
478
497
494
489
493
491
491
491
488
496
504
504
509
516
513
507
509
508
508
506
505
508
510
513
530
530
522
510
497
497
518
524
517
514
513
518
524
542
557
562
567
557
548
544
542
538
533
529
524
524
525
520
511
498
481
474
479
495
506
499
480
475
472
463
463
475
480
476
454
443
439
441
440
439
439
441
445
447
443
439
444
453
453
444
436
440
443
441
436
426
419
424
437
452
448
446
451
452
452
445
447
444
445
444
460
451
442
444
439
432
430
432
446
452
452
450
443
444
440
437
439
445
450
443
438
441
460
458
464
463
455
454
446
446
442
450
459
466
470
488
499
488
482
478
484
497
521
539
549
564
578
596
618
635
655
665
670
669
674
686
695
693
694
697
708
705
697
680
643
588
542
494
425
379
353
324
295
281
267
238
209
197
199
236
274
287
287
301
317
330
342
348
361
376
390
405
424
434
440
446
446
448
453
457
468
485
486
464
456
448
457
471
489
495
485
474
468
477
480
482
480
480
484
479
483
481
473
460
455
472
512
509
494
490
494
489
481
498
496
495
515
512
500
483
481
483
492
498
502
501
503
503
504
504
503
500
500
504
513
512
512
515
512
507
510
515
508
504
501
503
512
514
514
519
520
517
517
522
518
516
520
524
525
519
514
516
512
505
522
527
528
531
526
524
515
520
529
528
528
531
526
524
527
530
548
544
531
528
526
528
545
564
547
538
538
543
548
547
544
546
554
547
542
536
545
560
558
545
543
536
526
530
548
562
552
547
552
548
550
554
556
562
560
557
558
557
556
553
551
546
543
543
552
562
545
545
561
574
573
565
558
555
554
553
554
552
552
552
552
552
554
556
558
556
537
527
521
517
550
563
565
565
558
548
548
550
546
546
538
534
535
536
530
532
534
527
528
530
528
520
512
522
540
521
522
526
521
515
504
497
494
495
492
505
504
485
472
472
470
474
483
484
474
466
463
464
458
454
451
449
430
423
425
452
450
447
442
434
435
443
431
411
412
419
428
433
432
423
412
414
422
422
424
429
433
438
423
430
444
436
428
428
428
420
414
402
401
446
456
448
447
439
435
432
434
437
427
428
436
442
437
434
434
431
436
431
433
442
452
455
449
455
462
458
449
443
440
442
447
462
461
461
445
440
447
456
464
456
447
455
465
464
447
453
461
460
453
462
454
454
462
460
464
465
465
459
460
467
471
465
458
452
464
466
464
460
445
448
448
464
479
479
483
482
474
470
473
473
477
474
467
462
456
461
457
462
475
484
488
486
476
466
460
470
472
462
459
460
460
450
449
456
460
458
467
479
475
477
482
479
476
467
466
458
458
461
462
464
466
474
488
501
497
482
471
468
463
465
485
486
474
473
478
470
466
479
482
484
484
490
499
502
482
480
482
473
482
489
489
499
501
498
508
509
509
508
507
502
495
497
491
510
533
538
537
532
527
518
516
517
499
499
514
518
521
531
535
530
530
534
538
558
565
560
547
530
525
521
527
524
517
506
500
494
484
479
483
478
464
455
442
444
461
475
462
458
460
460
473
485
469
444
436
433
435
444
453
452
451
441
439
436
433
433
434
435
433
429
426
436
441
447
452
454
451
451
453
450
443
435
438
438
439
435
426
420
429
430
445
445
440
434
438
439
441
439
432
426
424
431
459
449
439
449
449
441
425
442
448
442
452
468
479
469
451
459
458
463
476
491
484
474
465
469
487
501
514
525
541
584
592
601
627
641
649
654
674
689
690
685
692
696
702
687
688
688
687
653
610
572
525
471
407
370
351
314
288
273
265
239
219
212
218
231
252
270
283
294
315
333
353
365
383
387
399
409
428
440
447
461
478
472
461
466
465
465
470
470
477
489
474
479
478
481
478
478
483
478
481
483
489
491
488
482
485
500
483
475
479
507
512
501
491
493
482
472
476
488
501
498
495
481
478
478
504
524
514
504
505
503
506
493
484
508
510
513
521
516
513
517
514
511
507
507
510
519
514
514
518
517
519
518
515
518
520
524
523
516
515
523
524
519
521
519
519
522
522
514
525
526
527
532
532
531
525
520
515
517
532
537
527
524
528
541
528
521
528
533
530
520
515
515
531
555
559
536
529
527
554
556
540
550
543
540
552
549
542
546
541
552
554
538
538
561
565
569
563
553
545
539
543
547
538
532
531
537
561
568
559
544
538
546
553
558
552
555
554
547
552
558
553
553
547
552
554
546
541
545
546
544
539
542
556
552
542
536
531
550
565
564
562
554
533
525
535
528
528
543
548
542
535
537
543
532
522
528
528
525
521
519
521
527
528
525
517
514
507
503
504
494
487
495
512
532
512
486
479
486
491
483
474
475
465
452
452
450
472
474
469
449
442
444
457
457
435
438
444
430
432
441
441
442
438
426
431
432
421
431
426
434
442
449
446
432
431
438
442
437
426
421
429
420
413
409
427
434
432
433
441
446
439
446
447
447
438
441
438
446
451
443
442
443
441
444
450
450
446
441
441
438
441
444
444
444
436
440
452
469
478
468
462
459
462
462
458
459
457
455
455
451
452
450
464
467
465
473
474
473
466
458
458
452
454
457
472
484
459
458
470
471
478
480
471
472
469
470
468
466
467
479
473
467
467
461
464
460
461
475
478
477
478
475
476
475
476
474
477
477
471
461
463
459
476
492
490
474
469
465
464
473
495
516
491
468
459
468
470
466
465
468
469
470
466
461
459
461
472
482
482
482
486
481
486
488
485
488
489
493
488
468
482
488
497
507
510
512
512
508
503
505
504
506
509
518
518
515
518
515
514
511
511
508
505
507
511
508
502
500
500
505
514
528
542
545
548
552
545
543
545
542
535
530
530
522
515
506
504
500
495
490
484
481
484
497
492
486
476
465
460
451
448
451
454
462
466
452
440
445
447
449
448
453
451
450
444
439
435
457
454
444
447
452
457
453
451
454
450
432
432
444
451
447
445
448
444
453
447
440
440
441
430
419
427
435
460
461
462
465
472
456
447
449
455
450
448
449
445
447
445
443
440
448
455
451
450
445
446
451
463
465
469
472
475
476
476
494
510
507
504
504
517
533
549
556
582
595
615
640
649
645
646
660
668
671
663
666
669
672
675
666
649
634
604
562
528
479
420
377
355
329
303
282
277
278
263
244
249
261
267
286
296
307
313
329
349
359
370
392
412
421
427
426
433
449
463
468
454
447
455
456
471
484
491
491
492
483
479
475
474
481
477
482
493
498
489
486
486
479
480
478
482
500
505
495
493
495
495
493
497
495
490
499
505
497
494
501
502
507
505
507
509
505
491
475
475
479
493
505
520
517
515
532
533
519
506
505
504
507
497
495
499
502
510
510
514
509
511
513
510
509
511
511
510
516
520
526
519
507
509
524
521
517
512
512
517
521
522
522
526
527
530
526
523
524
527
523
529
528
516
508
510
521
537
542
545
538
534
526
520
525
539
537
541
541
530
531
530
540
546
538
541
552
557
548
549
545
551
561
546
535
546
546
543
543
543
549
550
551
552
547
540
543
544
555
569
563
553
547
543
542
550
555
549
549
550
557
550
540
534
528
525
517
543
560
551
541
542
549
557
550
545
543
540
547
540
541
542
543
542
541
535
536
529
529
538
538
533
523
517
516
517
536
540
530
519
504
505
512
514
505
490
477
479
491
509
504
486
479
473
471
468
472
484
488
477
470
464
468
469
464
463
457
457
455
455
447
436
434
437
440
441
443
440
448
436
426
423
428
442
439
437
430
423
423
421
431
431
433
435
443
444
437
432
418
409
421
422
439
444
440
429
425
433
438
438
434
430
417
419
437
443
437
430
428
419
438
452
448
453
448
444
443
443
445
445
445
446
444
443
440
437
444
457
461
457
453
450
450
454
446
441
461
470
460
456
450
444
444
447
458
471
480
473
470
467
461
458
459
462
470
470
469
462
461
469
466
458
450
455
477
485
474
479
476
472
475
471
468
468
469
465
464
465
469
474
480
474
449
448
450
467
474
477
475
475
486
488
479
472
465
465
465
469
474
475
465
465
471
476
477
476
477
479
475
475
486
486
477
470
469
476
481
486
484
481
476
467
466
492
499
497
504
503
496
486
490
495
504
529
526
510
503
507
510
511
518
503
496
499
505
510
513
518
520
513
516
506
502
518
511
509
517
528
530
536
546
554
555
542
523
517
515
520
544
547
520
495
492
496
500
496
489
486
481
471
454
455
452
463
466
473
463
466
461
453
457
452
447
452
454
450
445
437
434
446
447
440
435
432
434
449
451
451
450
446
448
445
440
449
453
439
428
439
444
447
450
451
444
443
439
428
429
452
458
457
449
438
429
437
442
438
447
455
451
452
445
448
444
446
448
450
456
457
449
443
444
451
453
455
460
459
457
460
469
483
494
510
497
481
479
492
502
520
561
583
598
624
649
658
653
655
667
682
686
694
699
700
704
703
696
692
670
629
579
544
490
441
393
356
327
297
286
285
259
243
229
239
249
267
280
287
298
313
330
341
352
366
385
397
395
406
413
442
460
456
455
463
466
468
471
473
479
481
479
470
464
456
476
482
477
482
496
495
474
468
467
472
480
491
496
501
498
491
492
491
494
494
490
500
494
489
485
486
484
483
484
492
502
503
493
488
498
505
503
503
507
505
506
510
508
501
494
494
498
495
498
512
517
513
507
504
513
519
519
514
506
514
517
512
512
510
506
512
514
523
517
515
525
527
524
524
522
520
523
526
527
528
523
523
529
528
520
518
527
532
534
537
530
535
542
538
523
511
512
523
551
555
544
538
536
528
517
518
541
549
543
543
544
545
548
547
544
544
541
554
562
558
558
556
559
554
546
543
547
549
551
552
558
561
554
545
544
549
564
561
550
542
534
535
549
563
563
550
544
541
546
546
536
534
532
542
555
555
555
552
548
546
547
547
548
551
551
543
540
542
544
541
538
537
537
548
554
557
543
527
534
536
540
533
532
522
513
513
524
526
523
514
509
503
496
494
497
502
506
510
508
504
496
492
502
494
489
486
480
467
462
458
449
462
468
470
466
462
455
450
450
450
454
443
434
430
428
425
429
438
440
443
446
434
424
436
448
440
440
439
433
423
415
415
420
453
452
433
431
431
434
432
429
426
426
438
439
438
437
433
433
435
436
435
439
435
438
439
443
444
447
439
433
438
448
453
452
450
451
455
451
449
449
444
445
443
442
448
445
452
455
448
444
443
455
464
462
463
465
459
460
472
470
463
462
465
471
465
453
448
446
441
453
467
466
461
459
467
479
482
478
473
467
463
466
456
443
466
469
472
474
474
466
459
463
472
485
483
475
476
475
473
471
468
463
463
472
486
474
462
462
458
473
494
483
473
474
480
479
477
471
467
466
474
480
483
481
479
476
470
460
455
456
468
484
477
466
464
468
469
470
475
479
478
477
470
458
456
469
489
494
494
486
481
482
489
493
490
488
486
502
507
506
503
496
497
499
500
505
520
520
509
509
518
517
514
515
523
524
518
518
529
530
516
495
482
492
499
508
518
521
543
552
558
556
556
562
560
553
548
542
540
529
513
513
510
497
480
478
488
491
500
495
490
486
476
468
469
466
460
458
457
458
455
450
445
442
445
447
446
448
441
440
438
438
447
449
442
444
445
442
443
444
445
443
444
440
437
433
430
436
438
435
437
442
444
448
446
437
436
433
445
446
450
448
446
445
446
444
436
441
440
443
446
453
448
447
447
451
448
434
436
451
462
455
442
444
451
457
456
462
466
481
482
472
466
468
481
498
511
527
548
569
581
596
611
628
648
660
659
651
657
667
680
736
735
715
707
705
698
673
642
599
553
506
440
388
353
331
307
291
276
254
237
227
231
241
254
271
281
292
313
328
340
357
373
380
393
404
415
428
434
441
442
446
452
467
495
504
483
462
464
474
475
471
470
466
470
477
475
472
471
471
490
493
487
485
480
477
476
487
498
485
480
480
481
478
478
481
492
497
500
495
485
483
498
501
503
498
489
489
498
502
506
517
515
509
500
497
492
497
495
511
519
509
506
511
526
531
512
506
501
499
502
520
518
508
507
513
512
511
510
513
516
518
517
518
523
529
521
526
531
527
518
514
525
529
529
530
525
528
520
521
519
516
528
541
541
532
535
535
529
533
530
532
541
541
538
537
537
539
540
545
547
543
543
542
540
538
538
539
548
547
555
558
559
547
536
541
558
561
546
539
542
544
544
546
546
552
552
553
558
565
553
545
546
549
553
552
539
525
518
525
563
570
564
551
544
540
533
543
555
555
557
551
536
539
551
551
547
543
536
534
540
552
554
540
529
532
527
531
556
571
565
548
535
525
521
521
525
539
541
529
525
521
520
520
515
514
513
508
512
517
513
511
505
502
500
498
494
483
476
475
478
484
477
473
466
463
472
471
467
464
458
448
449
452
441
439
434
429
439
447
449
442
438
440
445
450
456
447
428
416
411
437
439
434
431
422
409
405
409
442
456
446
439
428
422
424
435
446
445
449
452
450
443
445
450
445
439
440
443
444
447
451
443
445
452
452
447
449
452
453
452
449
451
448
452
450
450
451
452
454
455
460
460
459
453
453
455
453
455
483
487
472
461
463
463
453
455
457
454
457
471
473
467
459
464
470
472
471
473
465
462
463
462
459
464
475
468
465
476
472
467
464
467
467
467
467
465
468
468
457
474
489
483
465
455
454
457
460
458
473
473
483
479
470
474
475
475
476
477
475
472
470
472
472
466
456
450
460
478
487
481
480
479
481
478
472
466
464
470
475
476
475
466
462
464
461
464
469
470
472
485
487
474
474
475
480
478
480
487
486
489
489
483
485
492
498
501
506
501
502
512
521
519
515
506
505
503
503
518
540
544
529
515
509
497
495
508
522
512
513
513
517
514
527
535
541
553
554
549
538
531
544
544
534
531
525
525
530
518
505
494
489
484
483
484
484
479
470
464
475
480
454
443
446
455
463
457
445
442
443
443
445
443
441
438
440
448
451
448
438
424
425
444
446
445
445
442
445
439
435
432
435
439
439
441
446
442
434
437
439
433
437
441
440
436
431
430
442
448
442
435
439
450
447
440
444
443
444
446
439
436
432
431
440
454
443
448
453
449
431
428
435
444
441
455
480
485
498
510
501
490
499
509
525
542
564
575
593
611
619
627
642
649
673
684
694
703
713
717
709
692
688
686
675
647
601
566
537
461
393
361
336
300
274
269
242
226
217
227
249
253
267
282
295
303
317
324
343
363
383
400
409
418
434
440
442
442
451
458
465
478
476
472
467
469
485
487
479
461
461
465
476
492
497
498
490
481
477
480
481
483
483
479
477
490
488
487
492
489
484
477
466
480
499
502
509
526
508
502
500
488
487
506
502
495
497
504
513
518
522
527
516
511
508
511
516
513
505
510
512
508
496
496
496
495
519
532
526
515
512
520
522
514
504
508
517
532
533
514
496
489
498
517
545
535
517
508
506
503
506
517
528
536
541
542
541
527
523
535
535
535
534
542
545
528
516
515
525
523
536
549
541
528
535
534
536
549
550
551
545
550
548
549
544
538
542
535
535
533
536
551
560
556
561
552
558
562
550
546
542
541
538
525
539
553
568
574
559
549
539
542
537
553
550
544
552
554
551
551
554
556
560
553
550
545
545
547
546
531
528
532
545
564
565
565
563
559
544
540
545
538
524
519
535
560
562
541
532
528
531
532
535
533
539
553
554
536
520
532
530
515
502
493
492
515
521
509
511
511
505
501
493
481
488
494
493
487
484
476
480
480
483
471
466
464
452
446
441
435
443
457
461
464
464
463
468
465
448
439
442
439
428
427
430
440
426
414
405
412
451
465
460
449
441
432
428
441
459
456
439
429
436
440
432
419
423
436
431
446
448
446
441
450
447
446
443
447
442
448
454
449
450
449
443
441
443
449
458
454
450
457
464
452
440
448
458
451
448
460
471
464
460
450
447
453
459
470
473
471
465
462
468
465
464
472
474
461
461
478
472
466
462
467
474
484
477
465
463
459
460
454
462
473
466
463
469
469
466
460
466
463
465
473
474
489
492
483
465
454
454
445
456
482
491
483
469
468
468
479
483
487
490
474
462
462
478
479
465
464
475
468
461
451
467
478
465
474
483
480
456
459
462
468
471
462
455
461
474
478
475
479
493
498
486
477
490
491
487
491
495
489
488
492
487
495
499
498
501
497
496
499
502
496
512
516
510
514
519
515
515
515
521
522
521
524
519
504
505
509
502
506
510
520
529
546
558
558
554
549
546
547
552
548
541
536
532
521
517
521
501
498
493
490
479
472
483
490
489
483
466
465
465
461
464
463
459
459
452
453
446
445
445
450
443
447
458
462
461
454
442
443
448
447
441
448
452
452
456
446
451
448
449
453
446
441
434
430
421
438
463
472
465
455
449
440
440
446
436
435
450
460
458
454
449
459
463
458
448
449
450
449
446
448
444
451
453
447
447
443
448
457
466
473
479
485
491
496
495
490
491
494
493
511
524
546
566
574
592
607
621
635
647
654
680
683
682
687
692
689
695
688
680
664
631
587
550
528
512
463
405
369
336
303
289
283
270
253
241
251
267
282
286
285
307
337
347
356
368
377
388
410
420
425
430
448
445
451
458
474
482
482
483
485
488
479
472
476
481
488
488
475
462
474
484
493
493
496
478
468
469
471
483
495
502
504
497
493
489
495
514
511
500
476
475
492
497
494
489
500
507
500
495
487
495
512
515
503
508
502
506
508
507
507
510
512
517
519
511
507
511
505
501
499
498
498
503
507
512
526
518
509
509
518
518
518
521
530
523
525
531
521
519
523
520
517
515
517
514
509
517
522
525
525
529
532
530
532
529
533
529
530
534
530
528
527
527
522
536
538
533
526
528
533
536
537
539
541
542
545
548
545
536
529
527
535
540
550
556
559
558
550
539
529
536
541
535
546
559
558
552
560
561
550
541
530
524
530
539
555
563
559
560
553
554
554
550
538
532
530
539
551
551
562
559
553
542
534
528
537
542
531
529
536
546
551
538
534
533
528
531
534
539
536
535
533
541
539
534
526
529
534
532
523
520
519
515
521
525
527
523
505
496
495
493
501
506
505
499
491
484
480
483
483
484
489
482
479
478
473
469
461
455
468
466
459
456
457
458
452
449
448
452
448
443
448
447
440
455
458
446
425
416
421
424
428
434
436
446
433
411
402
415
418
440
440
439
443
437
434
444
451
446
442
440
431
431
437
441
440
436
446
449
444
447
448
452
443
437
442
440
439
444
450
443
439
451
446
446
447
448
458
461
464
468
464
457
456
455
454
452
464
465
459
459
462
473
480
470
460
462
461
461
468
462
463
469
472
469
471
468
459
464
470
474
465
461
461
471
473
468
461
464
470
476
474
485
481
463
459
466
483
489
471
465
456
442
448
466
467
471
475
481
467
458
478
484
482
481
476
478
481
475
465
455
462
465
467
467
469
468
470
473
475
476
476
472
479
494
495
486
488
492
491
480
473
473
482
493
498
506
501
500
504
500
491
496
492
487
494
515
518
520
514
504
509
523
524
520
511
507
500
516
538
525
503
494
493
497
504
513
515
519
528
532
535
540
544
542
541
541
539
537
527
530
528
518
515
501
486
472
476
500
513
496
468
463
461
463
456
456
449
442
439
444
454
457
451
451
466
456
438
434
435
436
442
455
456
445
441
449
447
444
443
438
439
446
439
436
437
437
434
432
431
427
432
443
454
450
438
431
435
444
438
457
480
470
439
420
436
443
449
450
449
453
455
447
444
441
443
444
444
440
446
456
452
451
456
460
461
461
467
471
478
483
485
483
479
479
480
487
507
526
540
557
580
599
613
628
636
639
654
677
693
695
689
698
696
693
687
681
678
660
621
567
524
470
414
373
355
328
301
288
278
267
248
234
247
257
262
262
282
316
327
336
350
373
389
401
415
431
428
424
432
441
449
446
449
457
466
464
462
470
470
468
473
472
476
483
485
479
474
473
472
471
481
472
459
487
490
488
484
477
471
474
475
480
495
492
499
506
503
493
487
484
496
501
503
510
492
488
496
499
501
500
497
508
509
505
506
506
503
505
504
501
503
503
499
499
506
505
504
508
509
512
505
504
509
511
509
506
511
513
513
507
507
514
523
523
521
521
517
520
518
498
500
504
508
515
530
532
531
536
534
530
531
529
522
520
520
521
515
511
521
530
542
543
536
536
540
542
544
544
544
538
536
533
534
532
529
543
544
548
546
539
537
537
538
535
527
524
544
559
565
566
548
546
548
549
547
542
541
545
546
555
572
563
547
533
536
547
548
544
541
543
535
536
541
543
548
545
543
537
539
551
566
554
537
539
549
557
558
547
542
537
528
524
533
545
548
540
531
535
536
534
533
529
528
526
517
514
507
505
510
516
511
512
543
533
523
514
507
508
510
502
499
497
496
493
485
488
490
476
478
474
476
478
471
464
461
464
460
458
456
451
443
448
453
453
446
440
439
440
442
432
434
440
445
445
442
426
424
440
468
457
437
427
428
427
439
443
439
439
437
430
428
429
428
442
444
437
433
440
445
434
430
439
446
446
444
445
455
463
460
449
444
439
439
443
446
449
444
443
451
459
457
452
450
448
443
446
449
448
455
463
464
459
461
464
457
451
455
462
467
474
474
468
459
457
455
449
469
481
471
466
458
456
459
462
463
463
464
461
459
466
472
467
464
464
470
476
468
472
468
469
467
473
480
474
463
460
477
472
466
467
473
473
477
477
465
456
456
466
467
467
475
479
472
464
460
452
465
470
468
480
489
488
486
477
479
479
477
470
473
477
478
481
483
475
466
454
453
467
469
456
456
464
478
489
490
490
489
488
486
479
473
475
475
478
479
478
475
474
480
488
484
478
481
501
513
510
514
509
511
502
504
509
509
513
515
514
508
512
520
520
524
526
513
510
513
527
527
496
498
505
511
517
523
531
539
544
548
548
549
547
541
539
533
544
541
529
525
515
499
487
485
480
471
470
467
475
483
469
460
466
467
464
452
435
451
450
459
465
457
450
448
450
446
442
444
445
445
444
442
439
441
443
447
453
445
440
438
433
436
459
463
455
452
448
442
437
442
441
440
445
447
438
437
437
437
441
444
443
445
441
447
457
445
439
443
442
444
454
446
440
436
431
434
448
463
452
454
454
455
459
467
469
473
479
481
481
480
481
484
494
512
529
549
561
574
589
618
643
658
655
662
666
679
695
698
699
698
706
691
696
687
663
635
584
536
486
426
376
344
314
289
290
279
254
235
225
233
245
254
267
277
291
308
317
342
373
381
379
383
394
405
428
433
434
440
445
455
466
473
481
488
478
467
470
480
486
475
473
473
473
472
480
484
488
488
475
468
475
481
486
484
484
484
486
486
484
486
487
495
506
507
489
472
471
489
497
502
504
504
500
500
501
502
503
501
504
503
501
495
500
515
517
507
505
495
490
489
494
498
499
504
512
517
513
510
510
512
513
517
517
511
514
514
517
518
515
517
511
517
523
516
515
518
514
515
520
516
517
528
526
524
523
516
513
513
518
530
541
541
543
540
532
530
530
526
529
544
546
542
531
534
538
539
543
543
544
552
550
541
542
536
534
546
555
547
543
546
544
539
532
529
536
554
557
550
536
536
544
551
551
551
551
548
541
536
531
535
539
541
550
549
539
537
529
545
549
545
544
545
538
533
538
542
550
544
542
548
551
543
537
537
544
541
536
536
533
530
530
532
533
530
530
536
535
532
536
537
537
531
522
514
519
522
528
528
517
509
516
519
503
507
507
498
498
500
499
495
490
485
490
484
470
474
481
488
486
480
476
469
463
452
449
455
467
467
462
452
454
457
455
448
442
437
435
432
422
427
425
435
441
443
455
449
437
433
436
438
443
438
430
428
428
429
431
430
429
430
437
447
447
438
437
433
428
418
416
420
439
463
458
451
450
448
446
446
442
440
446
447
437
436
441
452
459
462
459
451
447
444
442
450
454
449
449
450
455
467
469
467
466
459
460
458
463
464
466
463
461
471
472
469
468
467
461
462
468
470
473
471
465
468
464
453
455
462
479
477
482
484
476
469
468
466
464
459
455
465
489
493
493
480
467
466
471
479
481
481
481
479
470
458
457
463
466
471
487
483
483
482
481
478
480
480
478
476
475
472
469
473
468
466
460
455
470
481
484
479
483
483
483
472
462
463
465
462
460
466
484
485
482
484
481
485
485
486
480
478
483
486
492
492
497
496
499
502
505
509
507
507
509
510
509
512
514
521
519
519
521
525
527
525
524
523
526
516
510
510
502
502
515
514
531
550
559
556
553
552
550
544
552
562
555
547
536
520
515
514
506
499
496
496
491
482
479
478
475
473
467
462
461
457
458
456
447
437
436
447
456
447
430
420
418
443
451
444
436
441
447
446
430
429
457
482
466
449
441
441
442
444
438
440
444
443
442
439
442
437
440
446
447
448
445
440
441
438
441
445
439
433
426
426
446
453
449
445
442
444
446
453
450
445
441
446
456
450
448
452
455
458
461
455
451
450
458
480
484
475
469
477
488
501
526
541
549
560
585
599
617
639
671
670
678
679
686
702
704
706
706
701
701
694
664
636
596
545
501
443
392
358
327
300
278
266
248
224
204
208
227
249
277
283
286
298
323
345
363
373
384
395
402
408
412
416
435
453
451
458
467
468
465
464
465
471
475
473
474
476
477
479
477
474
468
462
466
463
463
469
458
453
466
488
493
504
507
497
503
496
494
494
494
491
492
487
482
491
500
496
489
489
494
494
490
490
491
486
487
491
503
510
515
510
501
510
516
517
512
493
485
486
495
514
526
520
521
516
517
511
517
519
515
515
518
514
514
522
524
517
515
514
513
518
519
520
523
515
526
530
533
533
527
523
521
523
521
527
526
522
520
522
528
528
527
547
545
542
543
556
559
543
538
539
540
540
540
543
543
541
542
541
543
543
541
539
541
546
563
575
559
536
530
534
542
540
539
548
543
542
545
550
552
558
546
530
526
525
541
561
552
547
543
543
537
533
531
533
535
545
540
543
538
537
544
548
545
540
542
542
540
542
545
543
538
539
542
541
535
536
546
543
540
541
544
535
524
522
533
554
544
532
530
519
514
526
522
530
523
522
520
512
507
526
526
515
508
503
506
501
496
496
495
491
487
485
483
477
465
460
463
469
469
468
456
464
476
466
454
449
456
459
460
453
449
435
429
430
423
432
458
468
459
438
441
436
435
432
432
433
434
429
431
431
432
432
428
425
431
445
438
429
431
432
431
440
440
435
450
447
443
444
439
432
436
441
444
452
454
458
451
448
453
462
462
466
463
454
449
449
447
447
451
462
461
463
465
463
458
451
448
445
451
454
465
483
470
466
465
468
459
454
455
457
454
456
467
469
465
469
475
472
469
466
473
481
480
477
476
478
477
470
475
475
474
464
453
445
456
472
464
453
471
493
506
486
470
463
465
468
465
461
467
467
466
471
473
478
480
475
476
475
474
476
473
459
450
459
490
497
480
480
470
465
464
464
464
464
457
457
463
477
482
474
467
482
484
483
484
496
497
488
478
480
481
475
470
479
483
487
491
488
490
493
502
502
501
505
505
505
507
504
507
513
512
505
508
515
517
519
518
519
528
533
543
531
520
512
508
515
526
526
534
538
550
552
545
536
547
558
553
547
533
531
541
546
544
525
512
506
491
485
479
490
485
475
457
450
450
454
472
472
472
467
464
464
462
454
457
445
433
435
439
433
433
451
464
461
453
442
444
440
443
444
447
440
432
424
432
439
448
453
445
436
430
434
438
440
435
432
441
440
440
441
448
450
451
446
445
446
449
447
439
432
433
440
446
439
436
448
445
428
425
425
438
464
452
455
462
457
457
462
459
458
464
478
491
491
477
471
478
488
497
527
540
562
579
590
612
628
642
643
653
667
675
690
702
710
703
706
704
696
686
661
632
587
539
499
445
380
325
303
280
277
273
243
225
216
222
230
250
274
288
303
310
329
346
352
374
386
397
413
424
428
435
439
444
449
458
461
470
466
471
474
462
460
474
488
492
486
487
491
488
487
485
486
486
484
485
484
480
485
489
495
491
492
484
485
496
499
498
495
495
489
500
496
495
498
486
487
493
497
496
500
511
515
511
504
505
508
509
516
513
512
511
511
505
518
515
505
501
501
510
513
509
506
506
502
514
529
534
531
518
511
517
517
527
530
519
512
514
518
517
521
524
517
521
515
510
510
526
539
531
531
538
532
534
532
532
531
529
535
535
533
543
543
547
544
532
533
541
524
538
544
527
523
523
540
540
540
543
543
541
549
547
531
536
572
571
549
543
542
540
537
541
538
541
548
552
553
554
544
540
540
538
538
546
564
560
543
547
551
550
537
528
531
543
543
535
544
541
533
526
527
531
552
559
542
540
549
556
549
537
531
536
538
537
537
528
537
536
533
526
531
530
539
542
530
534
537
535
526
517
515
516
520
537
533
518
528
527
525
529
524
516
513
512
510
514
513
497
482
485
491
491
488
482
483
475
461
465
462
465
472
472
465
461
453
450
443
444
448
443
429
415
420
429
442
447
442
445
448
442
436
430
433
438
443
448
444
444
442
433
439
456
452
444
437
426
421
424
421
416
434
453
455
439
429
435
451
459
449
446
446
442
448
444
435
444
455
453
448
453
452
452
447
441
436
442
445
453
469
449
440
448
457
460
459
452
456
468
480
470
457
462
472
472
470
475
470
462
461
457
465
469
461
458
464
470
489
481
474
470
471
474
470
471
474
474
465
468
474
482
481
478
480
482
478
474
473
470
472
472
475
474
481
475
476
479
481
481
470
460
469
473
480
480
468
464
460
450
462
479
480
481
486
483
469
458
462
491
492
487
482
479
483
487
491
496
488
484
496
500
493
491
491
490
494
509
524
522
510
505
504
505
507
513
511
510
507
513
519
521
526
524
522
517
507
503
497
494
493
498
515
515
514
522
530
547
548
548
555
553
547
545
551
555
536
514
508
498
508
507
487
478
477
476
486
485
474
477
472
466
467
465
467
466
465
459
454
453
443
433
425
420
426
435
447
453
458
461
456
447
449
445
449
466
463
454
448
442
439
436
434
430
454
460
461
452
449
447
455
453
447
448
450
443
440
441
445
455
455
447
445
449
447
443
436
428
433
438
443
460
462
464
468
463
456
457
461
468
464
461
464
465
470
477
492
505
494
482
492
491
510
532
544
554
563
588
613
636
652
657
662
666
675
684
705
689
691
691
671
662
656
637
603
559
524
501
445
389
362
331
294
270
272
274
263
245
244
255
267
286
302
313
325
341
350
371
388
405
413
418
425
435
461
466
451
452
461
468
477
479
486
487
488
487
485
492
484
474
474
476
480
483
482
484
490
489
492
490
481
485
481
483
490
502
496
499
498
500
503
497
495
499
502
493
495
495
497
499
497
489
475
473
474
488
504
513
522
519
510
516
513
507
505
507
515
514
518
529
531
520
500
499
510
512
512
506
505
504
516
521
518
517
517
514
518
516
513
508
507
506
516
540
532
517
516
514
523
545
530
522
509
510
520
528
526
509
507
513
518
523
526
528
536
552
535
536
535
531
539
540
539
538
527
526
536
537
538
539
541
538
527
519
532
552
549
547
542
549
556
547
541
537
544
546
543
534
528
528
543
543
541
544
551
549
541
535
535
554
558
545
547
537
509
525
551
551
550
547
555
550
544
535
533
537
534
540
560
558
554
559
557
547
546
528
523
525
528
529
527
526
537
543
537
543
544
538
521
514
514
505
499
516
535
536
522
516
508
499
496
493
492
487
504
513
499
490
489
488
484
476
472
473
478
480
480
466
465
464
460
462
465
468
460
452
449
449
448
446
439
439
442
446
440
441
447
441
440
439
442
447
437
422
424
432
434
439
447
449
435
421
426
427
427
419
415
404
415
440
444
437
439
447
441
440
435
437
444
447
445
443
444
445
444
445
434
441
450
449
447
450
449
450
450
450
455
453
438
439
446
455
468
464
453
450
457
469
461
449
452
452
449
457
475
469
464
472
476
465
460
460
455
459
465
462
460
469
462
456
457
460
470
464
468
477
473
465
463
468
477
485
480
475
478
461
453
449
449
464
469
468
469
473
477
481
480
480
488
491
498
498
481
465
471
482
476
466
466
463
466
460
468
473
475
467
466
468
473
477
480
476
473
472
480
480
484
483
478
478
476
492
509
524
515
504
498
499
499
511
511
502
502
512
511
505
509
509
513
517
518
523
533
541
537
521
507
515
513
503
500
501
496
510
536
538
546
548
545
548
558
556
555
550
544
533
515
509
520
527
524
504
488
483
490
491
488
480
476
475
471
474
479
482
473
470
468
466
464
459
464
469
461
457
457
465
468
462
461
444
441
440
436
438
449
444
446
451
450
445
444
442
447
452
446
437
445
440
439
446
446
448
446
448
454
460
456
455
452
446
444
448
448
444
448
443
436
433
430
449
463
460
456
454
453
454
454
451
443
446
455
466
480
486
483
476
482
477
468
468
485
501
511
525
538
551
569
579
594
610
629
650
665
667
666
668
680
679
704
709
702
699
691
673
641
592
542
489
435
395
368
332
305
292
284
263
250
253
254
233
245
267
294
303
309
326
340
353
364
375
392
400
404
419
442
452
451
439
428
439
469
478
468
461
454
449
450
457
466
476
483
480
473
469
464
462
462
468
470
475
480
484
489
492
496
497
484
482
484
489
483
482
477
471
474
483
502
496
486
480
484
487
483
489
497
502
499
490
478
476
490
504
505
502
500
503
502
493
491
493
497
503
495
489
516
523
510
502
505
509
511
515
505
503
507
512
502
505
518
516
514
515
520
517
515
515
512
515
524
526
524
520
516
513
517
537
528
524
525
522
519
526
531
531
528
535
531
533
533
533
529
522
514
519
536
544
552
554
557
556
551
542
528
532
535
540
541
542
544
540
540
535
538
542
549
558
565
564
549
527
523
528
534
540
552
560
559
550
544
541
539
539
542
533
532
535
540
537
531
527
537
550
552
544
537
538
537
538
542
546
542
537
529
526
525
516
527
523
519
533
549
545
541
538
533
526
519
533
541
536
524
525
529
527
521
511
516
524
521
508
505
503
500
495
496
507
493
478
461
447
459
495
500
498
497
481
486
482
472
465
463
465
478
472
464
463
460
461
453
451
445
444
437
428
440
450
439
434
431
429
429
432
433
437
440
436
434
436
434
438
440
455
461
446
418
408
425
441
452
458
462
457
455
437
429
433
433
437
439
443
440
444
444
441
438
443
442
444
454
456
448
443
437
440
464
468
467
472
470
451
451
450
448
451
452
451
444
439
439
457
463
453
456
451
449
476
473
466
460
466
469
472
464
454
444
448
457
464
470
468
478
467
461
465
464
461
476
478
476
480
468
467
480
481
464
461
467
465
462
463
467
465
464
466
464
469
472
479
478
476
476
475
475
476
474
485
502
496
462
452
457
465
482
486
476
473
472
477
472
469
469
470
473
479
492
493
486
479
480
481
486
488
487
489
490
492
491
490
497
494
497
509
514
524
530
531
528
520
515
516
521
519
514
497
504
528
532
533
519
503
497
499
507
523
525
527
526
526
536
543
550
541
542
537
531
523
518
524
530
528
521
513
501
494
489
486
482
473
471
474
472
462
467
465
466
458
452
465
455
450
448
447
440
431
428
437
449
445
434
430
433
440
441
442
436
423
414
410
416
457
486
475
444
420
421
435
442
433
435
440
444
442
438
438
439
437
434
440
444
441
435
429
427
427
432
446
435
430
427
430
439
443
445
447
452
451
451
448
444
443
440
440
446
451
459
466
473
480
483
477
470
467
477
497
522
538
556
585
609
646
661
651
646
655
663
673
688
702
697
697
702
707
707
700
664
619
581
536
473
412
370
350
330
302
279
269
251
220
218
248
262
260
267
275
284
300
318
360
392
394
391
397
401
412
426
437
444
442
446
457
466
469
466
470
468
468
467
470
478
479
473
472
472
465
469
472
478
475
472
473
476
478
476
478
480
488
487
493
493
490
490
486
481
478
483
488
488
490
496
504
500
492
489
481
474
493
501
500
496
496
505
515
519
511
509
503
505
512
513
508
505
499
498
503
513
515
508
502
503
508
511
519
517
505
520
526
518
517
517
517
520
524
513
507
512
518
508
532
531
524
524
523
519
528
533
532
530
523
521
524
525
522
510
517
522
546
577
568
553
529
518
526
550
553
536
522
520
520
519
529
532
536
538
533
538
543
540
539
542
546
541
540
537
539
540
544
548
540
537
543
549
550
551
549
544
543
545
545
541
543
540
541
541
540
540
537
546
555
551
543
543
543
539
537
537
543
547
543
539
535
535
535
531
540
551
543
541
542
538
528
520
517
514
529
544
553
548
543
538
536
528
526
523
520
524
517
503
501
495
507
519
514
536
544
526
504
493
493
502
504
502
496
488
482
477
478
474
472
468
458
455
465
476
478
460
457
463
467
455
449
452
453
447
443
443
443
444
440
438
444
443
441
436
440
436
434
430
436
445
444
437
438
435
430
428
434
431
430
435
434
441
438
437
439
440
442
444
446
447
444
447
442
437
434
434
439
444
450
452
455
457
458
461
464
463
464
455
441
435
437
444
459
465
462
450
448
452
460
460
466
465
462
467
465
457
462
478
467
445
434
435
454
472
482
473
461
466
479
476
467
463
461
464
470
468
466
461
463
471
471
467
468
473
476
492
487
472
469
470
471
470
472
467
469
465
466
474
477
480
485
482
474
467
468
466
462
466
478
479
474
468
471
476
482
484
485
486
468
459
462
467
471
472
469
473
472
471
476
477
486
489
492
495
489
491
494
492
486
488
494
501
507
515
515
513
510
508
513
515
512
536
540
527
527
528
523
520
504
500
507
498
491
514
518
518
520
530
547
543
538
548
556
561
554
546
546
545
540
545
534
516
503
497
489
485
488
481
484
490
493
480
477
474
471
471
468
462
457
448
455
484
474
442
430
431
434
439
435
429
434
444
443
434
442
452
451
449
442
440
447
448
449
450
449
438
424
428
441
448
447
449
444
444
451
434
421
421
434
446
461
455
450
449
448
443
436
434
436
444
453
445
439
441
448
461
468
452
452
444
437
437
437
445
448
444
453
469
472
481
483
485
486
483
488
496
513
531
545
554
570
592
617
632
638
665
679
686
693
697
693
708
704
687
675
696
702
661
625
593
550
478
405
356
336
314
289
274
261
247
228
224
236
250
261
273
296
309
326
345
369
383
389
401
412
421
431
439
448
456
461
467
469
467
472
478
485
491
502
513
502
492
488
487
484
483
480
481
497
520
514
493
489
490
488
492
496
503
503
499
502
495
492
495
494
497
510
514
510
498
497
504
504
498
496
494
494
510
514
511
506
509
513
513
504
507
514
515
510
503
502
506
507
497
486
511
520
524
519
515
525
534
523
518
511
509
513
521
526
522
521
523
525
521
523
530
522
514
513
523
525
521
520
523
523
521
518
522
532
536
522
520
526
528
530
533
534
528
526
530
534
542
545
538
533
526
526
530
536
535
535
541
538
535
529
534
544
551
545
532
530
535
543
561
564
556
545
534
541
550
542
537
538
538
536
542
547
546
547
544
546
547
546
541
536
533
534
534
540
547
542
541
542
536
537
539
537
536
545
542
532
541
542
537
529
525
523
524
526
525
531
538
539
536
536
527
519
518
519
540
536
530
524
524
531
535
540
541
530
518
507
511
513
515
513
514
513
510
503
502
494
497
488
478
480
481
464
476
484
488
491
483
473
462
467
478
469
462
461
464
464
458
455
451
440
432
425
421
427
437
446
450
446
442
428
426
439
458
462
451
435
433
434
436
438
434
427
429
437
433
432
435
440
442
445
444
437
438
439
443
451
450
444
440
437
440
441
443
447
446
442
441
443
449
448
446
452
463
461
454
449
451
456
457
453
457
457
455
454
449
450
453
456
460
459
463
475
473
462
460
464
466
467
466
456
462
464
466
466
470
474
473
464
460
463
465
464
462
458
471
471
461
472
468
460
458
463
476
486
481
474
464
459
461
472
473
470
466
469
485
489
473
463
471
483
480
463
460
466
463
453
445
446
451
456
484
490
488
480
475
476
482
476
472
478
475
463
464
471
468
466
469
471
469
469
468
466
471
480
482
477
488
497
488
482
481
481
487
492
491
495
504
506
506
509
509
512
515
511
511
516
521
522
520
521
515
516
518
517
512
511
508
508
514
519
516
515
521
531
541
552
557
554
544
540
534
531
530
524
519
509
505
510
518
520
513
496
484
474
484
476
462
477
480
470
474
456
444
448
445
447
439
434
428
427
434
454
460
460
455
449
442
436
442
441
437
433
435
442
445
444
442
438
429
419
422
432
431
444
454
452
447
443
441
435
434
431
434
438
434
429
423
422
431
435
444
452
450
442
435
440
443
447
439
437
434
436
435
431
439
461
458
450
455
456
461
460
467
464
465
482
482
478
471
478
493
501
513
536
551
566
594
616
629
643
662
676
687
693
701
702
701
700
702
697
691
686
666
627
592
536
471
409
363
326
286
243
240
252
267
233
223
225
233
240
253
274
299
320
348
357
365
373
384
405
414
429
431
436
445
449
453
458
458
459
474
493
489
473
464
474
476
474
469
468
478
480
484
487
489
500
507
489
476
471
466
461
478
483
499
503
509
499
494
483
478
486
486
494
501
508
504
500
498
494
494
500
494
492
491
493
501
504
500
497
505
504
505
505
503
502
505
507
514
508
501
502
507
507
502
505
504
505
510
513
518
509
507
503
504
502
512
517
522
524
518
514
516
518
514
517
523
521
527
531
545
539
526
526
523
528
522
527
534
531
531
530
535
541
542
539
538
528
522
523
536
542
531
516
515
536
544
545
536
528
532
540
539
545
541
534
538
540
538
530
537
545
544
544
529
529
538
533
534
539
535
543
548
534
532
529
537
555
562
558
543
528
547
530
554
561
548
538
538
541
542
535
528
536
550
537
523
524
527
527
540
541
530
535
539
531
523
515
526
547
544
540
536
533
530
521
525
533
533
520
520
530
528
516
513
507
504
510
517
515
514
516
514
516
509
496
506
497
490
491
480
479
485
475
467
463
481
487
485
479
467
448
447
464
465
453
449
443
439
441
447
447
445
445
435
432
428
425
436
436
430
435
438
441
432
429
433
438
436
434
441
433
426
436
430
443
444
446
438
438
425
438
444
437
432
428
441
442
438
430
439
444
446
441
449
445
445
438
451
463
469
462
449
434
442
447
450
443
444
455
453
454
460
469
464
443
447
448
461
473
467
461
464
459
457
445
458
474
471
479
470
475
472
468
466
476
467
470
470
473
472
476
469
472
478
480
476
483
475
463
457
455
457
465
469
470
461
473
464
453
445
447
472
473
471
468
470
468
465
467
465
468
476
471
482
490
488
464
468
476
481
484
486
490
473
468
465
466
474
474
472
479
495
487
483
487
484
494
515
516
514
512
524
521
505
510
497
495
499
503
505
509
518
523
521
521
516
513
508
508
504
497
496
502
509
518
521
527
530
541
535
541
549
544
542
553
548
538
523
509
501
513
509
502
492
502
502
464
459
471
474
476
467
469
461
450
448
455
452
459
461
454
443
438
439
446
442
439
445
432
425
443
447
442
439
447
447
457
456
452
444
448
446
449
440
442
442
451
451
442
449
444
445
429
439
447
440
438
433
429
429
438
440
435
433
439
444
435
430
439
463
468
468
451
454
452
456
455
448
436
448
469
461
456
460
461
484
499
506
512
506
482
482
494
495
524
549
574
593
601
613
614
616
642
657
673
680
691
691
691
688
679
667
663
671
654
603
560
517
465
408
391
364
336
311
292
275
263
240
223
235
256
286
313
312
320
321
338
352
366
376
372
401
415
419
421
436
463
462
461
471
473
482
482
482
484
488
476
468
482
488
492
490
485
484
485
480
487
479
488
494
489
493
489
512
511
502
495
495
494
500
493
493
501
505
504
511
507
496
495
498
505
507
489
481
468
471
474
507
534
522
532
523
520
514
501
506
510
502
517
515
527
517
517
506
498
500
520
524
521
519
518
512
517
504
501
500
527
540
522
516
530
527
526
520
516
516
504
500
500
497
524
544
543
542
529
509
503
532
538
539
534
532
523
528
543
534
541
549
545
534
534
543
531
534
531
527
541
548
546
535
534
536
533
544
560
554
542
534
530
538
527
532
546
555
552
549
537
537
544
541
541
535
541
539
549
559
563
552
550
546
566
558
555
546
542
539
538
532
531
541
549
543
538
541
536
545
540
532
525
519
514
510
534
544
536
550
561
552
546
535
537
537
534
549
544
540
531
517
528
542
531
524
538
546
547
535
527
513
518
523
509
516
509
508
513
506
504
493
495
491
487
481
479
488
483
484
490
475
469
463
464
461
469
468
465
460
451
452
454
450
442
451
446
450
440
435
439
441
439
444
441
445
447
446
441
446
456
427
422
435
443
439
444
449
457
460
457
455
442
428
430
440
450
454
448
449
451
448
430
435
445
451
454
455
462
456
438
444
441
447
455
453
467
469
473
471
447
433
442
465
466
458
461
464
488
485
467
460
452
448
453
460
474
482
467
458
464
481
469
470
472
468
467
478
470
469
476
474
472
474
469
473
470
481
503
499
464
472
483
484
476
466
467
452
459
473
472
475
487
500
494
488
493
505
491
481
479
479
481
465
462
473
479
488
494
486
478
481
482
490
485
492
492
478
482
514
506
506
501
503
488
500
502
501
515
510
500
506
503
498
507
506
511
516
512
515
538
532
534
520
520
511
505
499
495
497
500
488
496
503
520
546
542
534
526
538
534
536
539
532
530
524
527
527
511
506
503
492
487
477
485
496
502
490
498
482
480
471
456
454
441
446
453
469
464
463
466
459
464
448
456
456
461
468
457
447
452
458
447
432
432
451
457
466
464
450
453
452
432
446
456
462
455
452
453
449
440
430
425
426
450
460
456
460
463
461
458
461
474
461
446
456
462
450
451
451
460
471
461
473
465
454
453
447
461
468
475
472
471
479
487
495
500
505
487
477
493
538
563
569
570
591
606
613
614
623
630
652
661
677
696
693
672
658
667
680
668
641
599
544
504
463
425
392
363
348
334
339
326
317
320
307
290
300
305
306
320
350
368
363
356
373
379
385
417
424
426
453
482
479
476
466
476
464
461
482
485
495
483
469
468
467
465
477
480
484
482
477
488
496
493
498
490
493
502
489
482
483
486
480
486
502
508
503
505
495
499
487
481
482
483
486
493
483
485
490
493
490
479
474
485
518
509
508
510
507
512
518
512
518
532
513
515
505
510
506
504
501
520
507
501
491
507
521
511
518
511
503
491
506
514
522
520
516
518
514
527
529
525
552
538
503
495
503
531
542
549
536
526
528
515
503
524
524
524
526
507
497
521
537
544
540
545
547
536
531
535
534
535
537
545
538
517
516
535
549
546
542
550
553
542
548
554
547
550
555
543
541
541
553
531
529
541
543
547
556
549
547
533
539
546
552
551
546
536
540
558
561
553
558
535
538
555
539
538
550
553
549
538
529
530
533
537
547
547
537
530
530
534
523
531
533
545
538
531
537
524
527
521
524
537
549
514
529
515
505
509
527
517
504
503
514
525
502
485
490
484
484
484
495
484
450
465
487
502
492
466
468
467
458
451
461
465
461
460
473
471
463
460
463
457
458
439
438
451
441
462
461
457
441
434
438
441
447
458
447
445
442
442
440
450
445
449
457
449
454
451
444
440
438
447
433
432
445
451
444
442
451
448
445
448
461
454
456
447
450
467
465
457
449
443
436
433
429
439
442
458
454
459
458
482
476
453
456
456
466
465
478
471
458
469
478
470
457
457
467
468
483
486
480
469
461
461
472
476
471
481
471
467
454
461
472
466
445
446
476
502
497
480
489
477
455
464
465
474
469
462
473
493
478
484
488
486
491
498
495
476
484
470
461
469
476
459
452
463
461
461
462
481
482
495
499
506
509
498
501
524
519
474
487
486
509
511
517
507
508
504
507
509
521
512
504
510
512
504
512
507
512
509
516
524
509
514
508
498
497
498
499
502
508
517
515
513
501
525
557
536
543
517
506
521
538
518
507
526
515
491
487
487
482
472
469
486
485
487
482
475
470
452
445
441
448
450
456
460
461
450
451
471
457
460
455
466
442
440
446
448
447
431
424
435
453
481
467
440
431
454
468
469
454
447
457
459
447
454
466
460
440
444
457
457
468
471
470
458
465
475
469
450
435
428
458
479
467
463
460
461
449
463
441
446
458
460
448
450
454
471
490
489
490
504
505
509
494
482
488
493
530
554
562
563
568
560
569
583
589
625
637
629
636
626
607
613
603
604
606
574
536
522
492
438
382
377
391
381
366
357
348
361
341
320
311
309
339
348
353
364
375
395
420
418
424
421
442
449
459
484
470
465
476
467
480
459
463
484
502
471
450
450
467
497
495
493
496
498
489
490
463
471
484
500
498
497
495
474
482
493
486
490
480
472
480
484
503
488
480
478
504
499
511
511
508
490
475
480
495
506
514
514
509
499
495
498
493
485
496
487
469
481
498
518
540
542
509
488
493
480
482
497
497
491
497
497
513
518
508
503
518
518
503
492
506
520
522
526
520
514
508
509
499
516
521
529
530
536
527
520
508
502
508
517
517
513
509
525
517
505
501
506
507
507
509
510
505
517
517
520
531
538
537
540
527
528
531
535
525
537
543
530
535
539
531
534
538
524
533
546
555
554
546
542
530
540
544
543
543
538
528
534
534
532
520
513
522
515
522
520
518
532
528
524
527
539
543
534
527
537
550
546
538
538
542
538
534
535
535
525
527
521
517
513
513
515
509
501
505
510
520
528
511
499
498
500
509
510
507
499
495
491
477
481
518
519
495
501
492
489
481
478
474
488
472
467
470
471
459
457
463
472
477
480
472
459
448
444
439
442
441
450
449
442
443
450
443
441
445
449
444
446
439
441
441
443
457
458
462
467
462
461
458
448
449
440
450
448
440
444
452
460
455
450
467
459
441
444
436
437
443
439
440
429
437
443
464
452
448
461
469
457
457
448
456
452
460
458
460
448
455
460
457
461
470
452
457
446
455
464
475
443
432
445
463
465
469
463
455
464
472
477
476
479
487
483
480
472
467
469
474
482
486
478
469
472
462
463
460
469
483
484
481
489
481
479
482
481
473
466
474
475
472
479
493
489
480
475
473
484
492
479
475
464
471
482
481
477
472
473
475
461
448
462
486
497
484
482
482
490
497
486
489
493
494
502
507
499
494
497
497
487
495
496
492
496
491
498
505
506
522
533
521
503
494
492
507
503
498
501
499
505
505
499
503
503
502
510
516
512
521
540
539
534
525
521
520
525
522
524
520
512
502
499
501
503
499
493
486
485
480
484
481
478
469
472
476
457
452
456
467
464
469
461
460
462
453
446
458
460
445
440
440
443
448
460
459
457
450
435
438
440
434
450
471
463
454
460
463
463
453
442
441
442
443
446
451
450
448
448
451
453
450
450
453
456
446
449
454
448
448
451
448
447
447
453
453
446
453
457
466
465
462
466
470
481
471
467
469
480
502
507
491
487
499
523
546
555
550
553
563
576
590
619
636
635
638
651
651
651
645
640
642
636
611
573
538
503
465
424
407
386
383
374
371
360
363
349
329
317
326
332
337
341
356
368
381
387
401
412
422
428
440
445
451
458
457
461
463
470
478
483
472
467
464
455
447
452
462
464
462
464
488
500
490
475
480
479
474
479
485
483
481
478
469
474
474
476
485
491
490
492
497
496
495
492
487
494
501
496
483
473
476
493
501
503
501
502
503
495
496
499
498
495
506
511
502
501
498
500
499
497
496
496
502
503
496
501
515
511
503
496
483
478
477
482
514
507
504
502
507
524
529
524
523
526
519
508
501
507
506
501
507
514
521
518
513
504
514
528
526
521
516
518
516
505
516
525
528
522
517
518
523
526
537
544
529
528
525
528
531
530
532
538
533
525
516
530
540
532
524
524
529
532
525
525
525
525
526
528
528
521
519
527
543
555
547
534
530
528
533
540
540
544
541
539
544
546
543
529
526
528
521
519
520
524
530
534
539
543
536
538
536
524
520
525
533
534
537
537
538
534
529
526
525
524
522
518
515
509
504
507
504
506
517
512
521
516
514
511
503
498
493
483
476
478
481
486
488
482
479
473
464
470
464
468
458
440
452
462
462
454
446
481
483
478
460
441
437
432
442
451
454
457
451
448
441
431
428
438
441
442
445
445
439
439
433
441
436
432
438
435
440
444
446
446
445
442
440
445
453
451
441
440
443
444
450
452
451
450
445
444
445
451
460
455
456
461
460
463
461
463
459
450
448
450
448
446
443
444
456
457
469
468
466
466
458
444
445
448
457
481
470
450
453
478
472
467
463
476
473
474
468
470
470
468
471
466
466
486
494
484
460
451
467
483
495
485
467
456
456
456
466
476
480
484
478
471
476
479
481
481
483
480
469
463
465
463
465
464
469
474
464
461
476
474
476
472
475
478
479
478
479
475
485
481
473
474
463
454
456
460
471
473
472
470
473
476
476
479
480
477
470
458
457
454
455
466
477
477
476
478
479
473
475
475
476
481
480
481
478
472
471
475
479
473
470
471
456
458
456
472
475
474
478
479
471
468
473
486
491
485
474
471
473
485
486
478
470
470
482
489
509
524
504
503
517
509
494
488
494
498
501
505
511
519
513
511
504
500
508
518
523
512
506
504
501
496
509
507
501
504
519
531
536
534
534
537
541
545
548
534
526
526
525
519
517
516
519
508
496
489
481
477
471
470
474
466
465
466
455
460
463
453
453
453
451
453
456
460
455
454
452
446
457
450
444
445
453
454
442
439
439
448
451
458
461
453
449
448
449
459
466
456
451
438
434
454
473
471
460
454
444
433
434
447
440
447
463
467
466
464
455
461
476
474
456
449
450
455
456
464
464
461
465
472
478
480
487
491
491
489
489
485
480
473
485
501
511
526
539
549
563
590
614
625
630
636
647
660
669
678
686
696
702
709
708
709
706
685
657
617
578
546
496
439
402
380
361
340
324
310
294
273
261
267
282
302
311
319
334
345
360
382
396
407
418
426
433
446
453
457
461
457
452
464
470
478
479
474
467
463
475
484
484
490
495
479
473
471
472
481
481
478
474
471
467
468
468
476
485
495
499
479
473
491
506
483
482
480
480
480
478
492
500
495
485
491
497
489
487
489
491
492
492
497
497
491
492
497
504
507
503
499
495
494
491
503
506
502
509
510
502
500
503
505
506
506
502
505
516
517
512
510
510
508
508
512
516
514
507
509
510
512
518
519
515
512
512
508
510
507
513
523
525
525
526
520
508
500
511
518
519
524
526
531
527
526
531
533
522
521
519
524
526
521
527
530
528
529
524
523
523
522
528
536
532
531
532
534
532
539
545
535
520
520
529
537
536
531
538
550
545
532
524
523
527
533
551
537
534
540
544
534
531
524
517
518
522
520
519
521
523
522
511
521
529
523
520
521
530
541
546
540
534
528
528
526
523
518
526
532
525
524
525
528
525
524
526
524
521
517
510
503
500
502
514
529
521
509
501
496
495
507
497
497
500
495
496
494
493
495
488
476
473
469
467
465
461
458
455
463
465
465
467
460
454
447
454
456
452
449
443
436
434
442
443
442
442
433
435
436
437
430
424
421
423
429
437
437
446
448
452
446
442
443
441
438
432
430
424
424
433
462
476
455
444
444
450
464
461
451
440
445
449
455
456
460
453
442
436
441
462
474
470
457
452
445
452
461
453
452
452
448
441
441
443
454
460
472
466
465
468
465
461
458
459
452
460
465
470
475
473
467
458
456
458
463
469
474
472
460
463
474
475
473
478
473
469
470
470
469
474
479
469
448
443
469
470
467
464
462
455
460
470
471
473
470
472
469
464
465
464
461
461
464
465
471
469
468
471
472
472
474
474
475
477
473
473
472
470
465
464
463
462
467
464
466
457
453
456
466
478
474
463
461
462
462
478
481
472
467
464
460
457
452
453
461
463
472
466
453
454
456
454
454
455
454
460
461
463
474
475
473
473
471
465
468
470
469
473
479
481
484
489
489
482
481
486
493
497
498
495
488
485
490
498
508
502
504
507
508
505
507
514
513
512
497
488
504
516
519
513
499
497
509
519
516
527
532
535
542
547
545
545
539
532
523
529
537
529
520
514
500
487
481
478
483
486
481
475
471
467
463
462
468
467
455
453
454
450
449
439
440
440
443
448
444
438
434
435
439
441
440
440
438
447
453
450
445
441
431
433
448
459
456
451
441
436
437
440
445
445
440
435
439
438
440
457
461
447
437
437
440
440
444
443
447
449
454
450
443
443
438
441
451
462
453
444
442
439
446
447
448
451
458
460
470
468
468
469
472
486
489
487
498
528
547
554
565
577
591
605
621
631
641
652
665
673
682
689
691
697
697
692
690
684
660
622
575
532
476
413
373
344
323
297
281
266
254
244
234
245
260
276
287
297
307
320
336
351
362
376
390
405
411
417
434
453
451
442
443
453
478
472
466
473
480
480
473
470
469
466
468
479
483
481
484
477
487
482
475
471
477
481
480
491
490
483
485
491
495
495
490
492
495
496
492
487
482
491
502
496
495
502
500
492
495
490
484
497
503
496
483
478
480
505
520
522
522
518
512
508
498
492
507
521
524
517
504
510
511
517
515
510
507
514
517
516
518
527
522
517
515
505
509
511
512
524
533
528
516
512
516
528
532
532
529
521
519
518
525
524
525
528
525
525
524
533
533
532
537
536
528
522
521
524
537
540
525
530
535
534
535
534
532
534
537
536
532
541
542
532
531
529
526
523
534
544
545
544
547
548
540
542
543
546
537
537
538
543
540
532
520
521
529
522
521
533
548
543
542
541
531
541
541
544
545
543
539
535
535
538
531
531
527
529
533
535
532
532
538
538
534
541
536
538
537
543
545
537
526
524
530
530
529
520
518
532
532
507
491
495
506
519
524
523
516
509
504
497
494
498
497
492
495
492
483
477
474
490
490
482
480
483
473
463
461
463
465
471
466
452
440
440
442
453
456
453
450
445
444
457
457
450
450
444
438
436
439
434
437
435
439
441
440
437
436
434
430
430
437
436
442
441
443
444
449
457
454
449
442
446
448
443
435
433
433
437
461
458
446
451
457
457
455
460
461
459
456
446
436
450
475
478
461
449
451
459
461
461
461
462
471
463
455
450
453
461
468
474
471
476
471
469
470
467
463
466
457
464
468
462
461
464
470
484
470
468
467
473
467
469
469
460
465
467
466
463
461
466
476
475
472
474
473
474
475
467
461
461
470
474
482
477
474
483
479
470
469
471
474
480
478
475
471
472
471
469
468
469
475
480
471
466
466
484
477
465
457
454
474
482
472
471
475
481
475
467
477
483
476
472
474
474
476
479
474
471
474
478
481
483
486
491
491
491
482
481
490
500
507
508
496
498
497
496
498
502
505
509
509
506
507
527
533
519
515
513
511
513
505
500
499
503
517
519
520
522
528
542
553
560
560
555
551
537
523
529
535
531
520
511
506
497
488
482
480
482
482
480
475
466
459
457
453
463
461
452
454
455
444
433
432
444
462
464
458
446
445
437
432
442
438
445
448
445
444
445
452
455
450
454
445
436
431
426
430
441
455
453
442
436
429
432
438
448
451
445
448
439
438
444
438
444
450
447
446
447
448
445
448
446
441
444
462
456
447
454
451
448
443
452
451
451
451
451
466
474
489
494
491
483
482
486
504
530
549
564
574
580
600
623
641
649
652
658
670
683
685
686
689
691
689
686
694
686
668
616
562
518
456
402
373
340
310
288
272
261
249
237
230
240
253
267
278
285
289
298
333
362
374
385
399
413
424
434
436
442
443
445
448
453
469
482
486
484
481
478
476
471
475
476
473
474
477
473
471
468
476
479
479
476
478
482
500
491
477
470
480
496
498
499
501
498
500
497
503
506
501
496
492
494
499
498
494
495
499
504
508
510
503
498
490
501
520
535
529
519
508
503
513
517
509
507
513
518
518
522
520
514
514
515
511
511
511
509
512
505
502
505
519
526
524
520
522
523
523
518
513
508
513
542
544
536
528
524
529
527
520
517
526
541
547
540
538
535
533
534
539
544
545
539
534
529
525
525
533
537
539
538
538
536
536
532
531
536
550
557
554
552
551
552
549
539
534
535
532
534
540
559
549
542
546
544
550
557
552
538
540
552
559
555
539
537
543
548
547
551
548
543
534
533
529
528
536
530
534
534
538
543
544
543
537
530
531
534
541
538
543
545
545
544
534
542
539
524
521
528
529
528
523
520
516
510
508
522
531
528
517
514
514
519
518
507
505
517
526
520
509
501
497
491
479
469
465
469
479
484
476
467
470
481
498
486
474
472
469
461
459
463
471
469
457
443
449
442
442
447
452
451
448
446
441
443
445
437
441
442
437
436
437
435
434
432
431
436
437
439
437
437
441
443
438
433
440
454
454
452
455
453
460
460
456
449
441
438
440
442
439
443
445
445
444
460
470
461
456
451
450
448
455
456
453
452
463
460
455
459
460
457
454
457
465
467
465
465
475
475
465
459
460
475
476
459
450
451
458
465
470
470
473
474
466
468
469
471
491
497
482
480
472
465
465
465
464
462
464
470
472
474
479
479
476
474
472
472
474
470
474
472
473
470
468
469
475
476
476
478
472
467
473
472
470
470
470
476
479
476
471
476
474
475
475
471
466
462
459
471
476
472
470
470
471
473
469
473
482
481
473
469
470
479
475
465
459
458
467
472
464
476
495
497
494
496
496
498
494
485
488
498
513
506
507
505
501
501
499
502
511
515
511
507
511
508
508
513
517
517
525
521
517
506
513
510
506
505
506
515
523
530
537
539
544
549
554
553
552
551
548
541
533
534
531
517
515
509
497
492
487
481
471
474
475
478
487
491
471
465
464
460
461
458
454
446
442
441
445
453
453
449
445
448
447
441
437
440
450
448
436
430
424
433
450
447
453
461
463
461
447
439
452
463
455
443
446
452
448
443
447
446
445
442
440
434
430
425
435
466
476
450
441
438
438
441
445
451
453
448
449
458
454
448
449
445
448
451
452
453
458
480
484
484
488
488
486
486
491
503
528
560
581
585
590
599
615
632
643
653
667
677
686
692
695
701
706
704
699
690
667
625
581
540
499
431
375
341
314
288
276
274
259
240
228
233
245
255
270
280
290
305
330
356
362
359
366
384
415
440
433
430
441
460
474
471
468
472
483
495
499
483
472
473
474
472
468
464
471
485
489
478
487
494
487
486
483
479
480
484
491
490
488
494
493
495
487
489
494
495
489
487
488
488
493
493
497
502
505
503
506
503
499
498
503
506
501
506
507
507
505
505
507
511
516
503
503
506
513
516
515
515
513
511
509
506
510
512
509
508
503
513
532
536
524
520
519
514
515
525
532
532
531
519
516
510
517
513
519
539
541
532
523
528
535
550
549
537
532
533
530
530
532
538
539
530
528
528
536
543
538
533
537
539
537
535
539
540
542
540
547
549
544
541
536
535
539
538
538
539
542
539
543
547
548
545
544
547
544
540
547
551
550
549
549
548
543
549
544
544
542
528
520
523
527
535
554
560
555
556
554
549
544
541
538
535
538
533
531
530
537
540
539
532
530
530
544
568
570
550
528
509
504
533
551
540
526
517
523
533
541
529
521
513
504
509
521
532
521
511
507
501
496
507
511
504
497
488
488
496
496
486
474
474
475
476
470
475
473
466
462
459
461
462
455
448
447
444
448
451
448
444
441
440
440
431
436
437
439
436
440
436
432
439
446
443
435
434
428
427
428
436
441
445
442
438
438
443
451
455
453
451
448
445
445
445
444
445
442
438
441
447
456
457
448
443
445
442
446
448
449
458
464
456
442
438
440
459
457
454
460
449
461
467
453
448
453
461
476
467
459
460
466
471
471
469
469
468
466
457
450
451
462
478
475
466
462
466
466
467
467
468
470
466
462
451
459
457
455
470
477
465
459
458
467
486
493
483
471
468
462
454
460
467
471
469
466
467
474
480
483
481
477
474
474
479
481
473
467
470
473
473
471
472
478
495
495
477
467
466
478
481
481
476
475
471
470
470
476
477
478
471
467
462
465
482
481
479
479
477
480
473
468
479
509
499
483
498
489
490
489
497
511
513
513
509
506
507
509
511
512
509
505
505
501
499
512
539
546
531
512
516
525
520
515
509
509
517
518
517
525
533
540
548
552
555
556
551
535
531
525
525
523
521
517
510
505
501
498
492
490
476
476
475
470
468
468
464
456
452
457
468
467
449
433
426
436
451
448
443
439
437
433
437
436
434
435
436
445
450
446
448
447
443
443
443
434
430
438
439
449
443
440
443
444
440
436
442
447
444
442
442
440
443
445
442
434
431
427
436
454
442
437
442
449
452
454
448
440
435
431
443
459
460
458
452
452
456
463
476
485
487
485
486
490
490
488
488
521
547
554
566
593
624
636
636
641
646
655
671
694
701
706
692
682
678
672
673
669
647
604
556
507
443
391
359
332
300
277
265
263
247
227
219
234
251
272
286
290
305
321
338
357
370
387
396
403
412
422
432
442
447
442
449
460
465
471
473
482
484
482
494
499
496
485
480
482
485
485
484
491
492
494
493
494
494
496
487
485
490
506
500
499
496
496
494
493
504
507
499
502
506
499
492
480
480
482
496
516
513
506
508
509
505
502
497
491
488
487
494
499
512
516
525
526
513
508
507
509
501
504
511
515
524
533
524
512
506
509
509
514
513
512
512
513
515
513
515
521
520
516
523
533
532
527
525
526
528
524
517
516
511
512
522
534
536
532
533
540
543
542
539
526
527
521
532
536
539
550
550
543
530
524
528
532
534
537
538
542
540
539
540
544
544
530
520
525
543
544
542
540
538
534
531
540
546
548
556
559
554
545
543
543
546
545
542
543
542
543
549
552
546
536
537
533
536
534
533
541
548
562
552
542
533
525
524
533
531
526
528
535
526
524
522
516
521
544
551
541
537
533
540
545
538
525
524
514
510
509
522
541
533
521
512
521
528
517
501
497
507
508
510
508
506
504
492
483
478
478
486
493
477
480
479
473
465
464
469
474
473
462
454
451
444
440
438
439
451
466
463
436
423
423
428
449
440
428
430
429
417
425
446
448
452
461
465
450
438
436
435
439
439
441
440
442
441
438
437
438
438
433
449
447
439
436
444
449
448
449
445
436
432
433
439
457
464
453
451
452
450
443
446
450
450
456
459
449
443
440
441
455
440
440
446
468
466
468
467
467
467
466
467
469
471
467
460
463
466
454
455
461
468
473
476
475
470
473
471
469
466
464
477
496
492
457
436
436
460
480
475
478
477
475
472
468
465
465
473
474
470
460
463
467
469
479
480
478
484
498
497
473
460
464
464
472
471
470
471
468
469
464
464
460
470
469
464
468
475
477
474
473
472
475
476
477
478
472
475
485
490
486
488
497
495
486
477
478
494
503
491
490
492
497
506
510
510
503
507
509
508
503
503
511
523
524
522
524
526
515
510
511
523
536
521
509
506
506
508
523
527
527
541
551
546
542
545
542
532
521
517
522
543
550
544
529
509
505
499
490
484
484
491
485
478
470
466
463
465
463
445
439
445
467
478
473
457
446
446
453
455
446
443
436
429
440
450
448
446
442
440
444
448
446
449
446
444
440
441
437
440
443
444
442
444
442
438
442
447
445
445
446
440
436
438
441
431
433
445
461
456
443
443
445
445
444
443
442
440
443
440
434
430
449
464
449
456
459
453
455
467
482
486
486
488
486
486
491
500
517
536
555
570
582
600
623
639
646
652
660
666
665
681
699
693
703
705
696
697
681
653
608
556
507
446
388
351
332
312
285
269
245
220
201
204
220
237
266
286
303
304
318
332
348
362
380
401
414
417
426
436
444
451
453
459
468
474
476
479
478
472
469
467
468
471
474
478
475
477
475
479
477
486
495
486
494
493
490
483
488
490
498
500
492
482
482
486
493
498
501
502
491
487
490
494
497
493
489
500
508
507
507
505
503
501
502
500
494
496
496
502
506
515
516
514
515
514
514
514
513
516
520
518
521
524
522
518
515
513
509
500
502
509
518
530
528
526
516
512
522
528
520
509
503
508
518
531
520
541
551
531
522
538
536
538
542
538
542
542
542
530
529
531
533
535
532
540
549
540
529
528
530
546
537
533
534
548
549
529
524
534
544
543
547
548
549
550
549
556
559
552
542
541
542
545
544
544
543
547
546
544
544
534
531
531
535
542
544
547
549
546
541
539
532
534
539
543
545
548
545
542
543
537
531
531
530
534
534
537
538
536
534
537
550
557
540
529
525
525
526
525
530
540
543
530
528
529
528
522
514
512
522
539
536
519
510
514
513
504
496
497
495
490
489
495
491
491
496
508
492
488
486
477
470
460
459
462
459
469
473
455
447
468
464
452
452
452
452
450
449
445
438
438
427
416
413
413
413
445
445
435
433
439
440
435
438
441
436
437
438
441
437
436
436
433
428
425
428
433
448
451
442
438
438
439
438
438
439
442
444
446
448
447
440
450
460
458
452
452
451
450
445
443
443
446
453
455
455
459
463
459
453
447
446
448
446
456
467
458
452
452
457
462
463
458
453
456
469
464
466
468
464
465
453
458
473
488
488
476
464
458
470
477
482
473
457
454
449
451
470
463
460
469
476
471
469
464
463
467
473
473
477
477
472
468
468
467
465
464
472
479
478
474
471
469
467
475
473
470
470
472
474
468
468
468
469
465
463
467
478
492
478
468
471
469
464
460
454
454
475
472
471
477
480
482
478
485
488
483
478
475
483
493
496
487
484
488
487
507
515
515
508
500
497
499
510
519
522
522
520
521
524
526
537
530
516
512
506
503
507
501
501
498
503
513
529
540
537
538
553
559
552
549
559
566
544
534
528
526
525
522
515
503
498
497
497
495
486
482
480
484
475
472
463
462
465
464
459
456
455
453
450
454
455
443
441
442
446
444
443
441
440
437
444
446
442
447
446
444
447
449
451
443
430
420
421
444
443
441
443
438
435
448
464
469
456
441
437
440
436
434
435
436
434
436
439
438
439
443
444
443
448
443
434
444
456
447
444
443
444
449
454
467
474
467
472
481
488
484
477
469
477
498
521
530
544
563
579
594
601
615
638
654
660
666
675
681
687
689
691
697
704
693
696
677
635
592
546
503
439
383
351
328
298
272
257
239
222
214
221
231
249
264
279
289
304
320
338
351
365
383
396
404
416
426
438
438
442
448
458
468
477
480
481
488
493
486
477
474
475
464
467
466
477
492
489
469
463
484
495
495
492
488
489
491
497
499
497
495
490
491
479
470
471
479
502
510
509
505
501
502
499
497
512
514
506
511
511
500
481
481
492
516
515
503
511
510
511
518
518
511
510
511
513
518
517
517
517
514
509
506
506
498
501
508
530
541
532
525
522
528
528
526
527
530
530
525
521
516
515
517
521
531
532
526
526
524
524
529
529
528
527
537
551
552
539
533
528
518
523
526
522
538
548
546
546
540
540
544
541
542
541
542
545
545
547
545
532
523
522
528
541
560
561
559
551
548
548
543
541
543
539
541
544
548
541
539
535
528
527
533
552
549
531
525
548
574
561
553
541
540
544
537
536
541
538
525
519
512
508
524
544
539
532
531
539
549
553
548
534
533
537
527
528
532
533
540
535
532
530
529
533
531
523
513
509
519
532
536
527
524
525
515
508
512
518
512
510
511
506
476
476
485
495
491
486
489
487
483
478
479
472
468
471
466
455
455
452
450
449
448
451
460
462
447
445
446
440
438
436
434
438
435
430
429
424
424
429
432
442
442
445
434
424
412
418
434
449
443
443
442
436
439
444
444
441
437
430
421
413
420
441
465
468
460
448
463
460
441
451
459
448
439
454
462
463
459
452
449
451
454
461
455
450
460
465
459
460
452
443
454
447
455
458
468
468
458
451
447
461
466
460
452
458
457
461
464
470
467
461
461
462
466
473
470
471
477
473
470
470
460
456
464
465
465
470
471
466
457
467
480
479
474
479
482
480
480
471
464
461
466
474
470
468
458
455
453
445
443
458
481
484
488
486
479
469
477
484
475
468
471
466
462
459
454
467
474
470
480
485
476
475
471
466
464
460
472
501
485
472
476
480
479
475
464
455
467
489
506
507
496
482
469
467
480
496
505
505
506
508
498
493
495
499
509
504
509
515
515
513
517
519
522
527
519
512
514
510
502
496
501
501
507
522
528
535
540
539
546
536
546
546
544
556
563
556
544
530
515
507
500
496
493
488
485
480
492
490
488
479
472
468
468
466
463
452
462
463
453
444
447
454
445
439
441
444
449
447
446
442
445
442
440
437
435
432
445
467
488
470
448
442
441
451
450
444
439
443
450
444
452
453
449
444
438
436
429
417
408
432
474
464
454
445
436
446
448
447
439
442
446
448
445
447
460
455
453
448
441
439
441
449
453
460
470
471
479
484
489
486
495
496
497
517
534
549
563
575
592
620
637
652
663
669
677
683
687
693
694
691
696
693
691
699
682
641
590
540
487
418
374
354
318
291
268
249
242
232
225
229
251
274
285
298
306
317
323
338
348
371
380
383
395
399
422
440
436
444
451
462
471
473
483
487
485
476
478
484
469
466
467
467
486
489
493
489
494
487
483
478
477
488
488
491
485
480
467
461
470
479
496
511
503
497
501
502
504
505
505
499
491
496
503
505
515
506
502
507
506
504
503
500
500
501
501
503
504
513
514
505
512
508
506
502
498
499
502
512
515
513
517
514
516
509
506
508
520
529
519
513
515
522
525
524
520
523
523
524
521
527
525
523
526
523
523
515
521
523
522
520
518
522
527
529
529
527
523
525
545
537
530
530
543
542
534
522
526
536
548
543
540
537
529
528
544
553
547
534
532
531
538
535
540
545
551
543
529
523
535
542
547
549
542
539
535
533
539
539
543
542
530
525
522
524
543
560
555
549
541
539
543
549
547
550
551
542
526
514
514
520
526
549
553
547
545
547
538
533
538
533
534
532
527
538
541
538
538
540
532
532
527
524
526
524
523
521
515
522
520
520
509
501
489
504
511
499
495
494
497
497
495
491
493
490
483
480
480
478
476
478
474
470
459
448
443
447
461
497
486
457
442
435
442
443
446
451
448
448
446
440
435
438
444
454
452
437
434
433
429
426
433
433
434
433
434
433
431
423
419
420
431
445
448
460
448
442
451
455
446
433
427
426
432
431
430
454
456
457
453
453
453
453
455
461
458
455
452
451
447
446
452
458
467
463
456
455
452
445
459
461
461
456
456
467
473
474
464
460
450
449
461
474
476
471
463
463
470
471
472
468
464
466
471
468
466
464
458
456
452
457
469
479
480
461
451
456
468
483
482
477
474
465
460
458
475
484
477
484
472
463
468
474
475
472
479
482
481
470
470
472
476
468
472
477
482
481
473
467
466
463
467
469
470
464
456
456
468
483
493
491
475
475
477
484
488
490
486
483
472
464
466
493
508
497
491
496
499
491
498
511
510
506
503
510
511
503
502
504
502
505
509
512
528
532
521
511
512
502
500
508
504
497
494
501
510
518
523
522
520
527
547
550
555
555
548
531
528
526
518
526
526
507
485
481
479
475
482
484
476
476
470
466
464
454
463
464
462
458
451
448
442
441
444
458
460
452
442
434
436
436
440
445
450
453
444
438
443
448
447
448
448
444
445
451
450
439
433
444
450
446
443
446
443
442
444
440
439
438
433
429
430
446
457
469
452
449
452
452
448
439
436
435
435
429
440
448
463
465
456
454
461
461
461
465
472
484
488
492
498
487
482
486
501
514
534
552
567
587
616
636
647
649
650
664
677
682
688
699
691
689
683
682
681
661
636
601
557
511
454
403
369
334
294
271
252
260
265
253
244
259
268
263
283
298
309
323
342
348
364
385
389
400
422
438
442
436
432
428
434
451
475
486
484
477
468
466
472
476
476
479
482
481
479
480
478
470
470
481
484
480
476
474
471
474
475
483
486
495
489
485
483
485
488
490
487
491
488
490
491
486
488
490
489
493
494
483
485
504
523
521
516
501
494
495
492
493
488
487
507
501
494
502
501
499
508
516
512
505
506
509
508
510
508
509
509
513
512
506
509
512
513
512
513
510
514
516
511
509
512
511
512
511
508
504
506
502
511
529
546
537
530
522
509
501
493
507
539
560
556
542
537
541
547
544
543
541
538
531
535
532
531
533
534
527
536
542
546
536
537
537
534
541
540
539
538
534
526
531
540
549
550
544
536
533
535
544
536
532
534
536
537
538
552
564
556
547
545
539
542
545
537
536
526
516
533
535
541
547
554
535
525
527
532
531
532
540
535
531
530
531
525
521
528
529
537
528
522
520
525
529
533
534
521
514
519
515
511
504
499
496
492
502
513
502
490
482
495
499
494
489
494
507
499
491
486
488
479
479
469
463
459
462
460
455
459
447
442
451
453
453
457
456
453
449
446
444
439
433
438
445
444
435
435
421
417
428
441
445
432
435
444
443
437
436
432
440
445
446
439
430
427
419
417
421
432
441
444
448
446
445
439
436
433
431
446
452
453
454
455
451
450
445
441
449
450
446
454
455
453
448
447
452
455
450
450
453
454
451
450
449
449
443
442
443
456
471
483
480
475
463
465
479
483
476
474
476
473
468
465
462
459
459
463
467
460
458
460
462
482
483
482
466
452
456
485
484
481
486
481
468
469
473
471
469
467
462
473
480
480
476
474
470
472
482
480
471
464
466
475
475
469
467
471
480
480
472
468
466
467
474
476
474
469
467
479
479
482
480
478
474
476
477
482
483
482
490
497
488
488
488
493
496
497
491
485
495
505
511
520
524
517
515
517
521
521
517
518
516
517
513
513
509
513
512
508
499
497
505
517
533
532
538
541
554
555
552
535
528
537
542
533
527
519
510
508
510
506
497
489
482
474
475
479
477
465
477
487
475
454
446
442
445
468
462
457
451
448
452
446
436
436
434
440
445
439
441
434
429
447
450
449
449
452
453
449
446
444
440
441
440
441
442
430
433
453
449
440
434
430
428
434
437
440
447
451
450
448
440
444
447
442
443
441
443
433
432
434
439
440
439
439
439
443
443
455
463
461
463
478
485
479
476
475
465
471
497
511
532
548
563
572
585
600
614
627
640
658
677
687
698
701
704
710
721
725
714
704
691
664
628
585
543
491
429
383
360
330
304
291
277
256
233
229
253
265
271
273
288
305
321
334
345
358
362
389
406
411
413
418
420
432
446
454
456
457
468
470
466
467
471
469
466
469
466
472
482
487
486
476
469
475
475
477
477
466
471
488
479
485
492
483
482
490
493
487
477
484
484
480
478
486
487
482
480
483
487
485
493
495
497
502
507
510
504
504
507
506
504
507
502
495
496
500
503
500
491
491
505
516
519
518
516
515
527
529
517
504
501
494
503
521
521
532
543
531
512
509
511
529
541
532
515
511
511
515
526
537
516
508
523
526
521
517
522
532
533
527
525
522
528
532
539
542
541
539
544
541
538
534
531
525
526
539
547
552
546
540
535
528
537
547
547
549
547
538
538
536
540
550
545
537
537
534
539
538
532
528
531
539
555
568
561
550
538
543
549
542
539
532
531
533
534
533
547
555
542
530
526
524
527
537
546
551
547
545
540
541
544
545
539
536
531
533
535
529
523
521
516
529
546
545
545
543
536
534
530
529
530
539
534
518
498
481
472
493
512
543
534
508
502
497
490
485
481
484
489
484
484
484
480
476
478
480
476
470
467
456
444
444
443
450
457
456
454
451
448
442
445
443
435
435
434
432
435
430
428
421
420
431
438
438
438
443
439
427
445
459
456
455
444
435
433
433
431
427
426
419
432
441
440
446
445
443
446
452
457
453
454
451
445
443
449
456
453
444
437
438
438
450
464
459
447
446
447
457
466
466
458
452
453
457
456
456
459
458
453
444
448
454
451
448
448
441
457
466
469
483
489
477
475
472
469
462
466
470
462
458
459
463
470
469
467
464
459
468
482
486
472
470
465
465
465
469
467
458
462
471
479
473
469
474
476
471
470
472
471
468
474
480
480
477
472
469
471
461
463
462
470
471
470
467
468
477
471
475
472
466
469
471
469
472
474
469
475
474
467
465
470
472
479
479
481
492
504
501
480
467
471
478
485
487
488
486
487
482
488
492
499
498
495
502
517
512
505
511
515
519
522
525
522
518
518
513
509
500
507
523
513
503
495
491
496
499
519
529
533
540
550
556
547
544
545
541
537
536
532
528
520
516
520
512
498
493
488
483
483
481
474
465
453
444
433
444
452
460
472
477
458
452
447
442
437
442
437
444
451
454
452
446
444
442
443
442
445
444
447
449
452
448
441
444
452
458
452
455
446
439
437
432
438
455
458
439
436
437
437
440
441
439
438
443
444
438
436
441
442
446
452
450
440
442
449
449
445
442
443
445
451
446
444
458
466
464
467
478
481
478
475
473
481
511
508
515
531
545
561
598
626
643
650
655
661
672
677
686
697
700
700
700
696
697
701
692
660
613
563
518
460
412
384
352
318
293
280
275
251
227
216
226
243
285
305
296
296
307
327
363
378
386
397
412
427
435
433
441
451
451
453
474
486
479
464
460
460
460
464
463
466
469
478
481
470
462
463
470
478
481
482
484
480
477
476
472
477
483
483
487
492
490
490
495
506
502
494
490
490
489
493
495
493
493
497
502
508
504
501
499
499
500
503
505
503
501
498
501
505
514
506
500
495
485
488
504
523
521
516
520
521
518
519
523
522
523
518
515
515
513
506
502
504
512
518
524
525
522
519
521
524
523
520
523
528
529
525
536
532
524
523
526
526
528
531
533
533
530
539
536
527
523
537
556
535
532
533
526
514
510
515
516
543
543
547
542
533
521
516
531
540
558
563
565
555
547
541
549
553
555
548
545
544
540
540
544
552
540
533
536
535
532
537
540
541
540
538
534
536
539
540
541
539
536
535
535
539
536
535
541
547
545
540
537
537
536
537
538
528
521
511
512
528
522
540
549
550
560
549
538
528
525
523
523
526
536
531
523
517
516
520
515
511
511
511
506
503
503
505
499
487
491
481
476
473
485
503
500
475
469
470
466
456
451
457
457
457
455
452
448
443
442
454
452
444
438
434
439
443
447
450
436
432
438
449
447
433
426
433
434
428
429
430
434
435
437
439
438
434
431
430
434
433
433
430
430
435
453
449
447
447
445
445
442
446
442
441
446
449
454
448
457
459
458
459
461
461
452
441
432
435
446
463
466
473
468
453
457
453
450
444
447
467
463
455
452
456
460
458
462
461
462
462
457
464
464
460
462
467
476
482
473
469
464
463
459
475
475
472
466
462
463
464
468
467
460
454
446
471
486
482
476
468
469
478
489
470
449
447
452
472
475
461
468
480
483
477
474
476
482
477
474
475
469
460
456
467
470
469
473
477
475
465
470
480
483
479
477
472
467
471
462
457
463
465
465
470
470
476
482
486
491
489
487
483
487
488
492
492
481
479
475
467
477
519
529
516
508
505
507
508
513
513
510
510
504
499
508
526
541
531
529
524
517
512
510
506
493
495
507
512
529
547
558
562
554
551
553
549
548
545
539
532
527
522
516
515
509
504
498
495
490
482
476
477
477
479
482
477
467
454
450
450
449
449
455
454
451
453
458
458
448
440
427
402
418
458
456
442
446
448
454
456
452
446
440
438
436
436
445
450
461
457
452
447
448
449
448
448
451
445
441
438
437
436
437
442
448
445
441
444
443
439
443
448
455
454
452
454
452
439
432
435
452
454
451
461
470
464
453
451
453
477
493
486
485
487
497
488
489
515
536
553
570
585
600
621
643
656
666
678
683
690
702
708
706
705
698
694
692
689
664
610
550
506
454
398
362
338
308
289
280
270
250
228
221
232
243
256
263
276
300
328
352
361
369
378
402
416
422
431
435
436
437
444
447
452
455
454
459
486
489
483
482
478
476
478
479
479
480
478
478
484
474
471
487
509
509
498
482
479
475
472
471
475
492
500
496
494
495
498
499
503
502
500
505
504
499
504
507
502
494
492
493
497
498
512
525
518
509
496
493
497
498
501
514
523
524
520
512
491
489
490
498
511
516
505
504
508
503
507
509
502
514
530
526
526
521
517
522
524
520
513
509
517
525
527
529
526
526
515
512
519
519
519
534
542
540
536
535
533
529
525
524
526
531
536
536
533
538
539
545
542
532
531
532
534
527
531
538
547
561
566
548
530
520
522
524
525
552
559
552
550
540
539
540
546
545
546
544
542
537
532
534
538
534
538
539
536
534
535
538
538
533
553
560
540
532
534
541
544
541
535
534
534
533
534
535
537
536
541
538
541
538
536
537
535
534
532
535
532
518
507
507
525
540
537
533
535
530
525
521
521
522
519
515
516
515
514
516
517
511
509
502
486
476
495
490
485
475
479
497
484
476
485
482
476
482
477
462
454
454
454
457
457
445
444
451
449
446
444
443
443
443
446
446
443
433
438
441
442
438
437
444
447
445
438
438
430
421
426
424
437
452
450
449
447
447
451
449
445
448
447
449
448
443
439
440
440
441
443
445
448
447
449
454
455
450
443
437
437
454
457
454
455
456
460
456
456
454
454
452
451
450
458
474
467
469
477
480
476
464
459
461
477
480
470
462
459
462
467
468
463
463
467
475
479
475
470
463
466
478
481
473
470
478
477
466
457
458
452
461
473
483
485
476
475
478
481
481
484
478
471
469
471
472
478
475
469
470
472
471
470
474
480
480
478
472
472
472
468
468
482
480
468
464
470
470
473
486
485
487
485
492
495
494
489
481
476
476
498
497
494
498
501
501
497
502
509
519
523
513
509
508
512
516
528
533
535
532
530
524
517
508
504
503
502
495
494
489
500
529
542
548
554
558
552
543
544
545
551
535
531
525
522
521
519
511
487
490
496
514
504
488
483
481
476
472
463
463
471
472
465
455
452
450
443
442
443
447
453
450
441
436
437
435
446
454
447
440
446
448
442
437
435
436
445
446
442
440
442
443
445
443
441
442
434
425
432
444
452
452
446
455
459
457
445
438
438
442
440
435
443
461
464
459
453
437
431
430
427
429
448
453
451
466
469
472
469
470
476
468
458
465
463
455
481
518
543
548
560
574
586
592
604
620
636
646
644
643
644
656
672
690
720
724
724
715
704
679
642
597
547
495
423
365
338
327
315
293
280
266
240
230
240
242
259
277
284
299
318
331
343
355
367
383
400
413
424
435
444
444
442
446
456
464
479
485
486
483
480
470
465
463
471
480
483
476
471
474
480
484
483
481
484
492
496
500
496
495
491
489
477
477
476
478
489
503
499
494
496
495
498
500
492
487
481
472
474
478
514
526
524
517
506
512
511
510
511
515
516
506
502
512
512
519
517
509
508
511
513
516
514
513
514
518
532
532
521
521
510
511
512
507
504
509
527
531
529
529
519
514
514
519
516
524
538
534
528
519
521
528
528
532
528
526
529
529
531
533
532
529
534
536
530
528
531
538
529
524
533
545
556
553
547
549
551
558
561
554
544
542
546
540
534
540
545
543
538
536
538
541
544
540
541
550
544
526
517
524
536
549
552
549
548
545
541
539
534
533
536
548
555
552
553
546
538
528
525
526
525
531
550
547
543
537
537
548
543
531
524
536
526
518
532
545
538
533
535
540
543
541
537
530
524
524
526
530
530
521
507
519
521
524
520
503
501
496
502
498
496
507
512
495
485
483
492
494
482
468
463
461
465
484
488
484
480
471
467
460
457
454
455
453
452
449
443
439
427
431
433
442
439
434
442
455
460
456
452
453
449
448
441
425
415
423
430
439
447
447
441
439
436
436
437
444
451
447
445
445
440
436
435
433
432
433
439
451
446
436
439
446
453
454
454
452
447
435
424
419
463
471
471
465
454
453
455
462
463
463
464
468
464
467
475
477
476
463
456
471
475
467
465
465
461
464
467
468
467
456
453
456
457
457
454
461
462
456
462
471
482
477
464
459
460
478
479
481
500
497
474
465
465
467
472
479
480
478
478
480
478
476
473
471
480
490
482
468
463
464
472
479
477
474
475
480
480
482
486
488
479
463
459
464
476
492
501
503
497
490
491
493
489
493
493
503
521
518
510
517
522
517
510
510
523
535
539
522
515
518
520
518
513
512
507
509
508
509
519
524
534
545
546
537
537
536
530
532
532
533
531
531
529
528
524
524
508
500
501
488
491
483
479
482
481
472
465
459
453
453
457
458
454
451
448
442
437
441
458
451
443
436
436
435
454
463
450
437
435
429
423
419
416
430
443
455
459
447
445
443
444
441
438
431
427
431
432
430
425
421
424
443
450
453
451
448
443
442
447
446
445
445
449
444
433
429
439
440
433
434
438
442
445
440
442
447
444
451
474
477
485
498
497
491
486
482
491
508
522
537
560
578
598
619
639
650
651
653
668
694
704
698
691
685
682
681
677
667
638
594
542
484
423
376
354
328
293
266
256
251
250
243
236
233
237
249
269
290
303
321
337
354
371
389
404
412
420
429
439
440
445
450
463
478
471
472
474
488
482
459
447
445
471
493
492
492
486
487
481
480
480
479
477
476
485
492
490
481
482
489
489
492
488
485
489
494
501
503
497
485
481
485
494
502
508
512
509
489
485
482
487
505
513
512
507
507
509
504
507
509
510
506
509
506
504
506
519
526
516
503
503
505
510
517
527
527
517
513
515
511
510
505
509
518
518
515
515
522
527
527
523
524
526
526
527
528
520
515
521
522
522
524
525
522
521
526
529
531
534
537
542
539
515
494
495
519
545
566
545
545
544
532
519
519
521
534
540
538
535
533
547
545
543
553
550
541
534
534
536
541
545
544
542
539
540
540
537
540
535
538
538
543
552
557
558
557
549
538
535
537
533
528
528
527
527
530
541
546
531
525
525
528
534
538
535
536
535
535
535
530
528
538
562
553
530
522
525
526
527
526
519
522
525
526
524
521
519
514
512
511
509
517
527
525
515
513
511
510
508
505
495
496
504
505
497
479
467
464
476
491
475
463
452
449
448
446
448
457
447
457
460
456
449
445
451
455
452
438
424
439
446
452
451
440
433
430
426
429
435
438
439
438
440
444
445
444
442
440
439
440
443
441
438
438
442
443
442
445
438
438
441
439
441
439
437
438
437
447
458
453
447
451
456
458
459
458
441
451
463
447
438
452
463
460
456
453
458
458
456
455
455
463
466
460
457
456
455
459
457
455
451
449
459
475
474
470
473
472
473
473
469
467
472
492
479
462
458
466
473
470
467
463
461
459
456
459
453
472
496
489
482
476
475
472
474
478
472
468
469
473
472
468
467
469
473
472
479
480
478
476
472
468
471
469
475
477
473
475
476
476
479
483
492
488
489
488
488
497
497
489
484
478
480
478
493
533
541
503
486
488
493
512
513
525
528
526
525
525
534
534
518
509
522
531
520
512
502
496
495
500
507
517
528
531
535
539
559
571
563
557
545
532
525
516
510
511
519
526
506
491
484
487
488
487
475
475
478
479
474
471
463
455
449
440
436
449
449
444
447
450
446
446
441
443
444
439
433
433
429
431
447
451
448
445
442
440
445
438
439
439
440
442
445
451
451
442
437
439
440
441
434
439
442
440
446
442
433
437
434
421
424
439
456
448
443
438
428
433
446
459
449
447
449
443
445
454
445
445
450
454
461
470
474
483
483
472
475
474
474
488
505
542
592
595
612
632
647
646
652
659
664
676
683
685
689
697
695
699
694
680
644
591
542
502
439
379
345
321
291
270
260
245
216
193
195
210
234
274
295
303
315
331
339
349
363
364
383
397
429
438
437
441
446
453
449
451
469
479
496
499
478
466
466
468
472
479
475
473
473
473
480
487
492
490
479
481
498
498
489
487
489
486
483
486
489
494
493
492
499
499
482
482
494
500
494
499
513
519
515
512
507
505
506
508
503
503
508
510
509
505
502
508
510
505
509
509
506
502
501
510
521
511
514
517
525
522
515
529
534
525
517
518
516
514
510
509
510
508
504
527
535
534
532
535
537
532
531
526
522
522
523
529
535
522
531
535
540
548
538
526
526
536
546
544
539
531
523
519
537
546
538
539
543
554
551
547
550
550
545
543
548
551
551
542
537
539
543
554
560
549
531
521
530
541
549
545
549
551
539
542
543
541
544
542
539
536
538
538
537
528
526
537
554
548
534
534
542
550
545
543
542
543
547
550
540
525
522
527
535
547
535
530
540
541
541
538
536
538
536
537
536
527
522
532
544
535
529
527
528
529
528
524
517
511
510
520
530
529
525
523
511
504
504
501
498
496
487
479
469
480
495
491
484
483
480
485
485
484
479
471
465
462
460
456
452
448
445
442
446
438
429
426
429
453
467
455
441
448
445
436
429
428
437
449
445
441
444
441
444
447
441
442
443
444
442
440
441
446
446
447
447
445
450
453
443
443
442
448
445
446
447
451
451
452
457
459
460
460
449
441
442
451
454
447
451
466
467
460
451
452
447
446
442
441
455
466
462
466
469
468
465
464
468
475
473
467
463
463
468
471
474
462
460
465
466
468
472
483
475
469
464
464
466
469
472
475
471
465
464
461
457
458
469
462
461
472
471
470
479
479
479
476
474
474
477
478
472
464
457
437
451
480
491
487
475
463
458
462
469
487
493
487
476
472
468
465
464
463
461
458
464
468
471
468
467
474
479
475
465
467
478
485
479
473
483
483
485
487
495
497
506
511
505
499
505
508
505
506
503
503
506
517
522
518
515
507
500
504
518
524
528
523
519
515
516
516
517
516
514
521
532
537
542
544
547
552
559
559
546
532
520
521
536
529
521
518
510
500
495
496
493
488
486
480
473
465
472
474
471
464
458
451
443
446
445
440
436
432
444
452
452
452
449
448
442
433
435
436
436
434
436
431
431
432
437
446
452
449
445
443
433
441
454
434
429
437
466
467
447
447
446
434
430
425
428
443
466
464
442
429
427
432
435
436
430
438
442
441
445
445
439
428
430
438
444
445
450
465
465
468
479
488
491
489
481
473
479
489
510
526
546
554
563
574
608
645
673
668
672
681
684
684
687
693
693
691
690
694
686
667
626
574
529
475
423
381
345
313
283
275
261
244
218
208
215
234
240
258
277
288
307
322
340
359
370
382
406
420
413
406
414
446
464
469
471
481
484
479
478
477
472
472
474
477
476
477
482
491
491
497
499
496
486
474
467
466
479
485
497
494
486
477
474
486
508
504
503
505
504
507
500
505
507
502
484
480
482
502
520
517
496
486
494
494
499
499
497
496
498
501
516
527
521
518
512
505
503
510
507
498
497
505
507
506
505
510
527
538
537
526
511
508
497
521
531
536
534
530
523
522
527
526
517
514
523
528
527
525
524
533
537
534
528
535
530
514
512
515
527
532
538
543
545
544
538
538
545
551
546
537
532
525
536
541
538
545
555
551
540
518
511
518
530
545
542
532
531
537
542
559
549
543
552
548
548
552
553
542
534
531
537
548
544
541
544
553
549
542
533
534
534
538
536
540
540
530
529
544
549
531
528
539
543
544
547
545
541
541
541
539
535
541
534
527
