521
514
519
514
516
519
526
520
526
535
521
528
527
512
528
554
552
542
532
509
506
516
520
528
512
511
539
548
549
529
521
548
577
575
535
502
531
544
537
540
534
536
549
559
537
523
532
534
526
539
540
543
559
556
558
557
549
556
557
542
534
552
562
566
552
540
527
539
554
554
560
571
580
579
548
535
535
536
546
555
551
546
554
550
546
540
541
562
552
541
547
548
577
586
568
534
529
531
533
530
530
524
533
560
545
534
542
553
575
594
546
516
509
520
526
535
524
504
515
536
539
512
498
493
512
532
532
524
524
500
474
472
473
495
497
486
479
476
466
468
470
468
462
475
490
489
478
459
442
447
458
471
474
469
427
400
419
434
436
436
427
424
434
439
437
431
414
428
448
447
447
439
430
433
446
437
429
443
437
457
464
449
420
403
413
431
441
452
446
441
440
450
445
451
449
431
409
405
426
463
468
456
422
400
407
443
488
486
458
436
437
445
448
442
446
467
482
488
473
463
448
440
446
437
439
467
480
456
454
444
451
448
453
455
458
468
467
472
483
482
455
432
443
457
451
424
447
479
485
483
481
472
469
468
466
456
448
468
481
470
454
454
466
459
457
459
472
474
480
469
473
488
483
484
465
452
458
450
445
463
486
490
491
471
475
455
463
475
490
508
515
509
474
460
466
455
450
450
454
461
473
475
476
475
471
466
451
428
430
444
456
461
451
443
471
501
507
510
519
493
470
456
455
455
455
455
452
451
457
468
492
492
484
472
459
461
447
440
461
488
492
492
485
478
478
487
483
487
475
475
496
500
507
512
505
514
509
509
508
490
481
503
518
515
517
521
528
532
540
545
520
509
516
523
521
521
532
520
518
533
545
553
557
551
552
558
574
551
496
492
507
540
552
520
491
481
495
510
483
454
459
470
477
482
473
460
449
452
464
478
474
463
461
470
488
475
451
447
440
419
413
431
440
443
451
443
434
427
425
428
437
443
447
442
434
431
436
450
451
450
430
416
429
450
452
449
446
447
459
461
445
437
438
434
436
433
441
458
457
453
444
443
444
448
451
447
445
447
450
448
447
448
451
456
457
455
455
460
466
470
473
479
489
505
517
495
468
476
514
548
553
563
578
589
605
620
636
644
650
657
660
670
675
684
689
690
671
663
659
635
605
573
542
494
431
390
349
296
262
252
256
274
247
219
221
239
255
282
304
302
304
317
345
343
357
375
404
416
406
438
451
459
464
444
444
455
459
457
465
482
501
497
481
459
448
448
471
492
505
512
506
492
457
438
454
487
515
525
516
496
486
487
490
477
471
478
487
484
500
483
496
512
505
507
510
508
505
503
513
493
488
496
502
505
517
519
523
510
509
512
512
502
502
510
517
507
488
490
505
520
529
533
517
505
498
496
515
533
536
525
519
516
521
523
513
517
529
522
519
522
520
517
519
527
529
524
523
525
524
521
521
530
539
550
556
550
548
544
540
525
530
539
532
536
540
536
526
522
539
548
531
528
538
540
550
552
544
549
558
559
555
547
544
554
557
546
537
533
531
540
552
552
554
554
549
534
522
511
512
544
576
575
577
564
557
553
554
556
555
555
557
552
545
552
555
554
551
549
544
539
545
562
569
553
534
539
551
565
572
553
534
530
536
532
541
543
540
550
557
558
555
541
523
517
520
525
525
537
534
515
505
511
529
527
506
486
486
504
529
517
503
497
493
487
494
498
503
500
516
501
466
462
468
472
466
460
449
473
475
477
465
457
471
449
429
423
403
402
442
464
438
420
426
431
435
443
443
438
439
440
439
434
428
422
416
428
438
424
406
410
429
449
433
433
427
431
447
446
440
454
455
439
417
418
425
425
427
427
426
432
437
435
435
437
453
476
473
477
458
418
415
432
418
426
443
454
456
461
462
444
433
411
420
454
460
461
467
461
460
442
447
467
480
476
469
463
457
461
465
472
461
455
455
450
431
449
463
476
477
463
458
460
466
468
471
473
472
464
445
437
454
474
479
494
492
463
451
436
424
425
454
483
500
520
521
499
473
466
464
466
465
473
486
474
463
461
462
463
471
469
455
447
463
481
481
487
488
484
475
477
482
473
470
466
454
455
469
484
488
484
476
473
473
466
460
477
498
505
509
468
445
440
445
451
449
462
471
474
478
495
498
469
466
481
486
481
470
452
460
454
450
449
457
457
458
451
447
464
479
474
474
472
464
463
475
483
488
487
468
446
452
466
472
480
483
483
468
473
490
498
490
477
447
446
469
467
472
508
515
520
497
487
488
488
489
495
528
536
532
541
507
500
511
514
510
508
506
500
501
514
529
530
524
517
507
493
497
524
526
527
533
541
526
530
542
541
543
540
529
545
563
574
561
534
524
508
497
487
479
472
486
521
524
496
482
466
467
459
444
435
450
460
467
468
449
453
439
436
434
436
447
469
476
438
404
396
442
480
478
466
451
431
432
436
451
490
491
456
444
446
445
446
456
464
452
439
429
422
440
463
470
454
447
448
448
461
476
507
486
444
423
433
448
449
431
418
444
451
450
443
448
458
458
449
452
455
460
463
467
472
478
487
494
499
498
487
483
484
499
520
548
591
594
585
596
607
614
624
650
674
680
688
684
670
660
650
648
650
655
644
609
555
507
485
420
363
328
307
285
268
251
231
219
230
246
235
244
255
268
287
303
318
336
356
373
390
402
419
434
442
441
449
460
470
478
468
475
488
496
495
483
499
509
492
467
459
472
494
504
496
480
474
478
488
499
506
511
506
501
492
480
474
479
494
498
499
505
518
525
509
485
490
496
504
515
520
518
532
534
506
503
479
478
518
516
498
508
513
509
513
505
492
497
520
530
541
529
524
520
518
525
537
534
515
488
489
505
509
514
516
515
511
508
508
513
517
519
516
513
517
525
519
518
519
520
522
518
517
516
515
526
543
530
524
522
530
537
542
535
517
506
508
523
540
548
552
549
543
541
538
538
545
544
547
548
544
539
538
548
538
543
545
544
543
546
546
543
542
546
551
553
555
552
545
537
548
557
564
564
556
551
549
552
556
553
550
558
581
605
605
588
556
532
534
529
529
534
530
535
549
534
507
523
545
562
571
571
554
552
561
564
558
571
559
525
510
515
549
549
551
525
525
548
537
544
546
543
521
517
535
500
492
512
526
527
527
504
486
486
489
504
490
483
503
512
517
509
494
488
482
468
475
507
526
501
464
456
452
455
457
464
465
458
441
436
450
457
457
452
450
448
454
458
441
435
446
435
428
432
434
433
429
416
413
420
431
436
429
431
441
447
440
423
412
425
454
450
435
421
423
434
436
432
424
432
438
434
436
438
445
452
472
477
490
495
454
402
407
432
446
462
461
456
442
416
421
441
465
464
454
464
428
422
447
445
446
458
472
470
436
439
453
455
466
440
429
430
443
464
464
453
458
465
471
466
471
466
460
469
463
470
475
479
472
469
456
455
466
473
472
463
466
475
475
457
457
465
466
470
475
477
477
474
466
467
472
492
484
463
460
466
456
454
450
461
476
483
480
467
464
462
463
462
465
466
473
471
458
458
476
466
471
474
472
464
471
478
473
469
472
477
461
443
460
490
497
478
462
461
467
469
469
469
475
471
472
474
467
463
458
468
496
506
520
530
516
513
508
491
479
471
475
484
488
487
493
501
501
510
507
511
507
522
521
514
511
505
502
510
510
496
517
500
506
487
493
493
501
504
510
522
535
542
537
549
559
554
535
518
513
518
534
536
524
496
492
489
482
471
476
477
478
477
473
476
475
473
470
463
467
467
462
467
462
449
446
452
457
453
449
447
448
452
453
444
435
450
457
456
444
426
429
452
461
458
451
452
455
465
460
452
446
439
441
448
454
439
436
444
452
467
470
462
441
441
451
459
456
438
430
426
437
451
462
456
432
426
442
478
489
466
462
454
439
447
451
458
465
459
449
459
476
489
499
509
516
526
498
486
494
506
528
550
570
575
579
590
604
634
632
641
655
659
648
642
634
623
612
601
602
602
579
543
486
448
411
367
333
312
293
274
267
267
257
244
239
258
253
267
288
301
312
332
353
374
392
401
405
398
396
413
447
461
467
470
473
475
479
482
485
489
492
498
496
484
479
479
476
478
483
494
504
509
517
518
499
490
497
477
476
481
491
500
502
503
514
525
534
515
507
497
495
499
496
498
505
511
500
492
502
511
515
527
540
547
528
491
481
496
506
498
493
513
507
502
496
497
504
508
515
522
529
530
531
527
521
508
521
520
511
517
519
516
516
523
535
531
534
529
527
515
527
515
518
522
526
523
523
525
520
523
530
530
535
534
535
524
509
511
525
534
529
533
539
542
541
539
534
530
527
535
543
548
551
551
549
550
550
552
554
558
555
558
569
579
586
571
537
536
535
547
568
579
584
590
582
561
542
542
547
552
556
561
564
569
580
567
557
540
539
545
553
561
571
577
570
556
560
559
561
544
543
547
546
550
551
549
551
550
548
546
548
549
551
546
544
546
553
563
555
546
540
545
548
552
559
549
527
519
522
521
525
536
529
515
504
504
510
515
521
522
521
515
493
491
488
487
484
481
479
484
488
487
469
452
461
479
478
467
467
466
465
461
455
450
454
455
455
456
453
443
444
448
452
450
453
452
437
441
444
435
421
426
434
447
458
452
444
453
439
433
442
437
424
424
433
435
436
440
438
437
437
437
439
440
442
442
442
437
438
443
450
454
462
469
473
480
446
449
455
437
431
445
452
453
452
451
456
462
461
462
466
461
453
469
495
494
450
430
441
468
480
491
460
433
441
465
471
472
471
471
481
483
483
473
462
467
455
467
478
477
468
470
468
468
468
468
470
468
475
493
513
509
468
458
455
473
485
487
466
465
467
466
450
451
446
431
412
404
405
407
402
396
395
399
380
375
360
353
359
362
360
344
338
329
332
337
341
339
329
318
320
333
325
324
330
340
338
319
301
314
316
318
323
323
316
320
327
335
340
326
323
326
317
319
345
362
351
325
334
347
341
354
370
384
392
386
384
386
390
396
404
410
422
409
405
404
407
423
428
424
433
417
414
412
434
461
452
456
456
451
450
454
468
462
455
464
490
496
485
473
444
412
401
418
440
460
475
507
508
499
503
494
480
485
492
495
524
537
504
472
462
461
457
454
455
458
454
448
440
432
433
433
425
416
409
399
408
435
459
453
433
427
430
416
407
426
433
431
428
405
398
407
403
414
413
417
420
417
428
435
436
433
432
440
439
435
418
404
404
416
420
418
413
404
419
434
445
463
457
466
459
454
454
446
434
439
434
430
427
421
419
424
432
448
464
475
466
449
434
430
436
447
456
471
481
473
474
477
483
505
490
460
461
486
536
548
558
556
552
569
593
638
669
650
646
642
622
624
643
649
646
648
648
635
615
587
549
503
460
412
352
298
283
300
292
279
256
225
221
225
241
262
269
277
285
282
293
314
344
370
368
368
385
415
438
437
411
384
385
398
416
425
427
430
419
411
417
429
436
441
445
423
425
403
412
432
454
462
449
434
419
426
426
421
417
423
443
442
429
430
434
432
435
452
444
424
410

4
476
479
479
487
495
501
509
506
494
505
4983489
495
497
493
487
489
493
473
483
477
482
492
505
509
514
516
513
515
511
504
497
498
503
501
509
514
511
526
531
513
501
491
494
497
502
496
498
514
533
526
524
529
515
512
517
512
514
521
521
517
513
509
510
510
513
525
525
529
538
535
533
534
536
529
529
520
528
545
553
544
539
518
524
518
519
520
528
534
528
521
523
517
525
557
571
546
518
508
547
592
589
569
537
528
560
584
566
545
532
531
529
537
539
540
544
548
552
551
553
555
552
555
549
559
551
544
546
557
572
555
553
557
553
568
576
584
566
544
537
537
549
555
557
563
568
569
557
564
568
563
550
553
563
559
543
537
537
559
574
581
566
546
539
545
545
537
535
530
536
542
544
543
543
544
547
551
541
526
519
520
535
528
501
504
521
533
534
529
529
521
501
490
502
515
513
505
497
486
487
493
478
469
471
471
472
480
488
488
479
435
440
474
482
478
440
412
418
435
446
459
459
456
434
444
452
423
421
446
464
467
443
412
416
419
432
439
426
422
421
427
438
435
436
431
435
453
449
436
435
432
431
429
419
420
431
445
456
454
446
443
442
441
443
457
457
456
453
447
452
454
448
448
455
455
461
467
479
462
428
425
451
462
465
466
445
445
456
468
465
460
449
450
456
469
478
480
475
476
479
470
459
447
448
466
471
459
450
460
472
472
464
456
454
459
469
473
484
486
477
465
460
466
478
499
513
510
469
434
433
457
462
455
457
470
463
463
475
484
471
482
480
480
487
498
489
473
479
488
503
514
505
511
501
478
474
496
504
494
492
496
497
514
521
519
536
536
541
552
512
496
507
490
472
497
526
533
529
533
534
507
492
490
492
502
523
535
540
541
527
528
533
535
537
532
526
513
498
500
506
522
520
518
525
521
515
504
491
481
468
465
465
475
469
474
486
463
445
439
432
453
457
453
458
469
466
477
447
429
437
454
436
447
448
442
438
431
418
429
459
461
438
450
473
478
445
433
451
457
452
435
428
430
442
438
441
450
437
433
437
430
427
435
448
453
446
437
444
452
453
447
437
433
441
451
468
475
465
453
436
413
417
432
444
452
467
478
482
506
498
489
501
487
470
475
498
523
542
547
542
556
574
596
622
652
666
665
654
659
655
660
657
656
659
650
643
646
615
578
550
501
448
405
374
352
302
254
259
273
270
274
264
250
248
244
252
253
267
308
344
373
387
366
354
365
392
414
414
429
445
452
462
462
479
486
497
505
495
490
486
474
467
465
475
483
479
480
495
487
480
497
507
488
471
472
483
490
496
492
477
478
463
468
486
490
485
486
489
493
500
506
509
525
544
504
463
471
492
486
490
497
506
526
528
498
486
485
501
502
494
489
504
512
513
506
507
517
511
505
510
519
518
513
506
513
526
533
525
514
508
488
497
516
529
531
502
475
493
504
509
515
515
514
513
523
529
532
548
562
556
544
545
535
520
517
536
551
534
506
500
519
547
564
556
549
548
537
535
538
547
564
559
543
519
531
545
543
531
543
553
554
547
540
531
542
554
554
550
547
548
551
568
589
594
587
560
537
538
546
552
555
557
571
558
558
542
554
568
558
558
559
558
567
580
573
563
538
534
524
521
526
531
542
552
563
563
551
549
549
548
551
538
520
525
544
556
572
574
572
559
512
503
514
515
512
521
526
531
527
524
519
505
501
499
505
516
533
529
523
523
494
471
468
479
488
487
478
462
450
457
468
475
470
462
466
461
457
451
448
450
454
442
423
415
425
435
450
466
446
430
424
444
452
440
434
441
449
449
434
411
408
416
439
447
434
442
431
420
417
418
431
444
446
432
404
393
431
451
449
457
441
441
452
456
463
442
417
418
435
459
456
449
454
450
438
442
463
459
439
440
455
461
445
441
441
448
452
434
428
450
468
459
447
446
451
470
486
465
450
451
443
454
449
457
466
463
454
471
494
479
458
450
465
473
463
446
439
458
467
468
459
451
457
468
476
486
472
455
459
473
492
472
457
456
460
462
465
464
471
475
475
471
463
462
469
463
468
473
473
470
476
476
481
469
462
468
481
491
479
471
474
480
492
506
522
512
462
440
454
478
488
501
514
508
492
506
501
499
502
501
517
528
534
538
538
537
498
498
504
530
517
518
512
505
507
513
500
495
497
501
527
529
533
539
541
560
550
542
530
516
512
499
492
505
518
519
501
487
487
479
479
484
495
498
491
468
447
451
474
482
466
455
456
453
439
437
443
444
444
443
443
440
439
439
438
438
438
437
439
437
433
435
435
437
433
428
434
448
472
468
439
424
429
437
443
460
462
438
431
440
444
449
452
448
424
415
428
446
446
435
431
430
436
435
450
462
462
464
439
427
434
445
454
434
432
433
445
440
443
462
463
457
457
481
485
498
496
486
482
499
528
540
568
576
542
539
579
596
620
632
632
646
653
663
682
680
676
688
678
665
685
654
606
547
503
457
397
359
339
321
298
284
268
248
234
223
229
248
257
265
276
287
301
327
343
371
380
359
365
392
413
427
439
443
448
455
462
461
463
472
476
471
472
481
481
474
474
484
494
491
485
491
484
467
460
470
489
487
477
471
476
488
505
512
498
482
480
486
485
483
484
482
500
527
517
531
529
492
474
483
484
492
506
517
529
551
549
542
512
486
475
469
480
505
509
495
490
498
500
500
508
513
509
505
508
513
510
503
519
527
532
537
521
506
512
529
521
515
519
524
528
526
517
503
502
512
530
533
514
512
521
524
527
518
533
554
558
542
536
528
535
546
544
536
527
533
545
554
545
536
532
536
542
547
550
555
558
565
569
569
568
546
540
566
564
553
548
547
551
523
527
524
524
529
547
576
574
555
548
556
568
592
587
576
559
551
573
574
576
555
537
551
566
574
554
532
538
551
545
547
545
545
547
547
552
556
563
560
546
539
536
541
553
557
557
538
520
539
545
542
547
543
548
543
534
532
544
543
537
537
536
528
522
527
541
545
532
516
519
507
502
498
495
497
493
496
503
487
474
465
458
460
492
496
493
480
450
451
458
457
456
454
453
455
462
457
455
446
434
435
444
448
452
445
433
433
426
408
419
436
446
452
435
422
415
426
418
418
416
419
425
429
423
416
416
423
450
489
470
461
461
460
462
440
408
396
421
428
413
413
426
444
474
474
455
437
441
438
439
446
443
445
454
463
467
457
446
451
454
465
476
469
442
440
451
464
471
470
474
456
454
461
451
448
450
452
460
466
464
462
454
445
458
468
465
471
479
472
466
471
467
474
491
477
444
442
454
475
498
502
493
478
454
440
447
457
491
464
457
448
447
466
474
474
482
492
478
469
459
464
474
483
476
457
457
471
474
450
451
468
474
490
476
458
444
448
453
470
479
481
471
462
469
480
488
494
495
475
463
468
472
480
486
477
468
476
500
503
509
502
486
482
481
485
487
494
503
500
494
505
510
503
502
505
521
529
521
518
515
515
514
513
513
513
514
518
516
509
515
500
509
528
559
569
574
578
554
530
530
540
526
520
519
521
528
515
511
502
487
487
479
486
471
467
467
465
459
473
464
463
456
444
434
451
480
469
447
426
434
451
459
453
444
447
460
470
467
437
427
435
434
428
431
427
433
451
460
432
419
424
430
430
424
427
435
440
447
461
449
438
429
433
433
430
432
433
436
431
430
438
446
446
450
456
449
436
433
441
447
446
448
450
452
470
439
424
442
475
485
462
447
466
480
495
508
521
484
469
458
473
504
542
555
546
561
590
618
625
610
618
643
655
677
682
683
678
683
687
674
667
656
638
601
558
521
470
416
374
344
305
289
279
253
226
210
212
228
247
257
271
295
308
323
337
350
336
343
376
415
434
464
473
455
432
419
430
447
474
483
464
447
458
482
488
476
467
475
467
457
468
474
479
473
468
465
477
489
502
502
499
502
512
510
509
471
465
480
499
514
530
529
501
495
495
506
505
494
465
441
464
497
524
502
498
504
501
504
510
516
517
513
514
512
499
495
491
512
524
517
500
493
494
505
521
517
525
532
523
519
518
517
520
524
521
517
515
515
508
504
515
529
531
530
525
523
520
525
526
528
521
522
536
537
522
527
537
532
539
554
542
532
548
559
546
545
555
538
521
526
535
543
551
549
534
516
521
534
559
558
568
561
546
537
537
545
548
551
549
549
548
549
548
546
554
561
558
552
554
561
551
550
551
558
554
559
540
539
557
566
576
573
560
559
561
557
551
560
563
551
542
527
537
549
564
581
587
599
583
540
525
527
526
523
524
512
527
542
556
538
533
568
581
562
512
491
506
531
539
546
540
537
547
546
529
515
514
514
520
523
510
503
508
501
501
516
508
510
493
495
497
490
467
458
457
455
467
476
461
446
455
458
474
483
463
450
460
455
453
455
450
429
421
437
443
439
438
434
429
429
429
428
435
436
434
432
436
449
439
430
431
444
439
437
434
423
432
440
438
432
434
431
431
432
435
441
441
438
433
438
438
439
438
439
437
439
440
441
459
473
467
444
440
445
446
440
441
443
458
473
478
482
474
452
451
460
473
478
437
423
429
440
443
449
454
455
456
468
474
481
475
449
444
449
462
461
458
471
473
465
462
466
461
458
452
458
472
473
470
468
466
463
464
466
467
470
470
472
475
475
481
484
472
474
481
466
461
460
459
460
458
458
462
470
482
482
483
497
474
457
467
458
459
462
480
466
467
475
480
484
488
482
469
465
464
466
471
476
474
474
482
462
448
451
470
473
467
455
457
479
487
484
463
461
463
474
485
475
462
459
463
464
459
455
465
464
469
470
470
467
466
470
472
488
497
500
501
498
486
487
491
490
500
502
484
480
483
499
526
549
531
507
495
508
524
533
535
507
481
492
524
531
523
519
517
505
513
521
526
522
532
531
536
553
561
562
552
538
536
529
526
526
525
516
506
496
497
499
498
489
488
481
467
471
490
489
474
460
441
443
440
437
435
438
440
439
439
451
469
466
445
432
437
443
466
464
462
455
440
425
422
427
433
427
426
454
482
472
441
418
415
422
442
466
453
424
423
423
425
428
437
439
443
447
440
433
424
443
451
444
439
442
440
440
446
452
446
445
454
451
439
431
434
444
450
463
483
512
506
460
434
446
461
464
472
479
484
487
492
515
538
555
574
588
609
634
662
670
648
636
663
674
665
669
665
664
672
670
665
644
606
564
514
471
424
367
322
298
292
279
275
255
222
209
204
222
227
248
291
317
317
322
346
362
375
383
397
415
426
427
432
449
448
453
456
474
477
468
480
497
480
478
478
482
474
469
467
471
457
458
467
465
467
477
483
496
491
491
517
516
502
494
477
454
463
484
494
501
491
489
488
487
495
502
500
500
499
497
506
511
516
513
506
523
533
519
488
478
483
482
492
486
493
518
526
517
510
488
489
491
489
501
510
509
522
535
518
496
491
498
510
515
505
520
531
542
537
518
510
516
522
527
534
532
529
532
521
523
521
520
520
523
524
520
524
524
540
534
519
513
516
538
528
514
526
541
549
549
552
555
559
559
552
551
547
548
555
544
533
532
535
548
554
558
566
564
547
536
564
565
547
540
539
556
566
571
562
544
530
539
558
558
563
574
573
543
537
548
556
554
557
570
577
583
583
560
533
535
533
536
551
551
566
551
534
534
548
554
547
535
536
549
567
581
571
546
537
540
532
524
537
549
554
544
535
527
528
528
530
546
531
525
506
511
517
512
525
506
499
519
523
514
510
516
508
491
485
484
489
488
492
479
475
471
477
463
465
463
459
459
459
455
449
450
448
447
449
447
454
443
437
437
439
445
449
451
460
451
429
434
433
429
430
430
429
443
450
450
463
427
411
413
423
428
439
440
435
427
409
424
431
443
449
466
489
492
450
420
427
424
434
437
434
438
451
443
440
456
436
451
448
431
428
427
439
464
469
475
469
439
435
441
462
465
459
447
460
479
467
460
454
459
469
482
484
470
441
442
459
464
470
480
494
520
513
465
424
419
441
474
490
485
471
457
454
450
449
459
461
456
467
478
478
471
467
476
466
451
451
455
455
447
450
459
474
477
489
485
477
467
466
473
467
464
458
456
456
469
476
492
476
471
474
467
462
472
479
478
480
485
486
480
469
476
484
505
518
518
498
450
432
437
455
459
451
463
477
481
489
482
492
500
489
486
497
499
472
471
489
510
516
513
480
477
499
509
507
507
508
505
512
514
510
509
507
514
526
532
533
541
536
513
489
487
497
501
489
479
511
510
519
531
543
552
561
561
560
573
569
541
496
480
507
498
505
499
485
483
496
496
488
487
486
469
466
472
458
449
445
428
449
448
439
431
428
440
463
475
479
486
475
457
451
457
461
444
437
450
448
443
446
457
456
453
452
449
456
456
462
449
432
437
438
431
440
447
458
473
478
485
463
436
445
445
445
451
449
452
444
442
435
435
443
454
449
448
446
452
457
461
463
448
441
448
453
467
475
485
489
473
470
477
487
503
499
480
484
498
538
570
567
548
546
569
599
640
661
646
634
660
647
641
650
667
679
678
657
646
654
632
579
533
509
470
414
378
352
332
305
290
277
267
261
254
261
261
261
283
299
312
326
333
353
371
379
388
401
431
459
464
452
455
463
469
467
466
476
482
499
500
485
483
480
487
510
530
526
487
456
442
448
458
485
510
508
498
499
507
509
501
487
475
492
488
469
473
497
500
505
497
490
488
494
503
517
529
541
521
476
471
483
490
487
488
499
479
474
493
509
519
532
543
533
518
512
521
524
503
491
491
493
510
511
497
503
512
514
519
522
510
507
525
535
535
530
515
506
510
513
522
529
524
525
527
535
525
521
523
534
540
534
518
525
533
529
525
526
536
539
539
534
535
534
531
532
532
536
531
537
543
542
538
555
560
559
565
547
534
537
546
550
551
549
546
536
545
547
559
563
580
594
584
553
526
528
532
532
535
538
541
542
570
593
581
576
557
533
539
556
546
537
540
553
564
567
568
574
570
556
539
546
545
538
546
553
557
565
560
546
538
520
518
539
570
584
554
524
522
518
521
518
523
527
522
518
540
547
540
537
531
538
543
547
532
506
487
502
508
497
499
496
490
497
503
493
486
500
476
456
455
462
475
477
483
486
497
476
458
446
441
446
444
448
446
445
438
433
443
449
447
457
441
436
436
436
442
443
437
437
436
442
448
451
443
425
430
437
447
464
461
441
436
447
454
424
408
424
434
436
438
439
438
448
447
451
449
460
468
464
450
417
415
430
431
445
452
452
446
449
466
472
476
475
445
445
444
449
450
455
454
455
447
463
481
505
481
457
448
445
454
455
443
447
451
462
458
458
463
456
473
473
468
471
461
450
452
439
454
470
467
461
468
464
465
469
470
471
474
476
472
467
469
471
465
475
479
470
477
492
481
480
469
456
472
489
487
463
458
466
471
477
472
475
488
490
485
486
484
487
492
475
442
439
462
474
476
487
482
467
467
467
479
483
486
485
470
467
477
469
455
456
464
473
468
477
492
506
515
512
488
478
489
492
487
486
485
502
504
516
522
517
499
487
514
543
541
540
538
519
497
505
523
519
512
509
505
498
491
498
504
496
499
508
502
519
538
549
564
560
547
537
526
512
503
500
508
512
514
503
489
482
480
472
464
470
470
473
480
469
461
467
487
479
464
472
449
427
430
452
458
460
466
455
440
434
439
453
448
445
449
449
444
454
450
442
439
455
452
449
457
452
444
425
441
446
446
438
454
454
441
453
464
452
438
430
431
433
434
435
447
445
451
452
445
440
442
458
446
448
456
451
452
473
469
449
449
464
485
497
487
473
494
514
504
489
476
466
479
492
507
529
544
567
590
609
610
609
610
616
623
647
668
675
674
672
662
656
654
643
628
608
564
517
475
409
375
359
327
293
286
298
308
290
260
253
260
261
281
305
327
376
352
313
324
355
365
387
407
425
430
437
441
443
453
460
466
473
480
492
503
491
476
472
474
475
473
470
478
484
470
472
468
472
478
478
481
492
479
490
478
474
495
520
506
493
493
503
512
492
480
484
496
512
525
542
537
513
492
498
509
487
490
484
468
469
471
486
512
520
525
520
489
483
482
475
477
487
515
535
512
480
497
520
510
501
506
509
501
502
508
507
530
543
546
525
507
509
505
509
510
504
510
515
524
529
527
526
529
531
537
531
512
499
522
534
528
527
523
526
522
514
530
543
551
543
526
523
524
521
527
535
537
548
548
539
535
534
536
552
567
561
558
558
556
555
557
567
544
541
535
541
555
560
560
557
546
543
551
571
561
547
543
536
544
557
553
552
556
542
528
553
560
551
542
538
546
548
547
563
557
533
530
534
544
555
560
558
554
558
547
533
530
531
529
528
541
560
557
553
541
522
523
520
531
536
534
523
523
540
540
527
525
515
508
501
496
499
497
502
507
499
496
495
492
496
501
503
503
483
463
465
459
456
471
460
455
467
484
474
451
426
426
441
449
441
431
442
424
424
431
429
424
431
446
444
437
443
450
430
412
400
413
422
423
426
433
428
426
426
417
416
407
420
462
455
435
433
447
454
437
427
434
443
447
447
436
437
441
435
436
442
441
441
434
430
431
438
446
441
436
446
462
457
435
439
437
455
467
465
451
450
457
456
462
456
459
473
470
467
455
474
475
469
476
486
478
457
446
447
450
454
471
451
446
444
449
454
455
461
471
471
480
486
484
469
452
456
461
470
469
470
486
475
463
447
431
442
479
513
525
508
470
455
452
459
469
462
464
469
471
466
470
472
471
458
469
470
456
452
455
467
482
478
469
470
483
498
493
468
458
464
467
466
480
481
462
463
466
459
465
466
478
481
476
472
452
434
441
458
469
474
460
472
489
488
478
486
500
507
495
485
479
483
493
510
520
512
484
477
503
507
494
478
482
502
517
518
530
526
520
520
521
502
497
517
538
553
548
526
482
473
479
496
504
488
509
528
530
539
533
535
551
555
551
536
520
517
524
531
545
567
530
468
443
460
475
478
478
480
478
474
465
461
461
459
448
439
453
450
442
450
458
451
452
458
460
456
456
454
439
445
451
454
453
454
467
476
462
450
451
461
443
438
453
448
421
425
449
468
448
439
432
424
436
446
447
441
433
438
437
445
445
428
425
441
452
456
462
453
455
460
460
471
470
451
448
447
423
399
414
436
464
465
466
476
471
473
479
492
502
493
495
504
517
526
548
550
563
597
611
622
624
622
632
644
652
658
666
672
677
684
689
694
682
654
598
541
513
489
425
371
343
318
300
285
280
274
266
239
234
245
251
257
277
309
335
348
343
344
379
406
427
436
430
410
413
415
426
452
463
467
478
476
477
465
460
467
476
478
488
502
485
455
438
452
476
492
501
493
480
484
500
502
498
485
483
494
501
502
482
480
489
487
490
489
487
490
488
490
502
522
523
516
518
520
506
486
495
506
491
489
494
497
501
514
491
492
502
511
503
506
509
509
505
502
497
505
523
526
530
528
517
493
493
509
514
519
523
523
533
528
516
509
512
525
546
531
510
525
525
513
510
514
525
537
522
507
503
522
545
534
521
522
523
534
536
522
522
534
545
557
553
532
511
520
546
560
564
550
550
539
516
534
549
547
546
545
546
553
561
553
522
532
542
537
539
545
553
553
569
559
558
556
550
541
538
544
551
553
563
576
572
560
559
561
560
544
532
545
555
560
561
562
558
570
560
551
541
535
541
544
538
562
562
548
542
537
538
540
549
552
552
557
556
532
529
531
527
536
539
539
532
516
510
534
555
552
534
513
488
470
479
523
537
516
497
495
506
518
505
489
486
476
466
461
456
469
465
462
465
472
480
481
475
461
456
453
448
459
467
473
449
433
432
445
436
423
422
422
428
436
442
436
426
420
425
439
452
455
461
448
420
435
444
423
432
443
436
424
423
422
426
440
426
436
456
443
424
427
446
452
456
467
455
436
435
443
436
433
433
445
448
452
453
456
455
454
449
457
463
451
433
447
478
489
495
457
430
435
459
462
453
446
454
458
459
457
454
458
461
472
487
476
461
465
456
451
448
455
459
469
482
510
532
516
477
451
432
438
456
457
460
454
457
462
460
467
471
457
457
460
461
466
475
479
482
485
468
459
454
455
458
461
462
478
515
516
475
451
454
459
455
465
474
486
473
455
464
473
468
478
481
491
500
507
481
452
447
446
458
457
467
475
481
486
471
458
460
460
475
475
458
462
467
470
463
468
481
462
457
468
463
452
457
464
476
484
479
484
486
479
470
465
463
463
464
464
468
467
470
479
485
475
478
482
481
474
473
467
455
460
475
493
500
492
462
435
437
456
476
473
468
485
474
472
475
486
497
492
490
476
461
459
467
488
497
514
515
501
501
500
504
507
519
520
516
518
511
504
498
508
513
504
497
510
528
531
510
496
508
512
516
516
524
527
530
536
545
551
544
530
538
555
564
567
579
548
524
511
506
488
479
481
476
475
485
487
480
477
471
468
464
460
464
457
451
452
452
454
448
452
454
471
500
483
461
466
453
448
447
449
442
438
439
452
432
415
433
443
450
451
449
451
460
470
476
456
435
433
444
458
461
424
431
427
427
435
448
454
458
434
439
439
443
449
453
462
471
450
443
436
446
450
444
455
440
422
430
443
462
473
465
459
478
487
487
494
496
488
486
495
503
517
538
560
584
591
586
594
626
650
659
654
665
683
699
714
704
683
647
637
633
639
634
590
548
504
441
386
354
331
305
306
310
291
255
230
217
231
253
271
274
284
311
336
346
372
383
388
389
397
413
419
427
440
439
459
478
480
473
481
493
496
492
485
473
469
466
462
470
479
475
471
494
513
502
472
465
475
473
467
490
485
488
495
489
483
490
496
502
514
512
530
552
551
511
476
470
488
491
479
479
473
480
493
501
506
513
516
503
488
491
502
523
537
521
494
491
509
504
496
504
517
538
548
530
497
490
495
506
519
518
523
519
514
517
510
517
532
536
534
526
501
494
484
498
528
561
569
542
531
530
535
531
524
514
524
525
524
528
542
571
570
568
559
508
510
511
517
533
537
536
534
539
540
541
535
530
530
536
557
572
557
546
537
543
545
544
547
553
553
560
559
543
539
543
543
547
550
549
557
566
571
580
591
577
548
548
556
551
542
536
542
538
528
532
556
563
556
550
537
539
549
561
550
529
542
566
567
553
545
537
547
561
564
562
561
540
534
529
539
554
544
521
516
533
539
561
571
556
544
527
530
543
542
520
510
508
513
522
525
521
512
508
514
519
508
504
511
498
486
474
487
502
509
504
487
461
470
477
490
487
470
457
441
439
446
450
446
442
447
452
462
459
441
438
437
435
434
431
421
421
416
421
442
448
436
429
430
431
431
434
442
457
441
435
433
424
403
399
425
441
434
435
452
460
459
449
448
458
466
460
456
457
446
442
450
449
427
414
419
430
435
438
444
456
475
471
465
448
440
438
456
463
452
435
423
425
443
459
464
475
480
480
474
462
451
464
478
462
452
449
456
462
461
458
462
457
456
451
460
460
458
458
458
467
479
471
456
457
464
470
477
491
493
477
463
444
457
460
470
495
506
487
449
437
430
445
461
472
477
466
459
466
480
481
481
481
482
483
470
453
457
481
472
473
465
464
477
486
478
468
475
471
459
468
483
489
489
501
472
450
445
456
457
474
481
492
492
466
452
463
490
489
467
465
477
464
457
473
482
472
458
461
470
487
498
491
480
453
442
449
464
476
480
491
490
459
442
451
445
443
439
452
470
478
479
481
473
467
469
471
476
503
518
500
476
453
464
498
501
498
480
461
476
511
507
484
479
499
516
556
551
512
499
503
494
476
480
492
510
511
523
553
549
521
503
506
501
503
506
508
521
531
539
539
543
546
551
558
565
570
561
552
556
550
529
513
511
512
511
499
489
487
481
489
485
476
472
470
472
486
496
488
469
452
447
470
467
452
443
429
430
428
430
435
441
444
448
453
462
459
449
449
424
432
454
445
434
431
432
443
454
455
469
471
439
414
429
451
445
434
437
441
451
443
438
447
490
508
472
440
445
426
410
405
418
431
435
435
430
429
437
465
477
476
466
453
452
448
456
462
458
456
471
487
489
499
485
478
483
503
529
539
531
542
556
564
583
617
634
644
648
655
664
664
675
672
660
648
647
659
672
670
640
604
553
522
475
404
337
306
298
287
277
253
233
214
215
230
252
266
272
280
310
339
352
345
339
358
376
390
399
405
415
432
446
466
479
477
464
460
466
470
489
491
492
501
500
474
479
471
469
473
498
507
500
494
501
497
488
485
480
447
436
459
488
496
499
497
484
493
510
501
508
522
520
500
503
497
494
498
517
512
491
487
495
501
500
493
486
484
499
516
521
516
526
543
540
522
513
508
490
481
485
498
511
518
525
524
543
546
515
500
513
523
522
525
519
505
501
519
526
539
542
511
494
511
515
519
534
539
543
540
531
522
526
531
534
521
511
533
541
541
533
526
518
516
522
533
545
551
554
567
568
552
531
529
538
564
559
534
519
529
536
542
548
553
560
567
553
536
536
543
548
545
540
535
535
555
548
536
553
562
559
555
549
551
554
543
558
571
570
576
577
579
534
542
561
546
539
537
533
536
546
556
548
540
535
538
554
549
538
545
560
558
551
541
543
543
540
529
523
533
548
542
525
527
542
546
544
543
539
537
533
518
513
511
516
518
509
503
510
522
504
478
472
489
510
517
513
504
502
494
501
513
521
502
471
457
445
446
447
452
462
486
494
483
443
423
452
451
438
432
420
415
419
419
424
428
428
438
438
427
431
438
437
435
433
436
441
436
437
429
426
432
433
436
448
451
439
432
431
428
432
438
455
469
441
409
424
444
436
459
468
464
440
444
441
427
426
435
439
437
436
439
441
444
467
490
478
448
439
449
463
459
456
454
436
429
443
453
442
447
469
466
455
451
452
452
449
445
442
455
468
461
465
471
468
471
482
474
484
481
461
454
467
469
474
479
466
469
474
471
455
461
477
495
509
483
455
443
428
422
441
467
462
458
464
468
478
479
465
480
476
471
471
468
465
452
459
468
470
465
463
469
472
473
478
479
478
481
475
469
473
470
469
466
481
501
496
461
460
471
463
465
467
468
467
467
464
466
465
459
469
469
478
483
493
465
435
445
467
473
468
474
478
484
502
502
479
453
446
452
462
461
457
451
452
468
467
465
486
482
467
473
482
484
483
485
491
489
480
471
479
478
470
470
480
486
487
494
491
487
488
487
486
492
498
514
522
512
502
494
502
533
535
535
534
516
510
521
537
541
527
506
503
515
522
513
515
499
498
521
536
541
532
528
543
548
548
545
537
531
550
558
533
517
513
523
524
509
491
493
497
490
478
466
461
455
454
454
473
466
454
454
458
455
465
485
476
439
410
426
456
476
456
432
435
440
443
447
452
454
443
434
444
440
455
475
483
466
448
438
431
442
446
450
443
444
450
458
458
447
440
435
430
435
442
454
468
465
460
463
447
439
439
437
444
454
452
448
443
445
448
448
443
449
461
480
486
490
499
467
429
457
493
491
481
482
500
515
528
530
555
571
587
600
599
606
623
649
687
693
676
665
666
680
687
679
660
644
618
589
562
521
489
450
406
367
335
295
256
249
249
243
229
217
226
248
259
274
274
265
292
336
356
375
394
419
431
421
407
411
434
443
446
445
444
467
492
514
514
501
483
475
475
473
470
475
482
481
476
483
503
492
504
532
533
499
475
480
495
499
489
484
485
476
481
496
508
527
517
499
505
509
509
507
496
475
477
504
519
521
517
523
524
508
502
498
496
504
504
508
517
533
524
513
523
530
524
506
510
511
492
487
498
503
515
545
544
530
514
516
520
523
520
525
529
528
516
519
524
520
521
525
527
537
543
566
575
563
529
497
488
497
517
524
526
528
529
527
538
539
542
536
546
542
542
544
545
545
541
539
540
535
563
583
548
530
532
542
550
551
555
568
566
567
569
551
566
573
556
553
545
540
540
542
548
557
562
571
563
543
561
567
562
560
554
531
529
543
566
558
548
549
541
541
546
549
532
533
535
534
553
568
565
567
569
567
573
576
561
544
547
563
559
560
538
531
529
524
520
526
535
545
551
541
528
519
513
519
529
547
562
571
552
539
517
503
509
505
512
494
486
485
487
501
501
487
481
484
490
494
502
494
485
484
472
492
498
483
493
487
460
450
458
449
438
459
459
435
434
445
441
443
459
457
438
425
425
431
441
441
443
428
429
433
428
432
430
446
468
462
449
437
432
433
424
410
412
406
434
457
451
445
436
423
409
421
439
462
463
454
439
428
428
419
421
446
456
459
467
468
481
497
479
462
464
447
413
396
413
443
456
456
457
451
443
445
451
457
462
458
460
460
457
461
463
474
476
455
436
460
493
490
496
487
458
450
454
449
456
461
451
449
445
449
456
482
489
480
470
472
477
477
488
476
465
471
474
467
463
450
487
505
485
467
474
486
480
472
467
471
490
494
480
455
454
468
463
456
466
464
455
465
470
481
509
479
468
480
477
477
479
478
455
445
448
462
468
469
473
462
455
462
475
486
489
504
502
473
457
454
452
463
467
474
495
491
491
489
476
446
445
455
451
455
474
456
445
461
471
493
519
492
461
454
465
486
499
509
501
490
490
504
515
515
518
524
518
505
508
522
522
523
521
491
483
493
503
515
511
504
498
496
509
512
520
531
540
545
539
543
546
547
543
555
566
565
567
558
523
504
502
506
501
488
483
482
483
488
486
493
487
476
476
470
451
450
466
472
459
437
433
431
433
438
446
454
452
452
451
456
465
470
477
484
470
452
436
434
428
427
433
439
444
448
449
450
461
459
463
453
440
443
448
443
440
426
418
435
445
435
425
424
445
460
470
473
467
454
442
442
463
482
476
453
445
441
437
437
440
446
457
454
459
462
463
468
478
487
480
476
474
474
497
509
509
546
570
586
608
617
611
600
615
633
636
660
678
673
660
655
647
653
655
654
659
663
613
546
498
458
407
366
353
308
274
264
273
274
248
243
250
267
284
287
284
303
332
360
361
349
360
379
404
413
423
429
438
447
461
479
487
485
490
481
471
471
478
500
503
491
483
489
497
493
488
470
466
497
518
514
485
473
480
487
486
481
483
469
484
498
501
501
500
500
495
491
501
506
498
500
521
524
490
474
489
497
508
521
518
504
496
499
513
525
522
533
559
564
532
503
483
476
507
538
516
510
512
502
507
512
513
515
519
515
509
509
512
519
526
521
517
520
533
525
515
512
524
516
513
523
525
524
532
538
538
537
523
512
518
531
536
543
542
556
571
556
536
543
562
540
511
527
538
538
538
532
522
527
520
520
544
562
574
569
538
519
522
534
541
543
545
549
551
551
554
560
560
563
567
570
582
580
577
577
563
546
544
540
535
539
542
546
549
570
584
580
535
519
533
548
572
569
569
591
568
539
536
541
544
551
549
544
545
551
560
567
550
525
520
546
533
565
556
551
546
540
531
532
532
528
530
526
525
529
531
527
521
522
507
513
543
535
516
504
473
468
494
507
503
495
490
493
490
498
509
512
521
524
517
475
466
456
450
463
478
488
462
438
441
423
428
436
442
443
437
427
432
449
455
446
440
433
435
435
432
427
430
428
428
430
433
429
432
430
425
425
426
427
425
428
442
458
464
451
441
461
461
420
398
405
420
429
437
434
429
428
432
455
472
457
424
435
450
451
453
456
450
455
458
447
422
438
446
437
428
455
471
464
453
450
460
457
451
453
464
469
473
467
458
455
454
453
449
451
454
463
477
478
489
503
515
494
465
461
465
464
451
443
463
454
448
452
453
461
448
450
456
460
467
485
488
481
468
465
459
466
472
459
451
460
465
467
474
472
472
473
470
465
448
446
472
487
472
475
476
472
475
493
481
469
461
464
471
478
475
464
462
467
482
505
508
505
470
443
424
417
438
458
457
455
470
478
488
486
469
465
476
484
482
487
476
464
456
459
469
495
524
506
503
485
473
462
458
464
482
486
491
502
507
513
527
530
509
502
502
483
488
496
498
505
509
509
512
523
522
516
509
507
509
506
501
501
488
487
496
520
529
534
523
522
524
547
553
558
558
545
537
539
524
507
495
483
478
482
490
486
476
491
503
467
444
457
472
459
448
448
458
447
446
449
452
458
460
458
473
468
448
430
437
450
444
439
436
440
436
435
434
439
442
437
420
418
423
426
436
456
453
442
455
456
451
455
464
457
423
430
455
456
471
458
455
453
441
431
434
445
443
432
436
447
440
433
436
438
444
457
459
452
454
446
454
464
465
472
478
471
470
487
496
499
498
497
509
527
545
565
570
574
592
605
625
630
624
631
646
653
670
686
673
664
659
658
665
654
610
554
515
494
449
388
362
343
299
258
252
260
254
244
234
251
238
258
276
283
296
323
351
368
382
384
401
421
414
403
416
431
448
448
457
480
499
496
494
480
465
472
474
461
475
488
477
470
468
466
498
500
501
511
495
472
461
462
472
489
490
491
495
478
458
473
496
516
515
500
490
483
479
480
500
514
517
517
521
512
503
497
493
489
509
517
492
487
514
542
535
501
481
487
502
515
511
504
505
500
500
502
509
520
514
504
498
515
529
513
505
522
530
520
509
517
517
506
515
525
530
527
528
534
530
525
525
529
524
529
529
524
527
539
561
553
524
523
520
520
526
538
580
566
516
507
521
551
550
541
530
515
511
524
548
577
584
569
566
564
541
517
536
562
551
543
554
563
560
544
547
563
555
555
555
563
574
564
536
532
543
552
551
556
561
561
562
559
542
527
537
562
576
568
573
581
560
539
537
559
566
551
540
543
550
544
544
551
577
582
568
563
564
551
541
542
536
537
541
548
559
562
564
560
553
543
543
542
531
526
523
524
537
532
511
499
489
498
516
531
528
518
514
525
513
497
496
500
492
482
499
488
479
479
483
469
471
461
438
438
448
460
486
503
476
435
433
449
447
434
431
422
421
427
427
436
424
429
426
438
450
439
429
444
465
426
408
417
441
445
442
439
438
436
438
449
450
453
467
466
440
409
415
441
461
454
454
448
421
408
411
426
432
435
441
453
458
453
454
454
441
437
444
447
447
436
438
447
451
455
459
466
476
477
467
451
444
458
458
462
450
440
441
455
456
465
464
456
459
476
478
473
466
455
455
458
463
462
450
446
448
447
457
470
467
465
461
476
483
479
489
492
494
458
430
425
428
441
467
500
499
460
434
443
470
459
445
451
468
482
489
482
470
463
474
464
440
449
468
469
469
471
467
459
449
447
454
461
465
469
465
481
477
456
458
474
485
487
466
459
463
460
457
462
472
490
497
464
444
444
442
446
448
455
476
483
466
458
459
455
470
484
476
459
448
459
478
487
480
475
474
464
465
467
474
494
512
507
494
488
506
521
509
509
518
508
509
516
502
484
478
484
487
484
480
501
552
554
557
532
501
470
475
505
521
518
522
526
528
531
536
540
545
538
534
532
530
542
558
533
500
492
506
522
521
510
490
474
472
462
477
473
464
453
466
471
465
466
467
450
441
441
439
445
447
445
443
444
445
447
442
433
444
454
466
469
458
439
443
444
424
427
439
447
447
451
451
440
442
438
435
435
440
455
453
441
439
443
441
437
447
453
455
471
475
454
419
395
411
436
443
437
439
447
449
449
431
427
425
448
456
459
453
457
456
470
484
503
522
538
518
485
472
485
487
484
490
527
563
582
599
607
619
632
644
652
661
669
675
680
673
680
657
650
650
655
616
592
567
522
469
406
358
339
324
300
287
276
255
228
215
221
237
263
278
287
302
318
336
342
350
363
379
404
414
425
433
456
461
459
460
449
455
477
495
498
461
438
439
462
484
472
467
478
487
484
491
489
480
474
477
468
458
473
487
493
508
491
481
495
504
502
497
482
487
506
506
523
512
488
497
519
525
523
514
497
482
476
479
489
496
503
530
540
525
539
547
506
473
492
506
501
496
498
504
512
509
506
509
506
501
499
497
506
517
528
531
520
531
539
534
541
535
518
495
516
537
543
542
530
511
520
518
527
543
544
546
541
534
525
518
525
539
541
537
535
530
529
534
545
543
539
550
546
536
548
564
555
537
532
535
546
557
566
552
539
530
533
526
514
518
552
583
576
566
567
562
568
570
555
553
544
537
530
537
552
576
574
564
537
534
544
551
559
553
545
547
550
576
603
602
580
585
592
567
532
515
523
535
546
542
531
515
521
536
555
566
554
545
551
561
553
528
533
525
531
539
557
555
545
533
523
529
533
530
521
521
511
501
505
517
538
543
537
519
505
491
485
498
510
495
488
492
492
487
482
484
478
463
468
484
483
473
459
459
465
449
429
430
445
452
462
461
444
467
480
486
471
450
445
429
412
407
417
428
455
460
454
443
434
423
416
423
434
418
412
439
416
432
457
462
468
460
422
392
405
427
429
428
422
418
433
462
488
502
451
414
414
431
436
444
448
453
450
449
457
453
444
447
447
442
432
432
433
432
436
442
451
455
455
471
485
469
458
454
463
476
480
479
471
449
446
452
457
475
469
467
467
471
473
465
458
455
436
438
457
457
451
453
456
470
492
473
461
468
473
485
487
467
463
483
502
518
497
450
430
439
441
459
474
470
461
456
458
468
482
492
477
460
461
471
491
490
463
448
449
457
467
472
500
489
468
469
483
489
478
472
475
481
469
480
496
492
478
453
433
429
446
461
470
496
469
465
481
492
483
471
465
456
450
460
480
488
466
452
442
438
452
468
482
473
475
474
476
476
475
474
480
482
470
457
454
476
491
494
502
511
488
496
497
488
485
491
501
525
532
508
493
495
506
496
502
517
536
567
570
541
504
495
503
510
516
515
507
503
491
498
524
533
533
540
545
532
535
542
555
565
565
558
553
542
537
532
541
533
516
543
555
525
506
481
477
458
461
471
487
500
486
467
467
457
457
462
482
493
475
467
474
462
448
440
441
444
429
433
446
446
448
437
427
425
441
438
421
416
436
465
470
460
451
441
450
437
426
438
455
468
458
442
440
429
428
440
454
457
464
469
455
428
407
412
428
468
465
459
441
429
433
445
463
477
473
458
448
431
433
445
451
453
449
451
462
473
481
485
492
488
488
507
528
541
563
579
603
622
624
614
626
642
660
681
662
651
654
660
668
670
658
652
648
633
607
564
517
471
416
369
338
315
286
264
245
235
242
242
246
237
218
240
276
304
323
322
341
368
369
352
390
404
406
418
426
432
432
430
444
461
483
495
492
485
485
478
468
478
471
463
474
486
492
479
482
493
475
461
469
482
499
509
492
499
507
490
476
479
484
509
531
508
480
489
505
497
489
485
484
482
489
491
485
499
483
502
524
523
514
521
514
506
507
506
506
514
522
516
520
526
527
524
530
505
490
491
491
500
508
521
529
537
530
514
511
517
505
501
506
497
491
503
517
508
510
518
528
539
529
524
521
520
520
528
533
522
531
539
547
549
549
550
552
554
501
497
512
527
532
542
544
543
542
543
552
560
559
548
531
529
528
526
528
527
538
565
569
548
542
548
540
548
538
535
527
523
559
572
553
546
533
534
557
557
560
565
571
579
577
583
573
552
545
552
555
556
548
542
552
551
548
542
528
526
534
539
545
553
550
544
544
543
538
538
541
538
542
556
559
546
545
540
538
547
546
535
540
553
551
525
514
525
534
547
555
548
534
515
498
500
512
504
502
498
493
503
488
487
504
501
495
491
491
488
487
483
494
493
496
498
489
484
451
429
430
433
436
446
461
468
475
455
444
422
418
432
436
439
440
437
434
435
430
426
425
428
433
440
421
414
411
404
411
457
461
440
438
449
436
419
419
430
426
415
433
442
455
457
439
425
432
447
439
435
424
421
443
452
452
448
450
458
442
432
434
451
467
473
465
463
434
419
432
453
468
481
470
461
483
487
450
427
436
453
464
456
453
460
464
466
474
481
471
454
442
447
452
452
455
461
478
481
475
462
461
482
493
462
457
473
474
477
479
463
465
495
502
480
458
456
453
437
445
453
455
458
461
472
477
480
473
471
472
471
471
467
465
462
468
464
437
435
441
459
494
492
486
481
472
483
475
452
451
482
494
488
499
485
472
457
451
467
456
457
473
480
475
471
477
485
480
453
444
455
467
466
459
466
495
504
487
464
450
451
455
470
480
479
478
485
487
484
483
485
483
473
465
480
485
473
475
492
521
530
504
499
505
519
506
493
490
497
502
506
528
548
531
505
501
502
504
510
500
498
506
513
505
489
484
493
526
536
548
555
585
583
548
519
525
538
546
548
551
537
511
506
507
501
480
474
484
491
488
459
468
489
496
483
471
456
454
471
485
467
441
446
462
473
471
435
427
431
439
454
451
414
401
419
434
460
471
468
458
445
443
465
464
447
433
436
437
440
431
440
440
435
436
430
435
442
444
437
436
459
468
461
454
447
432
424
430
448
440
438
470
447
437
466
476
449
434
440
444
442
441
439
450
451
443
442
454
480
493
498
476
473
484
492
479
477
494
517
550
568
579
587
600
618
624
627
630
643
650
675
697
695
681
660
646
647
656
631
605
566
516
465
409
373
358
337
298
270
261
253
212
200
211
228
243
261
267
285
310
327
363
372
377
401
409
396
381
398
435
453
451
448
462
474
478
484
485
487
503
515
503
481
475
476
489
482
479
480
480
469
470
481
496
505
496
480
489
505
501
496
497
510
530
529
508
484
473
497
507
513
508
504
507
512
517
491
469
477
487
495
498
499
507
511
527
543
553
544
517
493
496
480
486
484
494
506
509
510
523
523
518
515
532
532
514
520
529
522
503
511
525
513
505
508
521
526
523
521
522
536
533
527
537
557
555
528
502
497
513
511
503
505
524
523
530
540
537
548
544
536
536
526
530
532
528
537
535
541
560
555
558
556
536
543
554
553
538
530
527
523
527
556
590
569
539
549
548
553
555
547
542
537
542
563
570
557
544
539
548
549
542
545
556
530
543
574
573
574
569
568
566
564
560
546
549
569
584
591
599
589
552
513
492
507
529
543
560
549
543
554
547
535
532
542
548
554
549
545
549
539
530
530
534
538
532
536
546
542
524
530
535
523
512
528
535
518
504
496
476
453
496
516
507
494
488
496
499
487
471
476
477
471
471
493
487
484
469
435
454
485
480
465
458
460
454
444
435
427
437
443
449
451
434
426
430
439
451
445
425
426
431
426
425
434
436
436
437
434
434
431
433
427
434
447
465
466
437
431
435
420
418
432
434
433
432
447
461
472
454
433
423
438
453
461
475
461
440
436
445
465
472
452
436
445
445
441
447
453
452
452
447
451
448
471
482
468
457
443
453
474
469
457
453
455
456
477
483
485
478
474
466
475
471
477
477
469
467
491
511
487
458
443
444
453
463
462
446
456
460
481
497
476
461
452
449
458
465
471
479
486
486
476
475
473
467
472
480
479
483
482
475
484
485
495
483
477
456
458
466
468
471
470
463
453
458
462
477
497
478
465
462
476
476
470
463
464
472
481
495
487
478
468
482
492
495
482
459
456
480
492
474
463
476
484
487
493
495
472
481
486
491
492
492
508
530
502
480
487
498
500
497
503
504
514
524
525
516
512
525
549
534
514
506
487
486
498
507
506
498
495
492
499
504
499
503
520
535
554
563
569
584
581
561
542
513
509
512
514
528
528
513
509
483
474
472
482
477
474
470
480
454
448
454
456
458
448
458
463
471
480
461
449
445
436
425
433
447
451
444
433
436
444
456
466
462
456
459
463
466
479
478
436
424
448
463
459
457
451
437
426
447
458
442
443
440
445
451
449
445
447
445
463
456
451
456
448
433
442
459
474
461
439
452
465
456
446
448
464
470
466
471
487
471
472
480
484
471
460
465
483
500
512
528
536
547
562
596
623
623
627
635
649
653
646
645
665
668
667
668
632
621
650
639
593
539
503
481
433
386
353
310
304
303
293
293
267
236
214
211
235
269
297
318
333
340
360
374
383
394
398
404
412
429
439
455
472
494
507
492
489
478
464
465
475
475
468
467
477
493
483
479
505
512
480
483
499
491
487
473
469
472
478
488
486
479
493
505
503
492
487
496
493
494
517
535
518
491
486
495
496
493
496
509
511
502
493
503
509
516
512
501
500
486
478
481
479
475
501
533
537
523
508
505
492
514
537
557
545
521
498
493
502
507
511
518
521
530
509
496
507
528
532
521
512
512
517
535
527
518
518
552
541
519
524
526
521
522
527
524
517
523
528
545
538
522
543
545
542
543
559
560
535
529
533
526
539
542
524
511
508
516
543
578
579
571
561
554
563
571
574
557
526
520
526
527
541
552
563
570
560
544
541
537
548
559
579
579
563
553
552
548
531
509
522
560
563
561
563
559
556
542
534
541
552
553
548
550
547
541
533
530
536
548
569
569
554
540
538
568
582
550
533
532
545
558
568
529
512
515
509
519
539
535
525
519
508
504
514
523
514
515
507
510
524
493
487
487
483
488
509
501
483
473
472
473
484
479
457
457
457
455
456
479
498
485
455
431
432
444
450
439
426
423
419
429
433
435
441
442
428
430
445
456
445
433
410
404
424
440
448
449
449
450
442
444
439
437
435
435
434
439
448
464
474
477
459
432
417
409
409
419
435
440
446
470
475
458
440
427
428
440
460
458
446
450
459
450
453
449
446
442
443
447
445
445
444
455
472
468
448
452
452
459
462
470
481
476
458
448
466
476
445
448
464
473
459
458
465
466
463
458
461
461
474
482
481
463
466
475
478
456
438
460
479
483
475
464
471
474
490
490
490
468
459
468
484
490
474
460
458
461
468
474
469
473
478
482
476
467
472
466
466
468
469
472
478
484
495
502
493
483
491
494
469
447
459
468
453
453
471
473
462
456
481
503
492
479
455
455
477
480
475
481
482
469
459
476
493
485
487
479
463
470
484
480
461
462
472
492
495
492
492
492
495
503
530
514
466
457
485
498
492
492
509
536
527
529
503
493
506
504
514
524
524
525
501
501
511
520
520
533
543
545
539
520
490
476
498
513
538
549
545
544
539
541
542
538
530
532
522
508
495
488
490
503
501
502
490
478
476
474
478
458
444
451
450
444
440
444
441
442
440
452
448
453
446
445
446
454
457
451
442
430
424
429
449
440
443
463
462
446
450
468
458
433
429
436
430
438
450
459
457
457
463
451
426
421
436
457
459
446
429
428
457
486
489
461
428
426
432
445
452
445
444
438
437
434
458
450
453
460
457
477
517
525
498
482
474
464
475
494
479
487
516
528
539
552
565
593
611
614
628
640
648
657
665
681
688
688
691
687
672
663
641
625
580
545
505
432
364
337
310
290
287
284
271
251
236
231
243
253
262
288
304
318
334
337
354
373
373
375
398
441
457
447
441
448
456
475
486
468
462
466
469
469
471
471
478
485
476
467
473
483
473
463
461
457
462
471
481
500
511
503
495
489
484
484
485
500
519
526
509
503
504
490
472
471
480
492
511
530
513
505
497
496
500
510
510
494
502
515
530
515
508
487
476
475
486
492
494
498
508
522
528
524
516
511
509
516
507
494
494
501
509
530
537
549
529
500
486
498
505
511
512
517
527
530
528
517
498
503
523
530
528
537
547
546
539
537
534
533
530
518
517
523
527
532
540
551
542
545
537
517
519
538
560
568
556
547
553
557
547
548
556
548
535
537
555
579
554
531
532
544
553
546
538
547
552
545
536
532
542
556
562
569
581
565
536
521
532
555
583
590
589
579
563
550
556
552
544
548
556
567
567
541
537
532
540
535
546
550
535
536
549
545
536
535
541
531
534
529
533
554
563
550
535
511
502
514
529
537
538
545
528
511
504
510
532
531
518
501
491
489
482
488
511
520
523
498
492
493
476
467
473
471
470
471
470
487
486
466
461
446
433
442
448
452
453
461
476
476
461
453
453
451
431
426
431
435
430
417
412
419
421
418
423
439
440
428
441
462
455
443
435
427
422
425
438
445
435
421
422
427
432
432
416
413
423
442
439
437
442
451
453
459
454
443
437
445
446
446
453
457
417
417
427
435
443
450
468
487
512
501
467
431
417
427
439
438
435
427
437
465
483
488
487
466
445
452
457
471
467
459
462
474
462
450
457
470
467
465
460
458
464
462
465
479
464
459
466
469
467
465
462
472
486
478
475
470
460
456
466
469
472
470
472
468
475
498
502
498
493
477
460
455
461
472
471
472
467
455
460
487
506
489
466
455
452
464
465
471
468
467
475
481
474
473
470
448
446
466
481
477
476
489
500
481
479
483
470
479
473
447
433
441
468
479
474
487
490
490
495
488
472
454
450
443
455
476
476
478
469
467
476
489
484
478
485
475
463
462
472
482
484
479
485
478
476
481
487
497
507
510
497
487
508
511
497
503
502
506
513
509
500
500
520
540
521
501
491
493
508
524
543
546
535
533
533
507
483
485
506
533
551
546
534
528
540
556
568
569
564
550
549
554
536
525
522
510
495
488
495
493
478
478
480
476
489
501
497
455
463
454
456
453
463
473
463
440
438
439
447
458
456
459
465
474
465
448
444
447
457
453
447
448
450
454
453
443
445
441
434
435
431
441
455
457
460
467
457
432
422
440
437
428
444
471
480
455
443
432
438
456
447
447
465
461
440
440
443
446
446
448
446
461
466
463
457
463
463
448
453
467
472
477
477
460
460
483
500
498
497
523
568
583
571
576
589
602
620
635
689
712
684
651
644
676
674
680
689
699
702
672
619
570
526
500
467
396
355
325
294
285
303
277
245
233
236
240
224
212
249
294
330
340
339
341
370
391
401
406
416
442
455
446
434
434
444
459
472
484
487
491
477
465
463
477
487
491
495
489
475
467
468
475
481
483
488
489
491
492
496
500
511
505
486
489
504
515
496
491
502
512
475
442
460
492
499
492
485
487
503
525
530
512
501
503
505
503
494
495
499
511
521
512
504
504
508
506
512
523
525
522
515
517
525
528
530
542
537
532
521
533
532
501
491
496
502
510
515
516
520
534
514
501
504
527
534
529
539
530
525
531
520
501
494
507
535
557
557
543
535
538
548
536
513
524
530
532
536
537
541
544
544
546
543
539
535
536
538
542
547
554
565
554
544
540
552
562
565
548
539
540
531
513
519
547
551
550
563
564
560
562
569
575
578
569
568
571
555
528
532
543
544
541
549
551
556
572
574
562
549
548
533
529
546
553
557
555
550
551
551
545
548
543
564
571
536
517
520
527
536
541
548
552
544
535
537
534
538
526
531
535
550
539
517
512
517
527
530
506
500
503
512
518
510
501
494
479
478
481
481
481
491
509
504
510
499
466
444
450
459
462
459
455
465
464
455
454
454
457
445
420
419
437
447
438
443
451
454
452
445
436
430
437
439
434
417
409
439
461
463
441
420
414
414
416
425
435
422
432
453
457
451
440
442
438
439
439
442
437
440
442
440
440
452
465
451
449
443
437
428
436
448
463
480
476
452
450
443
429
436
443
439
458
461
470
473
472
460
426
417
437
455
460
469
466
469
483
489
481
466
457
444
452
446
458
462
467
482
490
496
485
480
476
451
438
463
478
476
459
464
485
482
455
446
448
475
477
464
457
462
460
465
481
496
500
499
493
464
451
461
465
460
461
465
480
491
470
464
475
469
465
464
473
476
464
462
460
462
483
488
480
478
485
484
472
457
452
448
454
465
469
458
458
469
483
476
481
500
497
465
453
458
466
461
457
474
500
500
474
458
471
481
471
468
455
432
443
459
466
474
483
490
493
492
490
485
487
494
501
513
497
483
469
474
502
514
501
475
464
463
478
502
511
494
493
509
529
509
469
468
486
507
539
540
531
511
506
518
530
528
517
511
511
509
513
513
526
537
527
519
531
533
526
535
550
545
542
546
550
555
547
534
532
518
506
490
490
478
479
497
504
506
498
486
478
479
481
474
481
461
445
448
457
462
462
459
454
451
437
443
441
439
442
442
443
443
447
448
442
441
443
461
465
450
436
425
436
440
451
445
431
435
445
459
471
461
440
432
422
435
455
451
421
410
419
449
461
460
448
447
461
477
457
438
462
474
463
448
429
428
436
437
453
468
493
504
486
445
443
462
456
456
452
466
481
475
472
505
538
553
557
562
549
549
563
598
638
651
662
680
693
681
666
655
657
669
673
674
664
639
593
558
520
473
410
357
329
307
299
274
255
236
216
220
229
240
269
278
275
282
301
333
360
368
372
396
404
405
414
427
434
439
442
446
455
478
499
505
492
474
458
439
474
503
485
461
471
464
481
521
502
487
477
484
487
481
480
503
515
499
478
475
485
490
492
489
489
477
484
513
517
506
495
500
519
543
553
505
472
482
502
503
497
500
502
509
519
528
538
527
497
491
488
479
510
558
560
551
519
498
488
491
506
513
520
530
530
527
547
543
523
511
510
517
521
520
512
516
517
522
530
533
535
538
537
531
525
526
531
539
538
538
530
529
541
564
556
534
536
532
534
530
514
512
521
551
577
567
556
560
548
535
535
537
529
526
547
560
563
563
561
562
567
580
566
543
538
536
557
550
556
562
550
554
549
555
555
558
557
555
569
590
587
563
545
547
539
528
529
545
566
560
559
568
578
584
570
576
593
589
542
530
535
539
541
546
548
553
545
538
551
561
567
558
557
559
564
533
517
527
532
540
553
539
525
526
525
526
536
538
540
550
534
511
498
476
487
511
520
522
522
513
504
486
491
497
501
482
456
454
473
504
519
493
469
471
464
463
452
451
446
455
453
453
454
453
453
444
455
448
423
417
417
432
446
443
436
439
441
442
434
422
429
429
426
424
435
460
437
426
430
436
447
453
453
439
437
420
421
434
454
467
457
427
396
402
420
437
441
441
447
459
473
479
465
446
441
441
440
451
450
446
455
444
427
425
446
451
442
438
437
440
461
463
463
468
466
463
468
459
457
475
466
459
446
429
446
458
462
468
465
452
454
472
468
471
480
469
459
466
476
465
450
457
460
451
451
463
487
483
499
495
460
449
454
457
452
457
463
473
474
474
471
473
481
483
460
453
455
441
454
468
469
475
479
484
478
478
480
480
478
468
473
470
467
473
470
468
469
472
475
467
456
461
465
470
482
482
475
471
472
481
489
484
478
464
453
458
472
472
473
474
471
488
476
462
465
477
475
462
456
462
481
485
465
454
456
442
454
472
480
479
495
499
502
517
515
482
467
459
462
489
499
490
483
493
507
526
504
481
473
467
464
489
514
514
534
538
513
517
526
527
510
501
493
508
516
497
492
499
509
502
501
516
528
538
541
548
558
554
542
545
545
537
532
531
526
516
515
507
517
504
488
483
477
479
485
503
507
494
474
458
455
456
453
451
449
462
458
458
459
458
457
450
440
428
439
451
462
462
440
431
436
443
446
452
459
466
454
449
440
438
435
428
420
423
438
448
459
468
474
489
474
452
453
439
422
434
442
449
444
435
425
446
476
473
474
467
436
447
456
442
426
417
426
442
453
461
441
433
435
446
467
487
501
516
516
511
471
454
467
475
486
493
516
535
547
562
569
574
601
624
646
666
650
649
664
679
665
650
659
661
663
682
653
607
565
535
506
467
409
377
342
302
281
284
277
262
242
229
241
262
288
296
307
322
335
342
358
372
383
396
404
410
420
435
437
439
443
471
491
492
489
486
488
505
504
464
444
458
476
490
496
494
489
483
481
477
473
478
483
490
492
485
487
481
479
485
492
499
503
519
521
508
510
515
496
481
504
522
507
483
497
513
511
503
494
492
497
502
518
527
530
535
529
520
503
479
476
491
518
505
510
507
511
524
513
512
518
521
522
515
510
530
555
562
534
498
515
524
523
513
515
508
495
501
523
524
519
523
524
527
542
542
525
512
511
515
520
530
546
532
530
529
526
530
536
537
544
554
560
553
541
529
518
539
548
526
514
516
521
536
550
555
540
522
510
533
570
587
565
540
546
540
544
557
555
546
545
548
544
546
553
562
565
556
548
544
550
556
538
522
532
557
572
575
563
547
544
559
538
531
529
532
535
554
570
566
561
557
540
524
534
551
557
540
528
528
554
564
546
531
532
537
556
560
547
544
535
531
524
523
528
520
526
536
529
514
509
515
514
513
516
511
505
507
502
498
502
497
505
502
487
504
514
488
474
465
467
460
451
459
473
479
494
459
431
439
445
448
431
416
422
441
451
450
441
435
427
420
430
439
434
421
425
451
457
437
432
427
431
457
472
460
439
422
419
419
414
410
415
423
433
432
418
418
436
446
456
460
455
430
427
441
451
463
482
490
449
424
413
417
436
441
435
442
428
442
472
468
467
468
462
477
479
463
443
440
440
437
454
450
452
469
466
468
472
464
451
470
465
457
457
462
463
458
458
465
474
482
467
453
469
467
452
449
452
455
455
449
459
466
473
501
507
513
497
452
404
397
424
459
475
477
492
495
474
455
453
455
460
469
471
474
488
485
478
474
467
463
455
450
462
475
477
467
474
475
480
487
492
479
462
451
451
462
482
483
483
497
499
469
453
451
467
498
492
458
454
482
495
488
458
454
472
488
476
478
474
463
472
477
486
498
515
509
480
455
456
458
473
488
495
494
509
499
489
490
485
488
482
480
486
505
511
489
487
503
512
509
516
515
509
510
510
508
528
525
509
504
511
503
495
494
496
509
533
543
538
534
537
544
535
549
555
560
560
570
556
512
487
490
498
501
502
489
477
477
470
473
475
468
456
457
462
465
453
447
444
438
445
469
473
452
447
451
458
456
460
449
456
460
451
447
437
431
439
463
474
447
428
426
427
431
433
440
444
435
439
442
449
454
439
444
456
452
453
459
465
470
473
474
476
453
418
410
414
418
430
446
450
458
447
442
461
466
458
454
455
448
445
448
441
442
446
448
468
496
490
485
492
487
471
482
501
517
527
542
539
537
549
579
609
622
629
632
646
673
683
676
675
664
677
672
668
673
667
630
582
545
499
447
413
373
326
305
281
284
285
286
291
265
242
256
276
290
302
314
326
335
343
359
373
384
390
408
420
439
462
475
464
461
460
454
453
471
487
488
472
479
479
470
473
472
476
478
477
478
477
478
468
453
476
488
494
494
495
496
510
517
514
499
497
481
470
475
487
496
510
502
491
491
489
498
507
503
509
526
526
513
485
485
494
491
488
493
494
507
530
546
524
492
484
497
508
497
504
524
541
493
488
498
494
495
499
505
503
494
505
511
506
504
512
535
524
525
540
537
525
523
517
500
509
514
511
517
527
533
534
534
545
548
529
522
530
533
537
543
554
544
542
540
542
545
548
541
535
536
527
517
520
527
538
551
549
541
539
532
532
536
547
569
576
558
553
570
563
536
530
534
545
558
561
580
579
576
581
570
550
540
543
546
555
558
557
554
551
537
512
507
521
551
581
568
546
538
556
571
562
540
535
533
551
567
582
586
576
565
547
540
533
522
516
521
540
561
568
558
551
534
509
504
509
516
519
527
529
526
522
524
524
513
523
524
514
519
515
496
487
488
491
489
487
484
487
481
452
455
464
476
502
466
450
458
470
478
479
468
451
447
450
454
453
439
431
438
447
445
442
445
444
440
454
463
474
487
466
427
410
412
422
421
419
430
426
423
425
426
423
428
439
438
443
450
446
450
443
431
435
445
437
434
421
417
424
431
429
430
427
434
455
466
471
450
421
423
436
450
476
485
450
432
444
466
453
455
452
439
443
449
445
460
469
455
454
448
447
458
453
446
448
462
458
446
446
459
465
467
471
475
472
464
459
461
466
463
471
466
461
467
449
447
457
474
474
481
482
467
478
479
462
460
459
461
475
473
473
470
477
478
470
464
475
496
497
481
483
480
478
470
457
455
454
450
451
481
492
473
464
457
459
480
512
491
451
440
458
470
467
472
473
464
452
448
466
477
477
471
466
452
438
453
469
480
498
512
510
508
476
472
474
455
450
457
465
466
463
464
469
469
470
467
468
470
468
473
487
498
489
474
490
480
479
493
497
484
482
478
486
494
501
502
481
469
478
497
498
510
519
500
511
505
492
493
500
517
532
535
520
515
510
506
517
535
515
498
497
505
527
560
553
545
532
524
556
576
550
532
535
528
508
518
527
524
515
508
512
519
516
500
488
480
486
492
481
483
495
480
448
435
439
444
436
433
431
443
429
446
458
453
456
457
459
450
448
450
460
443
435
430
442
445
443
445
439
435
433
445
457
450
447
437
435
442
448
449
450
450
453
448
435
435
432
435
444
443
449
466
482
482
463
450
434
427
428
439
441
440
440
443
455
457
440
456
474
448
433
442
467
475
489
507
507
484
456
465
515
534
535
535
537
551
567
592
617
637
648
646
649
663
675
674
665
659
665
674
674
666
645
613
581
555
520
464
418
359
326
308
289
292
309
281
270
286
295
250
229
251
271
288
310
331
344
361
377
390
400
408
423
433
438
458
460
460
462
484
494
473
453
439
441
461
486
484
490
494
487
481
486
487
485
483
477
499
500
488
487
491
471
471
485
500
493
489
490
502
507
505
499
504
497
476
481
495
519
523
520
494
482
469
473
486
495
501
499
499
502
498
506
512
510
505
501
506
508
511
514
512
518
521
516
501
489
492
498
515
523
528
532
521
503
511
519
514
510
516
515
512
511
515
511
510
518
527
548
565
533
503
508
528
567
588
563
521
505
492
509
511
511
518
524
535
526
538
549
557
562
551
536
537
545
556
561
578
586
540
509
505
528
564
578
570
551
545
548
552
547
527
527
548
553
545
547
557
554
553
557
560
561
563
558
563
556
538
523
523
540
552
560
568
552
538
550
563
559
545
552
554
554
550
554
558
557
552
543
548
565
566
549
534
535
533
532
540
542
543
549
558
553
546
551
547
531
527
530
534
533
535
542
544
542
524
514
522
531
534
536
521
512
527
522
492
478
467
476
477
461
448
464
497
502
489
475
472
474
467
463
466
474
481
492
459
445
435
437
449
457
451
449
441
431
422
424
427
438
440
447
443
450
456
446
439
443
434
439
435
447
450
444
400
393
410
437
447
439
440
442
442
439
445
439
438
442
440
436
444
449
454
457
459
466
460
460
442
439
441
438
434
459
470
461
457
455
451
443
434
441
455
465
452
443
442
458
467
465
452
443
440
447
461
482
495
499
507
472
433
438
458
478
480
474
460
456
460
461
469
467
461
472
475
464
454
457
458
447
451
456
467
475
490
493
466
447
472
497
489
449
434
439
459
472
498
491
466
479
495
474
458
454
449
459
478
498
490
480
485
498
497
472
464
461
464
461
461
465
469
464
467
482
478
481
489
489
476
474
470
465
468
475
481
489
486
472
468
462
454
458
465
472
476
469
460
471
476
476
474
473
472
474
470
472
488
483
490
498
517
505
461
444
455
464
456
466
476
471
487
492
464
448
463
467
455
448
450
461
473
480
481
489
501
496
495
494
501
514
512
493
476
476
487
523
516
519
506
496
483
491
501
507
504
504
517
542
529
498
501
523
550
550
526
517
511
511
507
513
512
508
516
531
536
539
545
556
563
554
540
533
521
513
504
501
520
531
520
504
497
500
502
494
487
486
476
469
463
461
446
429
421
428
455
484
489
477
457
452
449
450
447
451
450
439
454
448
448
467
482
449
430
434
424
419
428
436
454
454
449
450
470
482
462
424
411
452
463
448
438
428
430
436
438
440
447
441
431
443
445
433
432
438
444
462
472
469
455
443
427
417
448
460
458
451
469
473
446
435
439
459
489
505
501
498
489
489
477
467
492
513
522
554
575
579
599
614
639
650
653
675
669
665
669
669
670
685
683
683
678
639
584
542
508
465
409
368
347
327
297
256
235
236
225
221
239
240
230
238
278
310
325
335
344
350
369
396
412
421
434
459
468
449
426
427
438
450
464
478
487
491
493
492
485
476
483
482
478
459
469
471
475
481
496
502
487
456
456
467
478
487
500
500
490
488
491
494
497
496
495
495
497
512
534
518
492
497
506
491
488
514
533
522
510
490
495
503
503
508
500
501
513
519
501
485
477
497
522
512
504
498
497
504
518
523
519
522
523
506
501
521
535
531
527
528
523
513
504
513
530
531
513
514
519
523
529
520
504
512
530
555
550
550
553
543
527
527
527
525
527
531
534
538
541
542
562
567
553
527
527
506
502
517
533
534
520
529
540
535
522
535
569
580
565
557
545
539
538
543
546
548
548
558
566
561
556
558
555
563
570
561
549
538
534
544
557
562
572
549
546
550
550
561
566
568
569
568
552
540
553
564
566
556
558
544
525
534
560
551
534
531
532
533
541
542
542
546
563
570
553
528
530
531
536
525
516
523
531
532
533
533
528
534
549
555
533
507
500
514
521
518
517
516
523
538
540
506
479
463
463
460
473
483
487
482
489
494
498
496
471
437
439
452
461
441
421
430
441
448
457
456
462
459
445
424
422
421
419
424
437
443
445
440
434
430
424
428
431
429
444
445
445
429
438
438
429
427
427
428
433
430
433
460
491
467
424
417
428
435
440
441
449
446
444
449
450
452
452
430
430
420
431
457
463
451
441
434
437
450
454
461
458
453
459
465
464
458
450
441
456
470
465
473
472
453
442
454
479
497
485
447
425
447
468
494
490
461
452
459
455
436
442
459
475
504
509
503
476
428
419
439
453
462
470
454
457
469
477
479
474
465
473
469
473
483
477
463
449
461
467
454
454
456
472
483
481
469
461
459
460
464
455
442
448
490
501
467
451
452
479
499
489
476
474
466
463
466
481
489
477
478
484
473
468
464
450
449
455
479
465
454
453
467
461
459
460
458
465
476
482
483
476
471
470
475
473
465
461
452
441
459
481
485
485
480
486
488
487
467
451
443
450
453
461
470
476
485
491
488
495
478
473
478
483
489
503
499
480
477
486
494
502
506
495
494
500
505
506
507
505
502
512
532
531
527
546
554
523
514
522
527
534
535
512
488
488
507
528
533
536
531
556
566
555
547
548
537
507
517
523
521
520
521
516
504
486
477
492
509
502
481
477
480
477
466
459
453
452
453
442
433
442
460
460
454
451
453
447
435
431
432
441
449
450
460
475
462
451
446
445
446
451
446
455
479
473
434
418
426
440
453
458
466
474
461
443
429
423
437
440
440
445
453
438
424
438
462
473
462
432
432
445
450
433
423
432
456
479
447
442
446
444
442
456
476
478
481
475
470
476
471
477
498
500
490
484
499
509
524
545
562
580
607
631
653
670
688
675
651
648
661
688
655
644
661
656
654
657
631
575
512
472
419
368
337
320
291
277
259
247
235
217
217
228
248
283
304
301
304
314
314
323
336
355
389
401
407
428
463
477
477
467
443
429
440
477
493
508
512
510
484
461
464
480
474
444
459
504
521
519
496
473
466
471
491
497
485
484
481
479
481
491
501
504
507
503
490
487
483
483
488
492
490
480
486
493
506
518
514
506
501
501
505
505
516
516
514
512
509
511
511
512
504
518
515
512
527
541
539
551
546
528
501
475
484
514
524
521
507
504
498
499
499
516
521
525
521
534
546
534
505
507
521
529
520
505
496
496
517
538
543
547
549
535
519
523
532
540
545
572
554
527
533
544
559
563
543
515
519
538
527
502
515
545
575
572
565
561
560
560
550
530
534
566
570
548
546
550
544
541
541
539
546
562
555
557
566
568
579
580
582
580
541
512
517
527
554
560
558
557
554
557
552
549
548
545
544
558
572
562
553
556
561
558
532
525
540
549
549
552
554
562
567
561
541
531
540
536
533
540
542
543
531
527
541
550
533
513
512
521
532
529
518
511
515
525
528
525
512
505
492
487
474
487
514
511
469
452
469
469
465
464
466
471
480
481
472
460
459
472
492
497
470
445
429
435
441
439
436
421
427
461
480
482
441
427
427
428
431
434
430
438
443
447
442
423
419
420
425
429
434
433
427
434
432
444
435
425
426
436
447
427
426
444
447
446
460
478
477
465
445
433
421
442
447
445
451
445
439
423
428
432
433
439
438
442
459
459
456
453
446
447
461
480
471
456
454
464
451
453
455
457
465
473
483
487
477
447
458
466
454
432
449
470
474
466
458
459
467
463
457
468
465
464
473
485
490
469
457
466
481
460
437
454
487
499
495
486
471
452
458
478
476
462
464
443
444
455
478
482
478
475
475
471
472
482
484
462
460
464
474
476
466
457
477
476
493
475
462
467
459
466
474
484
506
498
462
437
429
442
477
505
483
479
490
476
482
479
462
456
451
440
449
460
469
472
469
467
481
502
497
482
465
457
465
484
483
486
486
473
474
490
503
496
481
483
498
487
485
499
505
504
489
490
517
511
512
514
506
510
511
525
530
525
505
494
492
507
517
514
504
519
532
528
520
516
510
511
537
572
600
606
609
567
520
494
493
498
508
510
505
493
485
484
483
484
486
483
480
479
472
453
451
455
456
465
474
470
481
473
467
450
447
444
456
427
438
450
449
463
449
448
462
474
476
457
430
432
437
446
444
446
451
440
448
442
451
473
466
449
447
445
444
438
434
436
435
439
443
430
441
447
451
458
457
443
421
447
482
481
453
430
432
457
459
449
441
448
456
461
463
479
493
490
480
480
507
500
492
489
487
486
497
515
532
553
576
576
589
605
621
631
649
681
699
693
666
643
647
664
679
689
682
643
607
572
516
466
421
396
378
355
339
313
277
262
241
238
235
244
262
284
305
314
322
326
348
375
408
425
415
408
402
432
420
426
439
442
446
458
474
482
484
476
458
475
514
523
502
483
479
487
488
489
471
458
452
472
507
521
517
498
481
464
466
479
494
505
503
495
504
529
525
504
483
487
506
508
490
500
496
477
482
495
517
532
518
505
504
492
498
505
515
532
521
496
506
515
511
503
499
503
498
505
510
518
526
530
521
511
515
502
479
496
518
522
528
535
536
524
521
524
529
511
520
534
544
538
499
483
496
513
519
529
551
551
557
534
517
519
528
522
518
519
521
527
525
526
525
530
529
531
531
536
530
513
531
542
538
546
562
545
542
548
531
533
539
545
581
599
571
545
538
539
544
559
563
569
564
556
551
545
551
561
558
544
542
538
547
552
548
550
548
547
542
549
554
554
551
544
552
553
546
541
542
546
547
544
537
542
557
555
558
543
546
540
535
542
535
526
526
537
570
582
563
517
510
523
551
539
524
518
537
559
544
538
518
488
489
505
511
516
512
507
486
478
497
509
503
496
496
489
476
475
450
448
470
479
478
477
473
484
473
446
459
477
460
440
432
428
439
445
441
454
455
445
446
454
456
471
469
443
418
417
418
430
442
445
448
437
419
413
418
421
419
413
421
426
441
444
448
449
452
451
459
453
435
429
433
439
439
436
431
430
429
435
437
443
448
435
436
442
460
480
472
469
463
445
438
449
455
445
437
438
447
453
462
459
463
459
462
463
471
490
483
464
453
435
437
439
459
472
470
452
447
473
507
506
470
440
427
440
453
452
462
467
469
465
482
521
514
495
478
463
454
456
460
455
461
469
458
447
463
483
506
515
497
472
476
482
488
488
474
452
465
460
448
456
479
483
474
473
468
466
463
469
467
461
467
467
466
466
466
481
505
517
504
480
458
449
460
464
463
459
469
478
487
486
494
481
475
475
475
484
489
487
487
493
494
489
489
500
495
488
499
492
484
487
487
477
464
463
470
491
536
538
528
540
526
502
510
535
520
500
499
510
515
507
513
518
521
518
507
520
515
516
545
572
544
512
504
536
545
539
533
524
522
518
508
480
468
459
490
509
490
489
471
465
469
473
468
451
451
456
472
476
469
475
459
447
457
463
458
456
452
444
441
441
447
450
448
428
433
435
436
435
442
452
446
450
449
451
455
460
452
433
409
419
439
466
457
438
436
437
443
449
459
459
454
447
421
425
435
431
447
475
466
447
449
454
461
458
432
428
462
494
493
492
482
456
442
447
453
463
476
468
482
477
481
486
494
525
545
553
567
578
567
583
606
626
644
661
646
640
650
665
670
669
670
663
664
664
647
614
560
518
484
440
393
363
341
317
309
299
278
262
268
287
284
279
288
300
291
295
323
357
385
399
406
424
420
414
422
435
443
447
458
468
472
473
481
482
469
452
463
471
468
476
483
484
472
464
469
474
488
501
495
498
469
470
485
478
483
473
476
487
500
500
498
502
506
493
483
498
496
471
466
482
487
495
489
490
485
493
514
528
532
532
516
492
495
464
471
485
488
501
520
526
502
481
492
519
546
519
490
465
484
517
519
500
492
504
518
518
516
515
511
510
505
515
514
515
515
511
508
519
526
524
524
521
517
529
534
523
535
544
544
521
506
529
525
518
539
537
528
540
546
544
531
530
541
549
552
561
566
541
504
478
505
532
539
529
543
567
556
541
558
549
548
541
530
523
535
545
551
555
561
552
539
544
556
581
587
568
545
545
550
540
533
538
552
547
539
538
543
552
557
549
545
543
549
556
557
550
535
527
538
548
545
544
554
550
555
545
537
539
554
552
536
535
532
550
564
552
537
538
538
542
525
507
499
505
508
520
530
522
507
507
509
508
501
504
499
486
495
503
508
519
499
474
470
468
470
472
479
481
479
472
485
502
475
436
430
435
431
428
422
449
458
434
451
455
432
410
408
417
424
431
429
428
437
443
458
440
437
423
440
435
433
424
414
430
418
417
427
434
434
439
441
451
451
445
444
445
463
476
470
436
415
410
409
424
441
462
484
475
438
421
428
435
437
444
444
450
446
439
429
444
480
492
462
433
447
459
469
477
482
449
430
436
440
440
439
442
453
466
483
482
479
461
460
466
460
462
474
473
448
428
437
465
482
477
454
458
462
467
474
495
495
483
480
476
456
430
432
445
457
465
460
465
469
467
458
453
450
481
504
487
468
459
452
453
463
468
450
476
495
482
476
485
478
468
468
474
469
464
459
466
476
488
488
467
453
440
440
444
463
456
455
491
509
511
507
473
458
464
473
484
492
500
494
487
475
470
482
512
510
480
478
487
492
508
519
514
496
488
485
489
507
517
512
509
510
508
519
518
520
530
508
507
537
530
474
472
489
508
517
526
544
553
537
530
543
539
530
537
541
546
544
515
500
498
489
477
485
498
500
498
499
479
468
495
498
485
460
428
427
444
462
464
473
478
469
444
434
441
440
439
439
440
439
439
442
434
429
431
439
442
449
456
454
449
446
459
458
450
449
454
456
452
441
437
442
448
439
439
437
425
417
413
427
461
466
445
442
454
454
453
459
461
475
467
440
445
453
449
443
438
454
442
432
439
437
441
451
459
470
464
479
499
488
477
479
481
481
504
533
558
584
585
590
594
599
618
637
649
656
659
663
668
679
682
693
685
682
672
648
608
567
521
464
413
371
363
342
313
298
267
239
227
228
260
275
279
289
293
288
297
326
356
368
368
370
391
412
427
438
434
438
446
451
451
451
458
464
466
467
469
466
465
465
473
480
486
486
481
477
471
476
491
505
495
497
470
443
451
471
486
499
512
492
495
500
488
472
473
480
472
475
495
499
494
495
505
514
513
517
506
501
513
509
500
489
497
499
502
503
507
513
507
483
482
488
492
496
501
507
509
510
510
511
515
518
523
528
522
506
512
539
515
502
506
512
516
523
518
503
502
510
517
520
520
525
533
540
542
532
515
515
521
524
518
527
534
528
522
521
517
523
533
534
530
528
532
533
541
553
558
548
535
529
536
543
548
540
522
532
558
563
547
543
543
549
552
548
541
533
529
536
535
537
549
568
592
571
557
555
560
559
563
572
575
570
552
531
531
571
560
555
554
552
566
567
553
542
544
558
558
560
570
561
536
518
529
538
546
556
558
557
561
567
565
553
544
537
515
509
509
502
509
530
542
548
556
552
548
528
506
501
515
504
503
502
501
502
517
514
501
493
497
502
496
488
487
484
477
482
493
489
463
454
448
464
477
461
456
458
454
436
423
430
443
456
451
437
429
430
444
460
457
448
470
456
443
429
409
417
430
433
427
428
430
423
427
427
442
470
469
437
413
426
429
432
439
436
439
441
437
431
430
445
466
478
460
460
449
451
457
471
446
445
455
473
478
427
400
418
428
425
430
436
456
481
479
453
430
426
438
450
461
458
454
456
461
466
461
450
455
460
465
467
465
460
460
467
483
480
468
467
473
471
477
478
468
454
439
426
440
464
484
488
479
473
469
472
486
487
483
469
461
462
465
475
481
474
474
474
458
450
453
460
465
466
467
471
475
480
478
476
478
474
471
463
461
469
481
472
466
456
458
481
488
483
480
484
484
474
481
468
448
459
467
468
482
477
464
462
464
462
465
470
471
479
486
491
488
471
472
475
485
487
512
513
482
486
493
462
447
454
484
508
497
495
492
493
490
494
502
515
524
520
525
508
489
490
502
502
505
515
517
514
509
522
535
542
527
500
479
476
492
505
515
521
528
536
547
555
560
563
562
544
517
520
533
550
548
532
520
510
502
497
506
509
508
483
472
470
472
475
479
471
456
455
453
448
449
454
446
437
435
439
454
464
460
445
438
444
433
426
426
432
449
460
438
433
459
482
477
451
442
447
455
441
426
450
475
463
450
432
436
441
433
436
445
441
447
466
479
496
501
459
413
404
417
432
433
428
430
444
467
479
457
433
445
448
444
444
430
446
465
458
447
457
488
504
504
500
502
497
494
508
540
545
548
560
583
610
636
650
653
644
653
661
669
664
680
696
703
677
667
676
671
634
589
552
514
470
408
367
338
306
282
268
259
248
244
249
263
283
289
282
278
295
313
327
331
352
367
387
402
408
423
446
461
459
450
440
450
466
477
484
487
489
492
489
480
478
476
470
485
470
475
478
480
480
485
488
494
500
506
500
479
458
471
519
539
492
490
488
467
475
488
490
496
522
528
504
488
497
494
491
489
498
496
508
523
520
489
475
484
500
513
522
529
544
532
511
499
504
506
506
500
498
508
514
515
529
536
519
502
515
528
520
501
499
518
520
513
519
526
530
522
521
518
507
509
523
523
522
523
527
544
551
539
531
532
547
548
550
578
577
545
523
509
524
529
524
519
510
518
530
547
551
547
543
533
526
528
533
538
550
555
556
556
545
535
544
571
584
562
547
545
535
535
540
552
556
552
544
547
550
553
561
573
580
573
551
537
544
554
553
551
557
560
558
555
563
562
538
540
547
548
546
552
565
564
544
539
546
550
557
539
536
557
560
553
563
558
546
559
572
565
560
558
544
522
517
513
513
536
547
538
522
506
515
527
542
556
542
523
513
509
505
512
526
528
534
509
481
471
498
487
483
493
479
454
464
473
479
485
470
454
443
446
448
451
455
443
449
459
449
426
422
430
432
432
437
447
452
453
450
452
464
453
433
436
430
411
423
434
437
438
442
440
438
448
453
456
449
433
440
438
436
444
460
466
456
433
427
431
434
438
434
427
429
444
452
448
449
445
443
446
453
462
467
465
466
457
455
458
466
468
456
454
434
443
458
474
476
484
493
494
475
435
433
448
448
458
471
480
477
452
464
461
451
459
468
481
488
484
473
450
457
478
497
496
476
460
455
457
466
467
465
474
480
484
490
488
504
481
461
458
464
455
450
461
472
478
471
467
476
479
476
482
471
467
464
463
472
475
474
486
494
491
476
460
456
465
485
477
448
444
451
461
475
480
497
513
506
474
448
444
453
464
468
481
488
489
484
481
475
472
473
477
479
472
474
485
469
464
477
472
481
496
481
469
459
442
450
466
479
492
498
499
497
485
473
479
460
474
502
517
511
514
528
509
491
491
503
515
522
524
525
515
519
533
508
499
503
518
536
518
514
513
509
506
500
508
520
525
542
543
546
542
543
547
541
545
567
565
531
538
517
523
528
511
495
495
502
514
505
481
468
470
476
475
468
465
477
475
464
448
456
455
445
448
462
457
438
436
441
460
469
482
473
447
426
428
430
431
431
439
445
428
404
406
443
453
471
449
436
437
442
457
476
466
443
442
445
445
425
416
432
451
465
466
460
450
447
448
450
454
459
457
466
457
457
446
422
411
424
442
466
476
464
444
443
453
461
468
477
494
494
494
502
510
494
484
507
542
542
543
561
587
617
636
659
654
641
645
661
665
677
685
678
682
677
665
657
644
624
589
545
493
424
394
381
341
305
283
266
246
223
210
230
253
279
290
276
277
308
344
350
353
363
374
385
411
425
417
405
416
436
461
464
462
472
484
493
490
482
483
492
486
479
480
471
471
471
472
474
473
472
478
495
506
504
507
500
493
482
494
510
534
523
495
479
480
471
473
483
493
505
505
505
517
533
524
495
490
485
488
491
490
494
507
532
533
518
519
510
499
494
499
500
512
520
519
526
531
516
505
509
526
523
499
491
497
518
523
509
498
501
508
528
546
548
548
530
502
493
525
537
533
525
508
507
510
515
524
540
549
544
530
516
518
532
551
549
541
539
540
518
516
539
548
542
539
542
537
537
541
544
546
553
552
536
527
533
540
553
552
554
533
539
567
568
560
556
555
557
558
557
556
544
545
552
562
570
580
580
558
538
539
548
548
543
539
524
540
562
565
570
561
528
524
528
530
547
569
589
597
573
545
523
532
538
540
545
552
557
552
540
515
509
559
587
584
551
521
524
537
540
535
534
526
515
517
527
536
532
524
519
533
547
526
500
500
506
506
511
515
505
502
499
511
537
536
505
470
460
471
475
474
473
460
456
455
458
461
459
451
451
454
450
447
445
444
444
440
433
437
428
447
430
431
429
433
435
435
432
428
431
432
420
414
425
442
469
466
447
437
429
424
434
445
453
457
439
424
428
448
442
434
433
434
441
452
453
440
420
420
442
460
454
443
438
451
473
487
478
449
431
439
451
444
434
421
426
444
446
450
454
455
452
445
451
455
455
468
475
475
484
481
484
475
450
434
438
442
447
455
464
464
448
457
472
466
470
469
464
481
494
488
475
464
453
452
474
452
452
460
461
468
471
472
470
469
469
468
467
464
480
471
461
450
452
463
478
488
474
465
473
470
449
441
470
479
485
483
483
499
507
495
467
448
425
429
448
452
469
475
464
475
485
490
490
482
489
503
509
500
477
464
456
445
452
461
475
496
500
511
511
477
433
429
443
447
458
460
449
437
443
454
464
483
478
477
483
472
457
471
484
511
505
481
465
462
494
510
501
485
485
488
497
510
530
494
487
483
494
497
501
502
499
505
512
520
528
517
512
513
514
520
519
522
519
514
508
502
510
523
533
540
543
553
559
563
560
549
544
543
537
524
513
512
520
517
512
493
478
480
505
511
504
487
486
482
449
445
465
483
488
504
476
429
418
423
437
446
444
441
435
433
437
440
445
447
434
430
437
443
453
463
464
470
467
453
437
439
440
457
463
462
455
450
438
432
442
430
436
452
453
462
450
429
414
405
410
450
458
455
455
446
444
452
463
470
493
486
469
454
435
420
415
429
449
455
455
466
482
475
472
477
477
483
491
484
475
486
506
525
541
554
562
575
599
610
629
654
665
682
690
691
689
677
679
672
675
678
674
660
629
587
547
505
456
419
390
356
313
276
262
244
233
210
225
260
280
280
280
280
296
314
345
353
359
369
396
410
407
404
412
433
457
485
479
471
466
473
478
483
489
485
474
467
476
475
477
486
497
503
501
485
490
484
486
482
491
499
504
498
505
502
486
476
466
470
496
497
484
492
502
498
493
494
496
507
521
523
520
517
521
522
490
470
474
495
512
524
526
526
515
494
507
516
516
511
496
489
495
504
517
519
524
518
523
525
536
531
517
510
515
526
526
511
506
524
544
530
514
503
518
538
541
538
518
511
518
528
527
530
528
526
522
523
530
535
541
541
552
553
544
530
525
537
546
547
549
560
564
547
527
517
527
543
557
555
550
549
556
559
551
553
557
556
560
559
555
546
539
548
554
549
546
558
560
541
549
575
576
568
553
551
558
554
554
554
556
559
560
557
560
559
558
565
568
577
574
548
537
573
581
551
525
520
538
569
571
559
551
530
534
541
542
540
532
523
537
547
541
539
537
533
533
529
563
579
558
558
550
528
521
523
518
506
509
526
511
528
536
516
494
491
479
487
506
506
502
491
481
487
492
480
459
459
454
450
474
483
478
474
474
462
436
433
440
455
467
460
456
462
444
426
431
442
453
453
446
430
430
431
426
422
433
443
445
450
454
445
438
457
457
434
415
413
422
431
434
435
439
436
435
435
439
431
419
427
446
459
464
456
445
456
463
446
432
437
455
450
448
448
438
443
465
482
484
471
447
431
439
443
453
461
459
463
458
464
461
452
463
476
453
468
476
471
461
452
468
484
497
486
468
452
447
474
504
523
500
497
457
431
424
435
450
446
465
472
465
466
464
472
475
489
490
473
480
487
483
478
466
468
469
471
478
470
471
468
475
473
476
485
483
468
466
472
490
506
493
464
450
470
479
476
468
476
474
467
464
478
465
461
483
482
477
477
471
471
470
472
472
470
466
464
478
466
467
470
471
473
475
472
475
475
471
470
476
486
478
479
483
490
485
481
477
467
480
501
506
489
474
482
495
515
518
512
516
498
495
488
483
476
491
525
537
536
543
520
487
476
499
519
527
516
507
507
508
504
511
510
506
507
499
502
524
551
570
566
555
542
528
521
532
538
537
522
511
506
495
499
512
515
499
493
490
486
496
486
467
457
460
463
450
461
450
424
431
456
465
478
480
466
459
455
449
446
435
426
423
428
442
460
470
457
458
473
454
454
455
459
459
459
455
454
457
454
443
449
461
437
427
438
444
446
451
460
456
445
441
451
453
455
447
448
448
450
467
456
439
439
456
472
484
479
467
460
445
438
446
459
469
483
496
508
512
497
474
472
470
488
497
501
516
531
545
556
575
607
631
641
647
656
651
644
650
660
668
666
662
659
648
637
621
582
553
527
486
432
390
358
336
320
309
304
320
303
259
245
264
278
295
308
313
309
326
339
366
393
418
441
433
421
430
445
449
452
459
461
448
458
481
499
496
492
469
445
448
467
492
502
496
491
478
479
489
489
476
452
459
490
486
491
500
511
503
487
489
497
502
503
507
496
482
485
486
490
499
501
506
517
511
500
484
494
519
522
515
499
489
507
515
511
508
495
493
497
501
499
497
493
493
507
526
521
513
505
505
520
522
511
508
515
512
504
510
512
514
514
517
517
515
518
527
529
533
517
534
547
544
530
515
504
478
476
502
535
544
543
518
519
534
538
523
511
509
509
548
583
580
558
554
513
497
513
539
536
538
540
541
548
554
563
567
552
543
547
543
526
527
548
554
562
566
558
551
555
567
566
568
569
560
556
556
529
524
536
557
557
537
556
542
540
540
541
551
549
536
543
549
553
577
568
561
556
551
542
545
551
552
542
531
533
531
542
548
549
545
534
534
531
525
536
555
550
547
536
528
541
538
538
530
530
531
527
515
519
520
524
534
512
469
465
489
501
502
505
508
513
478
474
476
487
493
476
455
454
456
458
462
465
454
451
451
457
463
457
451
441
442
463
452
450
442
439
434
436
436
440
444
443
445
451
438
428
415
417
429
444
449
459
455
432
442
454
446
444
436
429
433
435
430
423
425
429
431
433
432
428
436
451
449
432
436
445
455
450
430
423
426
441
439
442
455
463
458
452
456
473
488
495
475
437
415
420
436
441
441
430
427
429
458
471
473
469
482
478
456
455
459
465
464
456
456
458
458
463
468
468
468
473
480
461
456
465
465
461
473
470
462
462
476
482
475
475
479
479
477
478
478
464
466
473
472
471
484
494
487
479
468
478
482
480
472
473
473
466
460
456
463
472
506
519
495
476
471
459
471
501
507
461
443
445
453
458
455
461
471
483
477
470
473
470
464
489
507
496
491
497
502
492
471
465
470
472
483
475
490
491
477
461
453
462
472
474
497
523
531
535
511
491
464
471
509
526
530
531
532
527
502
497
507
516
521
526
530
523
502
492
491
495
503
506
510
512
515
515
526
540
548
555
556
556
559
560
555
522
503
491
494
498
502
488
477
472
473
476
475
470
468
462
458
458
451
458
471
461
455
449
441
435
431
432
437
441
451
436
449
460
464
474
455
435
428
438
452
468
464
437
423
446
442
439
451
453
452
465
446
424
421
420
435
437
431
443
431
428
441
431
432
445
472
465
446
432
451
463
454
441
435
449
449
447
464
471
451
438
443
448
460
465
461
459
471
485
498
501
488
480
473
461
477
498
520
533
541
563
578
594
620
635
629
640
653
652
654
669
675
684
689
675
669
654
643
610
573
528
474
420
379
351
340
316
290
285
270
250
236
237
253
261
273
294
313
323
335
351
364
385
411
417
413
405
408
427
446
450
455
477
486
481
451
448
470
486
482
479
465
471
462
478
504
504
509
492
472
442
441
463
478
483
477
481
489
486
485
501
516
506
493
500
509
507
506
503
487
474
475
481
479
473
473
481
503
509
508
512
514
509
508
512
512
503
495
504
502
488
488
497
508
534
527
517
504
494
494
498
495
486
488
489
515
538
527
514
515
524
531
541
565
516
495
502
514
516
510
519
519
491
497
502
505
514
524
523
530
538
535
533
542
557
550
525
496
503
527
534
546
557
556
533
531
542
550
570
559
544
532
503
481
499
541
577
580
561
550
542
542
551
565
555
546
544
542
540
542
543
539
547
554
557
565
563
555
554
555
560
567
570
563
550
553
564
568
562
564
564
542
525
527
528
547
560
563
561
554
553
551
543
540
549
562
572
551
553
557
555
545
535
532
533
535
523
523
545
547
538
545
541
547
549
543
516
505
502
496
504
517
513
504
496
488
519
531
515
505
505
509
513
517
501
463
440
456
464
464
463
463
466
458
457
461
461
458
455
452
439
440
437
438
442
472
476
467
463
450
433
423
429
419
429
445
463
440
411
420
434
437
429
426
433
432
432
431
436
433
420
409
422
435
446
449
441
442
449
449
440
439
448
447
434
427
416
420
434
442
437
440
451
455
470
463
424
421
439
461
473
454
446
457
474
467
466
454
443
436
451
468
469
464
468
481
473
447
425
423
430
444
461
471
475
474
468
448
444
450
456
461
472
471
464
465
485
490
478
447
442
437
452
490
499
488
477
488
482
442
445
458
478
482
466
458
467
474
482
481
475
472
449
455
460
474
481
486
469
453
461
465
469
475
483
480
491
496
481
474
461
462
474
475
460
459
461
465
465
456
456
468
479
486
497
501
476
457
447
454
454
456
459
455
482
503
483
459
461
469
476
474
480
481
477
487
467
446
458
488
497
474
469
480
485
464
469
488
501
503
503
506
501
491
475
482
494
499
506
511
510
512
508
504
505
501
501
514
522
502
509
524
529
516
499
490
482
495
517
537
551
531
519
522
535
531
520
522
519
517
534
556
549
537
529
525
529
538
522
495
501
497
488
478
481
483
466
457
458
465
480
479
463
446
448
453
457
447
431
432
439
443
457
467
464
456
442
432
433
436
435
417
402
408
440
467
476
457
449
468
448
439
444
445
452
451
458
473
477
472
462
452
449
434
418
415
426
450
472
460
437
443
459
441
427
432
436
432
438
448
446
427
428
436
448
436
448
457
458
460
466
470
473
478
474
474
505
502
486
484
497
527
548
562
574
597
607
611
604
612
620
631
640
659
666
671
692
694
679
676
673
655
625
590
536
500
447
383
353
350
322
278
265
275
265
259
244
219
241
268
291
303
309
316
341
366
383
404
405
394
408
421
438
449
446
446
454
469
488
498
506
488
461
453
465
471
463
476
482
487
494
498
511
519
513
490
461
448
453
473
495
494
483
485
491
509
505
500
511
511
506
504
510
497
492
499
486
485
493
497
498
482
475
482
482
492
497
493
503
528
540
520
505
519
531
525
515
488
492
503
531
537
517
497
478
470
499
516
513
527
526
508
507
510
506
513
520
523
525
504
496
519
536
530
520
522
523
512
513
521
524
526
524
523
531
533
532
530
527
526
538
578
561
527
509
515
503
496
511
534
549
563
560
546
539
534
536
536
539
545
552
563
561
562
569
572
581
577
557
554
572
575
555
555
555
539
528
521
525
541
561
566
555
539
533
534
538
549
565
574
568
565
564
559
557
552
544
552
546
537
552
566
558
546
537
541
567
578
587
557
530
541
538
542
552
554
549
535
533
545
552
546
543
522
520
529
532
536
545
532
525
535
552
551
538
514
503
505
504
495
496
505
508
506
491
484
515
525
520
499
478
474
472
466
472
480
477
466
460
449
454
483
496
472
462
461
465
466
450
444
428
426
442
447
432
431
436
436
424
416
419
436
449
444
437
454
439
444
449
430
417
413
416
422
444
460
464
440
421
418
429
437
445
453
451
427
420
429
430
439
454
462
468
475
468
444
425
426
430
434
436
446
454
453
444
448
458
461
461
454
457
460
467
498
470
434
457
454
442
437
444
451
450
448
460
465
466
464
458
471
476
473
478
473
448
443
435
451
479
463
457
466
465
464
468
480
490
487
482
467
449
440
454
451
450
467
480
494
486
465
465
468
472
475
482
470
447
446
470
490
481
488
498
485
477
474
464
455
461
456
438
452
460
470
495
503
487
472
475
477
477
458
459
474
494
502
503
494
455
442
453
455
447
450
458
467
475
475
472
471
490
500
487
478
464
457
462
466
482
494
481
472
480
502
494
471
469
460
453
453
474
473
464
456
458
468
466
470
477
475
482
493
495
481
479
491
486
460
456
477
475
461
475
479
472
487
504
498
502
491
473
472
489
519
514
492
493
516
522
517
514
516
516
518
517
526
528
537
532
510
491
496
492
498
513
517
548
568
535
522
533
540
552
547
542
543
546
551
549
545
546
532
529
514
499
489
488
498
496
485
479
480
479
474
485
480
460
448
457
461
458
447
451
451
462
465
451
448
463
468
449
454
453
455
451
444
444
450
456
469
471
422
422
436
435
431
434
440
443
448
443
442
445
469
458
426
437
451
459
480
493
473
418
411
420
432
442
450
450
449
451
461
464
449
437
438
460
470
462
460
456
460
457
454
459
456
445
457
482
489
462
453
482
496
503
507
511
539
564
579
592
592
608
634
648
651
646
648
656
664
665
674
681
683
662
654
668
673
646
598
547
491
439
401
383
345
297
277
278
257
236
225
227
240
251
263
289
308
323
346
343
346
351
382
402
399
406
431
454
465
444
437
458
478
483
493
490
494
476
456
460
452
476
498
505
504
489
476
464
477
474
473
475
480
485
489
489
499
507
507
498
495
485
512
505
496
491
471
481
502
506
508
511
508
500
492
486
503
528
514
495
492
495
497
507
536
543
536
526
523
520
516
512
505
513
518
518
522
519
499
486
496
506
508
519
528
516
502
508
510
515
505
496
485
487
515
540
536
538
540
531
521
516
516
518
519
511
514
537
538
542
541
537
528
525
532
542
547
548
539
537
526
515
515
534
557
549
547
551
526
532
549
551
551
558
558
541
532
538
535
544
538
523
523
539
555
553
555
559
562
557
561
555
565
594
575
555
538
536
548
572
558
534
517
527
539
548
552
567
555
557
556
559
560
543
554
572
579
584
578
544
539
547
544
527
526
524
532
535
541
540
553
566
564
568
565
546
532
529
543
553
522
497
511
517
524
528
522
524
524
522
527
537
548
554
544
530
529
508
493
487
471
457
463
482
518
539
525
504
482
475
498
503
477
445
410
429
455
466
462
453
446
458
470
458
458
443
455
458
442
434
436
445
441
426
421
423
427
434
439
448
453
440
435
397
401
413
414
433
448
468
473
444
429
427
418
412
422
444
433
415
425
448
438
436
455
451
428
427
432
437
437
436
433
441
451
445
440
441
447
453
456
449
451
450
466
469
461
465
472
476
463
439
426
437
449
446
454
453
462
458
438
436
440
451
462
461
459
455
472
476
470
483
458
448
441
450
464
477
482
461
464
461
451
459
473
481
491
491
491
477
467
455
456
472
482
469
468
467
460
461
462
454
451
477
495
479
454
454
465
467
461
468
473
486
500
503
504
472
467
449
455
452
455
456
458
466
467
484
486
482
470
462
453
463
461
464
469
471
470
472
475
475
456
449
468
472
470
480
477
470
483
479
469
481
496
472
453
447
442
454
468
471
471
466
461
460
458
458
463
464
468
465
468
461
454
451
451
456
473
479
461
465
478
490
508
508
500
503
504
497
492
510
498
494
477
464
464
470
466
481
496
501
501
501
540
531
492
491
509
513
508
505
510
515
512
501
500
503
509
507
511
513
514
513
525
540
539
548
557
565
550
550
552
538
515
513
511
517
528
509
492
495
495
496
492
503
501
489
463
459
445
446
470
476
458
445
444
432
419
419
425
440
448
447
450
443
432
437
450
448
430
414
426
447
455
451
442
442
454
467
480
480
456
427
427
437
438
435
430
430
436
444
443
457
439
433
448
446
432
435
433
445
462
465
442
414
429
453
441
444
450
455
442
437
431
421
425
440
437
426
424
430
450
462
465
470
475
499
494
492
488
478
490
498
499
522
546
561
580
600
610
626
616
613
636
668
688
685
670
664
665
670
684
673
655
614
580
532
487
431
370
331
311
292
279
284
268
242
214
214
255
274
252
231
267
300
314
334
362
377
383
385
401
419
432
438
447
462
467
465
454
449
465
470
477
486
490
488
481
467
474
482
486
490
473
488
508
493
486
485
487
490
491
501
486
476
471
471
480
489
507
501
500
493
505
530
540
544
491
