318
314
313
311
302
303
307
313
320
321
304
300
305
306
302
296
291
292
293
293
302
299
298
307
313
319
322
315
303
300
299
290
280
276
279
273
272
277
269
250
246
247
245
242
242
240
237
239
236
229
227
225
221
216
208
203
208
219
226
235
242
242
233
226
228
233
237
228
223
226
230
233
236
241
245
244
241
238
237
230
228
230
232
235
238
244
247
247
248
248
253
260
261
262
267
268
266
268
265
264
268
273
274
273
274
272
267
266
273
270
268
274
285
295
302
306
314
330
334
325
322
326
330
340
344
352
360
368
386
407
426
440
455
478
499
518
534
545
555
560
561
560
567
570
574
569
569
564
548
518
472
425
379
318
269
239
204
170
146
130
114
88
75
82
105
129
148
163
179
191
203
219
237
258
276
298
315
325
329
334
344
350
355
361
368
382
399
408
404
397
390
390
390
392
395
398
394
398
405
405
404
403
407
404
404
413
413
407
406
414
420
424
425
430
433
435
436
438
436
438
444
445
442
441
442
445
447
445
444
449
447
448
452
460
463
461
456
459
463
460
457
452
457
462
462
463
465
462
460
459
462
463
466
470
473
477
480
485
484
486
487
483
480
483
487
489
489
484
477
481
482
487
499
502
495
493
494
504
512
500
494
496
496
500
498
499
499
496
495
496
502
505
515
520
519
515
512
515
518
520
521
514
504
498
493
502
519
535
548
547
539
530
529
527
529
539
537
535
536
536
534
530
527
532
536
544
541
535
539
535
534
534
536
536
534
536
532
528
525
528
533
537
540
547
546
544
544
541
534
531
531
534
535
536
540
541
538
538
537
538
541
541
542
538
531
527
528
524
528
537
536
527
523
522
526
528
524
518
517
516
517
513
502
496
495
496
497
496
493
491
488
483
482
476
480
481
479
475
464
459
463
464
460
455
456
449
447
442
437
438
434
435
436
435
433
428
422
424
428
426
423
419
416
409
403
403
403
402
402
404
409
412
412
414
411
409
400
399
407
408
407
406
403
408
404
403
410
415
425
427
430
431
434
425
415
420
424
429
425
425
422
418
417
422
425
426
431
432
437
436
443
449
440
431
427
424
424
430
438
437
432
434
432
431
432
435
439
439
437
444
447
445
443
442
444
449
450
456
458
460
458
458
456
451
448
446
447
445
447
451
454
458
461
460
452
456
465
466
462
463
461
463
462
456
456
456
458
455
454
456
453
452
457
468
469
465
462
463
461
462
463
466
468
469
464
460
464
466
468
468
464
467
464
463
465
464
461
464
467
468
470
466
463
461
460
463
462
460
464
465
461
458
468
479
476
472
469
473
468
468
475
480
480
473
469
471
476
474
479
488
487
488
493
493
495
507
511
512
512
509
512
517
516
517
520
519
519
521
526
531
533
536
532
526
528
538
531
528
533
533
530
534
537
545
543
546
557
562
565
564
559
547
542
543
538
531
521
517
513
508
500
487
488
484
480
478
477
472
469
467
465
459
455
458
460
464
458
456
453
445
443
446
448
449
451
447
442
441
445
445
440
436
431
431
433
437
440
442
441
442
444
443
441
437
437
437
440
436
435
437
431
431
440
443
440
435
437
435
436
441
441
444
452
453
451
453
446
433
427
432
436
445
455
460
452
445
443
445
444
444
448
451
452
469
480
488
494
485
490
497
509
522
536
554
571
589
607
630
649
670
679
686
694
711
718
721
721
721
718
704
695
684
659
614
573
525
456
411
382
348
308
270
246
230
205
192
200
216
240
258
265
276
288
309
326
337
352
370
386
397
411
420
422
439
448
451
457
466
472
470
473
474
473
474
476
480
481
481
482
486
485
480
484
480
484
494
496
487
490
493
491
489
492
500
499
494
493
493
495
493
490
483
481
492
498
503
505
500
498
499
500
508
513
510
505
511
510
511
510
510
515
514
511
504
511
513
511
510
509
515
515
514
524
530
533
522
507
508
513
523
532
521
507
519
528
527
526
525
526
528
529
528
535
538
533
531
522
527
528
531
532
530
534
530
531
534
543
544
549
554
554
549
538
533
542
543
539
541
544
551
542
537
538
542
547
548
542
536
545
554
554
559
561
555
557
562
562
563
556
556
553
553
554
550
553
557
546
549
561
564
558
554
560
568
573
571
557
558
555
560
565
559
552
550
549
549
554
565
563
555
556
567
564
556
549
551
545
550
551
547
554
550
552
552
550
550
552
552
548
546
549
552
547
541
542
546
544
536
530
532
541
548
542
533
533
529
519
521
515
510
515
519
519
504
496
494
495
497
491
484
483
479
479
482
479
474
470
469
472
470
461
453
448
441
442
442
438
445
446
439
434
428
427
432
446
445
445
436
433
429
426
433
437
432
428
425
420
420
422
418
420
421
421
423
420
417
422
420
423
435
429
423
426
430
438
442
434
431
428
425
423
430
439
443
446
447
448
448
440
444
441
438
440
447
450
451
450
456
462
462
452
447
444
453
451
445
440
447
451
452
456
459
460
463
464
468
470
471
479
470
461
456
454
457
456
459
469
465
468
474
478
478
477
475
479
491
488
479
473
467
465
462
461
468
466
469
475
469
470
468
465
463
467
479
478
474
472
476
475
480
484
485
489
489
484
483
496
497
502
512
517
527
530
532
536
538
537
538
536
532
542
545
544
546
548
551
555
552
554
564
568
575
576
575
573
578
574
581
581
587
590
593
595
599
597
596
601
608
611
605
602
609
609
618
629
637
644
643
642
640
646
654
653
648
645
646
656
664
657
647
643
644
655
656
655
654
654
656
660
665
669
668
668
671
676
679
682
687
682
674
667
658
664
659
655
650
634
633
631
626
623
613
607
601
595
583
577
573
558
553
554
562
568
563
556
557
554
546
545
545
542
534
531
525
524
525
530
523
523
529
534
537
538
536
535
534
527
526
527
528
527
530
528
528
528
526
525
517
514
517
520
519
516
515
521
525
523
526
526
528
527
524
522
525
533
534
528
513
508
513
525
526
531
535
531
529
533
535
533
542
550
556
560
562
566
564
561
554
570
604
629
640
653
667
678
693
705
719
726
734
737
744
745
749
744
741
742
733
718
696
669
629
588
554
500
448
411
388
360
334
316
301
290
280
279
282
302
324
337
346
363
377
389
399
416
430
441
452
461
472
481
488
497
507
509
507
515
520
520
519
523
519
522
524
522
520
521
530
529
517
503
503
503
508
513
512
516
513
508
506
507
505
504
506
508
509
505
508
510
512
508
509
505
503
505
506
506
499
499
497
497
495
492
496
494
489
487
485
487
491
490
491
489
497
505
501
496
492
501
505
506
503
501
501
499
498
498
500
498
498
497
501
501
500
497
489
499
512
503
496
501
504
497
488
490
492
494
496
497
495
494
490
492
488
485
486
487
484
484
487
486
480
476
473
474
477
470
467
467
472
479
479
471
471
468
467
467
463
459
463
469
472
474
472
475
480
477
482
479
465
463
471
473
475
474
476
479
475
471
467
466
460
457
462
468
475
478
474
478
471
471
465
449
442
438
438
447
450
453
453
452
450
450
450
445
444
443
449
449
443
442
444
449
453
452
445
445
439
441
443
438
436
435
434
428
428
435
432
429
429
427
424
417
412
408
403
413
417
413
405
401
403
402
401
403
399
389
386
382
377
375
379
376
377
373
370
372
371
367
365
373
371
364
357
359
356
348
346
350
358
359
357
354
354
353
347
342
345
342
347
355
354
356
360
361
360
356
366
367
364
358
357
356
354
351
354
355
357
362
365
364
362
362
375
381
367
356
360
370
371
372
373
382
381
378
377
375
377
381
385
388
389
392
399
406
405
401
402
406
400
394
401
413
416
409
403
402
404
405
403
403
407
401
403
415
418
417
417
414
415
412
416
419
426
429
425
426
423
420
417
414
414
421
423
428
430
429
432
432
437
442
447
453
444
441
441
435
431
435
440
438
435
437
441
437
441
439
443
448
448
444
442
443
441
444
445
450
455
451
446
444
444
449
453
456
459
462
465
461
456
457
455
442
439
443
447
444
442
442
441
449
453
458
457
460
465
470
479
477
470
464
468
479
489
476
468
476
482
493
492
488
494
495
496
495
497
496
500
503
507
512
514
514
513
510
506
507
507
506
503
502
502
501
508
516
523
527
535
539
542
537
536
532
530
529
522
519
522
511
501
501
490
483
479
474
476
470
470
465
465
472
474
470
463
455
443
439
436
433
434
440
441
432
428
431
432
436
443
440
429
419
421
423
423
418
424
432
434
432
431
432
431
432
435
425
423
426
424
425
437
448
451
441
437
440
437
430
429
424
419
419
424
428
432
436
438
435
437
439
437
438
440
438
438
439
441
443
440
437
435
441
444
441
446
452
462
470
480
478
476
483
496
519
548
566
574
594
616
648
676
703
725
727
722
729
742
752
765
769
770
760
761
757
743
718
675
632
588
526
471
436
406
375
355
351
345
328
313
319
335
349
364
371
386
407
424
440
456
469
482
498
510
522
537
549
558
561
567
573
587
598
599
595
593
595
597
599
604
607
605
607
613
612
612
610
614
614
614
613
618
623
623
616
603
598
602
610
616
630
636
627
612
606
610
620
627
628
629
628
627
626
625
625
628
632
630
635
644
647
649
648
637
634
633
628
625
630
629
626
634
631
630
632
630
638
641
640
634
639
642
617
598
577
564
559
557
552
544
531
515
500
493
500
515
529
546
546
533
517
504
500
505
510
510
506
503
502
491
474
475
471
449
422
403
389
418
452
455
441
433
432
461
487
492
490
489
503
521
526
541
558
567
563
562
571
573
572
555
543
535
507
459
443
449
433
428
430
420
409
412
427
439
439
442
451
466
480
481
478
502
537
549
546
538
529
522
516
520
541
567
570
582
582
572
568
580
586
589
586
565
554
547
540
555
578
572
547
546
567
592
605
610
613
617
624
624
625
620
623
625
603
585
606
639
669
637
607
610
620
611
611
602
579
577
580
587
610
613
601
591
572
566
559
547
563
596
599
574
576
592
579
569
552
555
558
562
565
550
542
533
520
518
540
572
560
531
529
527
508
487
480
483
480
477
497
503
504
510
504
505
501
503
516
522
533
533
529
521
509
510
503
505
503
496
487
475
460
468
505
514
499
492
499
487
463
463
477
476
480
497
514
528
528
527
522
509
484
487
490
493
519
531
536
523
509
517
557
590
611
597
600
570
509
474
489
525
543
551
551
564
562
562
582
581
566
546
529
502
495
491
495
498
469
461
487
497
503
530
540
528
515
513
522
528
526
543
556
553
540
543
564
582
563
567
598
591
564
561
574
563
546
549
557
584
561
537
528
518
496
499
507
501
504
528
577
599
593
595
589
557
534
546
572
571
554
548
547
547
552
573
586
576
543
520
519
530
536
541
558
569
561
538
535
523
510
499
478
460
451
473
495
508
509
500
495
505
518
527
512
504
495
493
490
492
508
542
508
482
488
514
541
564
574
582
581
568
558
552
533
534
527
502
502
527
555
570
548
523
524
519
510
518
534
527
535
524
530
551
540
515
498
513
540
568
583
580
580
583
566
548
551
558
582
622
642
624
638
648
618
579
579
585
578
561
564
586
607
586
585
592
597
576
405
405
411
420
413
420
436
447
457
424
403
423
454
441
420
409
401
406
420
429
426
428
419
415
412
426
435
427
427
419
419
411
433
444
466
457
441
422
412
397
406
428
429
447
456
454
425
406
426
431
431
437
443
434
431
445
441
438
427
425
446
442
426
434
448
446
440
461
455
421
419
430
443
457
460
452
464
457
447
460
462
459
446
443
453
455
453
455
434
449
470
464
465
460
460
466
472
474
470
466
467
468
461
477
477
475
476
466
462
455
449
447
447
461
471
467
465
465
470
473
481
496
477
459
462
459
468
492
479
482
487
482
476
468
467
470
477
490
484
472
478
477
455
450
451
458
456
475
470
463
468
460
460
456
447
435
443
456
462
464
474
465
452
451
470
465
452
448
449
455
451
466
494
487
511
505
484
490
500
481
475
490
493
506
496
502
502
489
482
495
485
491
501
516
515
525
527
517
506
522
541
531
516
513
526
510
506
512
522
511
510
533
548
548
541
559
558
548
546
534
533
530
524
515
507
513
512
482
475
493
498
479
473
482
479
481
475
479
471
450
432
429
437
443
442
435
413
432
447
454
442
415
443
448
419
434
454
462
431
422
420
431
438
430
419
419
436
454
446
427
432
439
451
437
432
443
437
436
450
447
423
436
435
434
444
448
443
437
424
446
460
455
443
439
434
431
438
439
418
416
425
437
444
437
454
462
438
439
449
462
465
458
442
449
474
480
470
470
468
476
495
507
520
538
544
558
575
605
620
630
665
660
651
664
687
685
674
668
692
695
680
694
674
624
568
537
495
436
389
394
387
340
293
297
283
255
245
252
260
277
286
292
281
307
319
316
334
346
377
410
427
423
414
434
457
462
472
454
455
461
471
484
493
486
472
450
426
428
447
476
474
469
475
499
510
504
493
488
481
484
467
465
460
470
472
466
477
484
493
487
492
481
469
479
502
506
507
494
493
488
487
500
517
552
548
510
497
499
488
497
501
501
491
491
496
508
502
492
479
481
507
524
512
497
513
506
502
512
525
525
525
522
516
517
510
510
513
509
520
519
518
504
511
505
505
528
520
511
510
497
525
523
521
528
527
532
539
531
541
529
503
499
512
526
520
502
516
525
535
542
538
542
545
562
548
526
536
548
537
526
537
544
543
543
533
540
572
570
544
540
525
542
539
539
531
532
547
554
562
547
548
563
567
570
560
541
539
539
551
546
557
538
531
551
575
576
565
554
555
557
572
563
561
557
554
545
540
547
545
523
523
535
554
592
585
545
547
536
538
550
558
554
557
536
522
531
534
529
510
521
514
526
507
511
528
531
528
538
540
531
513
509
490
484
482
476
485
503
489
492
496
488
473
472
468
464
460
450
462
460
466
455
437
446
455
443
422
416
428
445
453
452
459
438
425
429
424
411
430
454
437
430
442
408
409
422
402
397
406
434
438
416
414
436
434
431
425
427
443
440
431
430
446
431
421
437
440
439
448
458
457
437
415
415
412
444
457
447
438
440
442
430
430
429
420
446
462
470
470
460
441
446
451
464
459
449
433
434
436
433
432
438
446
447
453
460
483
474
452
468
488
477
464
461
459
445
465
481
477
465
460
448
447
460
452
451
454
456
449
456
482
473
470
473
461
467
467
484
497
476
463
473
465
444
449
466
476
477
470
470
475
478
468
486
486
476
475
473
485
485
461
466
480
470
457
450
476
480
479
477
485
486
482
482
494
487
479
469
464
469
468
450
472
479
476
481
478
468
469
477
496
500
487
478
473
482
484
480
481
495
514
519
491
470
477
509
516
508
511
522
513
505
504
510
505
487
527
542
542
534
508
493
497
510
503
507
516
520
537
537
537
562
559
544
528
513
511
529
529
515
501
516
514
510
510
492
489
471
468
471
471
482
481
483
492
491
475
471
467
450
453
482
488
475
470
461
452
458
460
456
438
443
442
446
451
458
465
448
447
440
445
444
449
438
457
476
471
480
450
445
454
447
445
447
468
485
460
449
448
441
446
445
444
435
427
416
430
453
462
446
447
478
491
471
471
468
477
478
456
443
437
442
455
469
476
466
456
456
479
491
497
501
502
510
501
506
489
489
525
547
557
562
571
584
605
610
633
666
680
678
696
706
691
688
689
690
676
684
645
580
534
527
493
447
411
388
368
355
339
337
323
296
303
317
328
327
333
347
323
324
350
349
347
370
401
415
431
439
446
471
457
429
459
485
488
481
478
480
477
474
476
462
448
446
444
464
479
481
473
482
499
506
485
464
459
489
500
496
493
500
491
494
487
482
482
492
493
493
497
487
492
502
504
490
486
501
501
486
481
487
482
490
488
497
493
507
508
523
524
524
512
503
484
482
494
475
492
501
495
510
519
515
515
500
485
493
501
502
497
488
492
512
524
501
508
511
498
504
515
511
512
522
522
517
524
511
496
501
519
557
549
524
514
523
549
533
534
542
515
512
525
533
541
557
547
536
525
541
538
519
518
521
543
535
528
534
526
539
533
530
541
544
566
568
570
539
536
538
539
537
533
555
557
535
550
538
554
565
563
557
545
551
551
541
544
569
551
549
550
539
536
555
570
565
564
563
563
548
536
526
526
534
540
544
534
520
538
537
533
546
563
558
560
536
539
527
526
524
522
532
554
548
528
525
527
527
526
540
534
517
505
482
498
505
519
511
513
522
497
494
489
477
467
472
450
472
468
449
449
478
470
457
480
476
476
449
434
443
439
454
433
438
451
448
435
434
434
417
425
452
441
435
448
450
460
423
421
417
429
448
419
412
419
432
438
441
452
439
448
444
420
448
440
451
469
437
441
439
434
438
429
415
417
408
425
449
445
447
453
431
422
429
447
446
450
469
474
456
441
456
449
438
434
466
478
475
468
472
472
461
444
443
440
468
491
474
455
454
449
453
465
468
470
469
473
468
438
454
485
464
454
471
486
474
471
458
448
459
480
476
463
448
472
464
475
469
465
468
469
454
449
469
474
454
468
482
476
472
474
487
491
476
435
453
462
460
477
474
481
476
469
468
450
473
481
477
471
457
473
462
445
471
489
497
492
470
475
490
482
481
488
494
494
503
478
478
495
507
496
514
493
488
484
477
485
505
508
502
508
504
497
520
516
516
513
524
531
515
519
524
513
490
505
489
473
460
475
495
498
509
535
543
533
527
529
522
539
526
511
515
501
483
480
488
491
491
502
498
497
477
453
466
461
463
471
458
456
456
437
452
460
444
429
440
453
455
450
464
459
458
471
463
457
441
455
453
457
452
455
450
443
447
444
439
449
442
430
450
470
467
444
455
462
450
436
447
449
466
466
441
451
447
459
454
452
453
445
442
438
470
448
451
467
452
442
461
446
455
478
472
465
468
491
498
492
481
483
497
496
504
496
489
514
534
542
554
556
557
570
568
579
592
596
624
635
648
604
584
590
611
620
619
608
588
549
501
502
478
445
415
384
378
393
384
371
360
320
309
331
333
341
339
358
388
384
387
392
385
393
440
435
401
419
459
453
470
469
453
451
469
473
462
486
491
466
489
513
496
481
461
487
475
478
463
459
472
470
466
473
452
464
465
469
499
484
493
519
494
497
490
493
508
508
501
505
479
466
482
469
495
490
474
500
503
482
487
480
504
502
494
477
479
470
483
499
496
505
515
501
516
523
515
493
510
501
512
512
508
514
503
500
508
483
501
499
494
485
483
490
500
499
505
488
503
516
529
513
503
492
487
508
505
511
503
483
470
491
504
507
524
529
520
532
512
518
537
535
526
526
532
519
512
515
521
517
507
517
533
527
522
522
532
529
531
526
539
525
524
513
517
518
521
530
521
524
527
545
534
542
550
555
549
556
549
568
565
558
549
533
541
519
510
506
506
524
529
525
517
519
524
545
547
532
520
533
550
541
543
555
555
550
540
518
510
522
521
507
517
516
520
517
508
526
526
516
504
515
533
529
500
483
506
514
504
497
495
499
484
490
487
476
464
475
495
480
469
472
510
473
461
475
481
461
442
455
453
435
456
459
452
449
455
447
442
439
443
434
443
433
433
429
410
426
435
439
430
443
448
443
443
429
434
425
439
429
449
460
460
452
447
437
436
446
437
440
439
422
437
439
433
437
460
461
463
454
435
426
430
453
451
440
443
457
461
457
454
451
459
460
463
456
458
440
433
439
452
452
440
446
448
451
447
435
432
463
468
473
471
474
467
456
457
454
473
474
457
448
450
440
441
430
407
454
466
461
448
453
441
459
457
451
483
494
487
468
461
476
488
486
469
448
449
461
464
450
449
453
442
442
453
466
456
449
452
471
480
483
475
486
475
468
473
459
463
460
455
455
468
461
461
473
489
494
479
475
492
489
493
476
488
505
499
483
483
481
482
474
478
475
468
477
500
503
488
493
512
511
519
537
508
506
501
495
504
517
523
530
525
534
524
501
479
474
488
496
500
513
519
481
478
512
511
514
511
508
512
506
502
501
494
476
478
494
481
485
486
475
476
483
480
479
476
468
468
457
451
434
422
455
480
484
467
451
452
476
485
457
431
428
430
434
426
423
442
441
436
436
452
462
459
448
428
441
461
462
452
456
462
453
444
443
445
444
441
429
441
443
434
443
436
437
444
465
470
461
476
481
483
467
451
439
447
455
455
451
439
424
399
393
436
455
458
455
467
482
478
474
485
483
504
499
491
502
517
531
537
524
554
578
600
579
557
587
614
627
616
598
599
621
633
623
619
607
575
542
502
463
417
396
390
378
368
360
363
355
341
328
320
324
333
354
370
360
360
380
398
403
408
411
431
433
427
437
456
452
473
499
485
490
503
499
463
458
465
469
479
469
456
457
460
469
475
477
492
495
485
480
480
472
481
478
471
471
479
480
480
477
486
490
480
487
504
509
495
490
486
488
484
492
499
495
505
505
506
504
496
472
468
480
485
481
486
503
507
518
520
523
520
509
503
493
496
508
496
485
484
483
499
499
501
499
497
499
505
505
502
490
490
495
496
499
512
513
510
506
509
512
506
500
507
494
499
508
500
499
520
543
552
533
517
500
502
523
522
528
530
520
510
512
501
506
523
536
537
524
522
528
527
521
538
537
526
520
529
536
548
543
539
535
557
535
517
539
553
540
540
534
543
548
554
534
531
538
545
535
535
528
527
537
521
522
535
534
537
539
529
535
542
553
555
558
546
529
530
530
540
540
531
532
529
531
534
528
528
529
525
534
549
565
566
534
521
533
533
528
538
510
500
502
520
517
514
514
509
518
510
509
508
500
495
496
495
485
474
461
457
451
433
448
473
461
458
455
472
470
444
441
458
464
462
432
431
436
424
429
436
447
438
440
427
416
430
453
454
448
432
440
425
432
440
433
420
416
424
427
435
428
429
437
441
436
445
446
437
436
447
449
445
433
438
447
435
411
417
435
442
439
443
436
437
454
457
433
427
428
431
422
425
435
437
449
455
453
459
451
456
456
454
451
451
439
434
462
478
481
480
471
459
455
458
458
462
464
451
447
440
425
424
437
444
460
474
479
479
486
480
481
466
460
467
468
468
454
443
450
460
467
474
479
480
469
453
459
466
463
483
482
463
469
477
478
472
450
451
454
458
464
454
455
457
466
469
481
474
478
472
462
477
485
481
485
492
458
447
455
461
474
467
454
459
468
465
457
459
461
463
474
475
457
437
443
466
469
474
484
482
469
470
486
486
475
472
472
476
474
473
485
481
471
467
466
472
478
482
489
490
487
460
470
480
491
493
492
487
491
490
493
508
512
508
514
510
526
519
506
505
512
519
517
499
486
481
484
480
492
512
525
526
525
519
519
520
520
532
552
571
548
528
515
505
502
500
480
471
468
482
492
498
494
487
472
460
468
485
487
468
456
445
441
450
446
442
438
433
462
468
458
455
440
437
437
432
444
432
438
449
442
441
446
458
455
468
472
461
459
458
465
473
465
447
440
425
426
429
432
426
420
414
432
451
467
458
449
442
454
465
464
449
438
447
451
428
435
438
438
428
443
449
456
459
463
464
476
485
484
483
477
477
482
491
492
484
456
472
487
506
531
529
524
534
566
606
622
632
648
664
666
681
699
695
684
703
710
713
702
652
581
542
526
503
452
405
378
364
331
318
303
292
273
293
316
313
307
299
312
340
341
339
360
368
383
389
396
416
433
433
429
429
448
439
434
439
443
466
479
475
472
471
458
451
474
470
460
453
452
466
465
475
497
494
483
477
479
481
479
471
461
468
469
464
481
499
498
500
483
480
490
483
489
499
496
470
470
480
485
496
502
501
499
481
480
484
486
492
489
485
488
497
488
488
502
513
509
507
521
512
489
479
469
477
484
483
496
518
520
511
488
496
515
510
486
479
494
501
501
492
498
500
491
489
507
514
526
534
529
524
534
535
526
525
529
537
542
516
491
502
516
498
507
534
536
514
507
521
525
525
520
523
526
525
522
520
518
509
526
516
519
517
516
526
540
535
516
528
537
518
525
546
546
545
535
540
551
556
550
552
556
543
539
535
534
550
562
561
550
551
545
546
549
532
536
541
533
551
571
541
530
526
531
541
525
521
528
552
556
519
524
540
539
546
533
531
537
533
530
529
538
527
526
522
529
542
527
528
530
522
511
521
519
511
515
525
502
488
492
487
479
479
490
503
512
499
502
506
483
444
442
451
463
462
455
459
443
437
447
452
459
457
444
431
436
442
444
455
444
436
432
431
432
433
430
433
437
460
450
427
420
412
409
441
467
459
433
423
431
429
415
413
432
430
441
443
426
413
409
401
394
414
438
461
474
467
435
443
451
442
431
438
437
438
433
450
448
437
434
442
456
451
450
450
458
444
425
445
450
452
464
469
461
448
439
455
459
464
475
478
494
493
454
431
435
441
446
457
461
457
467
473
476
470
466
464
472
472
465
465
466
471
464
477
476
466
444
432
451
470
474
473
475
466
454
458
461
450
463
465
466
473
459
470
476
474
467
451
457
469
469
467
458
446
460
471
467
462
455
462
457
475
473
461
471
469
463
474
480
472
470
481
478
469
465
455
471
469
441
444
461
459
459
463
463
455
452
467
469
468
450
453
461
463
465
465
460
470
483
478
467
460
466
471
482
481
489
494
475
480
488
490
489
485
476
485
490
484
486
486
487
481
476
491
496
494
499
499
499
501
534
547
544
547
534
519
525
506
480
483
502
510
516
537
528
511
509
519
542
549
549
536
546
541
527
531
509
497
494
488
480
465
467
480
480
467
479
484
471
468
477
458
448
455
438
434
434
435
434
432
433
440
437
428
427
426
423
435
442
445
445
456
459
457
438
426
433
443
446
441
435
439
446
453
453
468
465
444
423
430
434
432
437
435
426
420
408
406
435
450
453
450
445
439
439
452
453
441
453
446
444
443
444
466
465
458
454
447
450
449
451
450
449
455
459
453
466
486
472
469
490
489
500
511
539
554
552
578
597
600
608
629
664
695
692
689
697
689
670
681
686
665
676
665
629
589
539
482
431
380
351
323
303
284
271
254
241
233
251
269
274
279
289
311
318
320
341
371
370
369
393
429
428
413
407
427
446
447
454
455
466
495
496
467
450
453
450
449
450
462
466
468
476
491
485
488
480
481
483
500
489
457
440
470
476
479
489
484
480
486
489
490
481
489
485
478
487
496
489
491
494
502
504
507
513
509
507
498
492
491
495
499
490
494
495
495
497
502
489
511
519
521
529
516
500
500
505
503
501
498
494
488
496
505
493
490
524
541
536
513
508
516
525
519
511
525
519
521
513
498
508
522
506
501
523
538
539
529
521
526
531
529
527
550
554
534
523
524
528
535
542
524
542
548
521
514
507
504
520
531
532
530
515
532
549
543
540
546
548
536
536
540
542
563
560
536
523
533
551
552
548
544
543
544
538
536
538
540
541
539
537
539
550
567
563
537
536
540
542
535
533
534
550
571
574
569
557
538
528
529
525
514
520
518
527
536
540
548
559
567
550
534
538
534
528
535
551
536
531
521
525
520
510
536
543
517
508
513
523
529
529
517
514
515
515
520
499
485
495
486
471
471
475
462
470
483
470
473
467
459
469
479
470
462
456
447
436
435
428
423
426
427
439
440
425
419
418
434
437
430
412
424
431
434
433
423
423
436
448
463
444
443
430
422
434
439
434
423
421
428
415
423
447
467
456
429
425
424
422
434
434
424
431
420
420
431
446
464
461
447
442
440
441
437
436
451
470
462
446
438
446
447
454
461
466
455
434
432
438
454
453
445
447
449
453
443
430
437
433
446
457
453
460
460
463
456
460
481
469
464
463
448
445
452
462
467
465
456
454
450
455
443
448
452
461
467
464
448
435
446
475
500
493
483
486
468
462
460
451
467
473
472
470
469
467
462
477
479
454
453
464
477
470
467
457
446
470
462
457
461
455
464
473
478
471
481
493
485
494
499
471
451
456
468
465
468
464
464
475
464
453
454
468
464
464
462
460
446
433
462
470
460
469
478
474
474
488
486
477
469
472
483
505
496
481
486
479
479
466
469
496
487
494
500
506
496
486
495
500
502
502
503
513
515
518
525
509
481
506
518
503
503
517
528
532
511
509
519
518
505
506
519
535
531
531
533
540
525
545
551
545
530
523
529
533
547
515
489
489
489
507
505
493
481
468
461
474
461
453
461
459
441
445
454
464
452
434
420
429
442
452
448
441
427
426
432
444
445
432
424
440
448
445
458
447
444
440
456
455
449
460
451
446
440
441
434
431
437
447
449
447
452
441
441
444
441
433
436
429
439
447
447
444
446
439
431
452
448
438
434
446
451
439
436
443
444
467
466
457
464
477
470
461
455
462
477
480
479
495
506
515
520
534
562
569
593
626
644
648
661
676
679
672
684
687
684
688
679
665
664
661
625
576
535
480
430
381
336
310
292
278
299
277
236
228
238
248
255
268
278
291
315
341
360
381
391
391
406
423
417
404
414
433
442
436
439
462
483
482
483
495
486
465
456
466
481
482
473
466
473
482
469
468
471
488
497
493
484
486
488
490
484
474
478
494
498
484
468
480
495
493
495
496
488
482
479
486
487
494
493
508
520
519
512
497
490
496
491
509
522
503
495
509
514
517
518
520
519
505
499
496
506
515
515
509
498
501
502
500
514
506
508
518
527
522
513
509
504
506
516
522
511
509
518
545
556
536
535
530
512
508
527
539
535
530
544
536
526
524
526
530
525
514
519
521
526
524
517
535
533
537
549
550
544
543
528
509
517
540
539
536
558
568
561
554
555
548
543
537
535
529
518
526
555
561
540
551
548
543
543
541
559
565
526
507
528
545
564
567
558
553
552
551
546
542
540
545
549
552
531
541
574
573
561
563
558
537
526
523
529
544
537
525
542
546
538
528
539
548
560
563
560
552
533
536
529
520
532
525
522
516
503
502
518
529
518
516
521
510
499
516
541
509
473
475
486
493
497
483
476
472
471
476
486
471
458
472
473
460
448
450
468
478
449
448
458
449
427
429
419
432
438
427
423
412
420
430
436
449
452
436
432
422
419
426
436
444
433
449
445
440
436
425
423
425
421
421
417
423
417
415
437
459
449
439
436
435
412
409
426
445
448
442
446
443
439
423
429
441
435
430
445
455
455
462
477
463
435
437
456
464
442
428
446
456
463
451
448
437
442
449
461
460
454
456
459
445
443
462
473
463
450
436
435
446
470
481
475
468
471
473
473
476
465
468
469
485
477
473
469
459
454
459
466
458
458
472
492
465
446
434
434
450
474
488
489
479
476
466
459
465
471
476
489
476
456
457
460
449
449
465
481
485
467
458
460
464
456
432
432
452
470
488
481
467
460
452
461
456
461
469
485
477
460
470
478
482
489
489
474
466
468
464
463
453
452
453
454
460
461
459
468
475
469
497
513
510
499
490
474
462
458
458
485
500
512
506
493
501
510
512
510
513
512
510
523
520
515
504
500
504
506
513
512
512
517
502
495
489
501
497
496
507
531
549
551
573
587
579
555
536
542
543
532
525
529
521
523
515
493
482
474
471
473
478
471
467
480
478
486
487
456
433
437
439
435
445
450
440
441
438
438
436
422
426
444
456
454
420
412
422
435
433
437
433
436
431
429
439
423
430
446
442
435
443
441
448
462
444
432
439
434
438
431
429
445
460
458
435
428
435
439
440
445
447
439
435
437
431
425
435
435
436
438
440
438
444
446
466
469
452
441
447
452
471
488
493
498
489
494
482
489
511
518
529
558
576
598
613
592
603
628
641
660
684
705
709
697
700
678
677
683
664
640
597
538
496
441
396
390
352
311
290
266
247
226
220
232
236
241
252
264
272
294
315
323
341
371
380
387
395
415
424
423
436
447
456
454
448
454
467
469
476
478
486
477
469
479
479
474
478
476
480
491
482
485
486
499
489
486
492
498
466
435
457
449
460
472
482
505
497
499
491
498
492
499
501
498
502
501
499
494
505
497
483
494
509
507
516
517
521
513
495
493
507
516
524
521
508
500
499
490
491
496
504
500
489
517
527
517
519
524
514
510
525
529
513
511
520
507
502
530
528
512
530
536
518
511
508
491
514
521
522
524
516
542
553
542
538
535
522
513
517
533
541
522
521
527
531
536
536
521
520
531
541
553
558
562
550
544
538
539
539
540
545
541
536
539
541
543
531
543
556
559
561
568
571
579
590
569
541
543
549
549
540
528
545
549
542
555
575
566
529
524
554
568
560
557
556
538
519
542
572
558
541
535
530
536
527
536
544
533
528
531
537
539
533
530
540
555
560
547
538
540
547
547
523
527
532
526
534
546
544
539
530
530
519
521
514
503
503
508
504
508
515
511
506
506
498
500
502
482
476
478
503
517
499
449
428
435
436
436
442
441
450
444
444
437
429
433
440
438
426
416
434
446
411
416
427
443
447
442
429
423
410
411
417
426
430
429
430
419
416
422
422
431
444
444
440
439
435
437
425
414
419
423
438
447
450
445
427
419
429
450
441
445
442
430
438
447
445
448
439
430
436
440
439
436
445
449
458
468
464
475
469
456
437
422
428
436
447
442
438
443
448
459
468
458
467
476
466
457
451
453
450
459
465
468
471
464
456
458
465
471
476
474
474
469
459
448
448
452
456
463
474
483
504
486
464
454
445
453
453
456
467
468
465
463
459
452
457
461
464
476
473
478
482
466
458
453
459
461
474
468
464
460
459
473
495
492
467
480
479
470
471
463
456
452
467
469
464
470
482
472
466
466
470
463
466
461
463
457
471
472
465
470
476
472
465
438
454
472
458
443
455
465
478
470
438
448
486
495
467
457
470
480
473
478
490
478
477
476
470
465
459
444
443
455
467
467
472
493
483
495
495
483
480
489
498
494
500
493
483
478
493
493
492
502
505
501
505
518
525
536
520
518
530
529
518
509
504
511
509
518
516
514
513
507
512
516
508
527
541
543
537
542
540
547
552
556
551
544
531
531
532
540
532
507
491
486
501
503
491
491
485
486
487
483
480
477
476
467
453
444
440
458
462
457
456
459
448
437
437
442
451
464
466
447
435
450
452
431
436
442
441
445
430
426
443
440
432
441
455
455
444
441
463
454
436
425
428
431
422
424
425
443
451
444
434
439
426
423
432
440
456
457
461
472
465
444
436
435
421
428
434
429
424
436
451
447
450
477
493
491
491
496
507
504
498
472
450
447
488
521
541
549
554
584
612
630
653
660
663
679
679
671
692
700
687
696
694
670
657
644
592
534
494
427
377
358
323
300
280
254
245
239
225
237
259
263
270
285
289
296
325
350
357
377
383
379
399
416
420
436
446
436
431
447
458
460
472
490
484
471
462
464
465
478
489
491
468
477
476
487
518
504
483
474
478
483
480
492
489
479
498
509
495
502
512
512
493
478
479
480
490
512
521
521
505
497
501
508
520
502
482
471
479
492
496
500
491
495
505
501
505
515
517
512
519
515
508
507
506
502
507
521
519
511
492
487
474
494
505
509
503
502
511
522
527
538
525
498
500
521
540
530
520
522
524
521
526
525
527
544
534
513
533
539
542
533
529
539
548
547
538
540
533
516
523
519
522
540
546
549
554
550
545
538
523
493
504
539
559
560
552
543
535
542
542
532
533
527
529
535
544
568
561
538
539
547
545
544
556
558
555
550
545
553
556
551
550
558
561
570
558
536
556
561
552
526
522
548
554
555
566
563
556
545
541
540
526
526
531
534
538
538
542
553
572
574
559
548
540
540
533
526
535
534
540
536
537
546
559
548
526
508
529
535
524
522
518
502
493
491
486
486
491
489
490
480
487
493
482
472
482
476
484
487
477
471
463
474
483
461
445
455
457
443
447
439
422
407
404
415
424
434
433
417
422
437
429
421
425
429
412
425
427
426
431
424
428
438
453
439
428
422
424
429
424
418
439
430
438
442
426
432
436
432
426
434
428
431
439
443
443
431
433
439
436
432
434
431
435
446
446
452
453
448
435
429
425
435
448
457
456
461
478
484
463
447
444
446
459
470
473
468
454
434
432
426
429
445
448
458
466
467
467
463
467
471
474
468
458
452
453
457
464
462
458
449
444
460
476
483
472
454
453
458
475
477
457
456
465
471
466
466
455
459
462
466
468
463
454
458
464
453
455
467
472
466
463
475
468
461
476
466
471
483
486
481
476
467
466
467
474
484
479
478
470
457
449
472
508
481
436
432
433
442
464
466
460
451
458
456
478
494
487
475
474
463
455
449
457
463
459
472
491
463
448
463
488
474
455
456
456
460
470
474
485
484
477
466
459
453
450
444
439
446
452
461
479
493
482
478
497
492
481
481
486
489
494
483
481
488
490
490
489
496
491
495
507
505
503
508
501
509
507
500
491
508
518
515
489
484
502
511
522
519
509
510
505
513
507
517
524
522
519
525
549
545
548
548
554
558
557
548
549
535
518
525
519
514
514
518
516
488
479
472
452
456
461
473
459
463
475
468
468
463
446
429
415
431
438
449
451
448
452
454
453
448
429
420
427
428
425
443
454
439
434
446
447
438
432
460
473
435
391
424
442
443
457
451
458
458
439
427
429
430
425
430
427
438
447
437
443
446
442
440
419
429
438
440
448
449
436
428
436
442
438
436
427
439
484
496
471
461
447
446
458
473
481
477
477
482
486
493
513
536
566
592
586
595
628
634
635
644
663
676
693
698
721
707
673
651
651
639
622
599
561
519
464
396
348
327
321
309
299
279
234
198
202
231
258
278
292
301
313
310
309
329
353
365
377
405
416
429
424
428
439
449
451
442
434
454
471
473
478
481
477
469
461
453
461
473
471
469
462
488
493
495
494
483
480
487
487
485
488
495
495
482
474
495
502
501
504
496
509
510
500
512
507
504
482
478
484
510
512
492
493
489
490
508
517
502
485
483
479
493
504
512
513
494
497
510
512
506
489
494
505
504
515
523
518
520
524
526
515
506
518
514
505
518
524
527
518
508
515
522
515
511
508
510
517
525
523
524
527
514
501
514
535
540
536
531
515
517
514
526
534
529
523
527
550
542
536
540
536
537
530
535
532
540
552
553
543
542
545
545
533
530
552
559
546
537
535
532
541
552
546
543
547
548
546
552
557
563
559
552
552
559
540
552
556
543
547
554
568
571
557
540
542
550
557
564
558
539
542
546
547
533
535
552
557
544
554
561
541
533
526
533
529
537
546
556
554
545
538
536
532
524
530
529
540
552
565
528
503
513
527
532
522
522
521
522
505
491
488
491
493
500
497
496
474
479
479
475
482
486
490
489
483
478
469
462
453
434
425
448
444
434
436
441
448
458
451
424
432
425
428
430
439
441
434
421
419
423
433
428
424
426
440
433
418
420
429
429
420
427
429
431
427
421
432
435
451
434
408
403
409
406
411
425
445
451
440
434
426
439
454
450
438
444
444
424
426
418
427
430
422
421
426
429
434
437
437
438
445
451
440
456
453
443
445
450
451
457
473
468
459
450
452
447
436
441
439
450
469
472
480
469
451
442
439
445
454
455
458
462
443
442
454
460
454
453
468
484
474
473
480
477
464
462
466
459
456
473
464
459
471
479
464
460
451
454
457
459
462
444
447
464
464
472
465
462
471
485
484
484
470
468
467
460
469
475
475
482
465
452
461
466
458
463
470
469
457
454
466
473
450
441
459
475
475
481
475
463
457
454
458
462
470
473
464
460
454
450
455
468
468
463
476
463
459
475
477
490
487
458
437
434
465
470
469
469
468
467
458
467
468
467
461
460
471
469
478
481
475
483
482
485
483
478
471
474
490
491
481
468
475
464
480
500
492
496
500
510
524
528
533
526
501
480
480
510
524
525
516
515
510
515
522
521
521
529
529
511
506
513
543
540
536
534
539
552
551
552
551
557
552
537
539
535
534
528
521
532
541
519
506
489
478
491
488
481
467
469
468
466
458
455
456
442
434
443
445
439
448
451
454
450
453
456
460
454
446
437
431
429
434
444
438
454
446
434
432
444
443
443
449
451
439
426
425
426
415
400
435
463
454
442
441
430
420
431
441
435
446
442
444
462
461
444
426
416
411
413
429
431
435
451
464
462
451
454
466
458
451
450
450
455
458
458
456
460
474
489
489
480
480
486
512
540
542
537
567
590
617
648
659
671
656
657
682
693
687
678
675
681
682
667
645
622
588
537
496
450
401
362
327
292
278
271
265
250
230
223
247
259
259
270
294
319
327
338
353
367
384
398
403
403
412
415
416
441
453
455
460
466
468
477
479
470
449
445
455
479
487
482
480
492
491
490
498
504
496
493
486
476
455
461
467
481
476
473
466
473
486
480
490
501
514
506
491
490
493
495
494
495
491
479
473
489
492
492
503
512
524
528
513
503
487
487
480
497
513
509
499
496
508
517
511
504
516
518
504
502
508
531
535
505
502
512
508
513
509
510
516
528
540
529
512
505
501
523
539
532
522
516
517
521
525
522
523
522
525
526
525
533
524
514
517
526
524
533
538
532
542
539
520
528
530
541
552
548
539
547
538
527
522
531
540
545
541
539
544
544
546
547
547
578
581
552
555
561
552
553
560
554
543
539
541
540
549
554
554
564
562
555
543
535
548
546
543
544
549
558
559
552
561
552
543
540
548
547
552
562
576
567
561
559
558
548
550
539
520
539
546
540
547
550
553
553
545
539
540
546
546
542
531
514
506
514
533
526
517
517
506
491
496
498
492
503
518
492
482
506
515
505
487
482
480
480
487
495
480
465
451
451
465
460
456
442
421
415
434
442
457
462
431
437
444
430
426
431
429
426
430
428
438
425
414
417
426
427
438
433
431
426
422
426
434
441
428
430
425
413
404
409
422
416
417
428
428
408
402
412
443
452
439
446
453
460
459
445
435
435
430
427
435
433
417
415
417
440
437
428
438
442
446
453
452
455
464
462
448
445
447
444
452
442
438
441
440
447
447
453
459
475
454
451
453
455
451
452
448
454
463
456
463
465
460
442
448
459
454
454
456
454
461
466
464
464
464
473
459
461
466
458
455
460
464
468
477
470
452
442
454
451
447
461
489
503
489
473
473
486
473
454
446
455
454
468
474
466
456
463
467
466
477
467
475
464
469
465
467
460
448
445
469
482
478
471
486
481
483
470
449
450
453
455
459
465
468
462
468
476
474
465
449
441
450
456
479
499
484
476
466
473
480
472
473
472
456
464
470
478
475
464
458
444
441
442
461
484
484
470
464
481
491
479
471
482
478
459
446
461
473
471
468
453
443
446
465
479
464
467
472
483
492
495
475
478
475
466
474
482
486
491
491
496
498
509
520
524
519
513
504
513
502
486
499
508
518
540
540
523
532
542
518
504
498
498
493
498
508
519
525
539
553
555
547
551
556
551
544
530
538
544
525
535
532
514
506
507
519
497
484
501
501
494
499
485
471
466
461
458
451
446
446
443
442
446
439
433
435
441
443
442
449
475
464
464
451
444
436
435
440
433
439
438
445
459
449
436
452
465
474
457
450
453
443
435
434
444
444
435
426
448
455
445
436
440
435
445
445
433
428
431
423
431
452
456
460
455
440
422
432
439
438
440
453
455
449
442
446
448
453
454
456
462
477
485
487
478
487
496
496
520
555
568
578
588
601
617
622
643
670
685
702
685
682
688
693
700
689
678
669
653
642
631
601
533
449
404
393
376
334
294
278
264
239
214
226
254
273
262
270
277
288
313
337
365
372
379
386
395
403
399
412
452
468
468
445
463
462
471
490
478
456
458
458
465
472
475
482
494
487
479
482
494
486
491
496
460
467
485
491
490
499
500
471
464
475
479
480
475
472
476
491
489
506
501
503
513
510
495
485
499
510
511
512
502
482
486
491
489
501
492
503
513
516
511
502
479
483
502
511
508
504
504
512
523
520
514
510
510
509
511
519
523
529
522
530
514
509
511
524
509
505
514
513
498
495
495
511
534
529
538
557
538
525
527
536
536
533
525
504
496
504
531
534
522
524
535
535
529
531
532
542
543
545
536
522
531
547
544
542
538
554
537
539
561
580
560
531
527
524
540
550
541
547
566
575
561
556
530
534
554
558
551
545
547
533
516
518
538
571
580
557
563
550
539
558
574
565
568
558
548
545
547
567
575
558
542
537
536
548
552
566
565
540
526
531
541
543
547
558
562
551
523
520
535
534
532
533
527
532
542
542
521
518
508
509
512
523
524
534
532
510
491
470
485
477
493
510
492
474
475
466
445
462
469
472
461
459
446
427
441
451
447
434
440
441
453
446
430
431
427
422
431
446
461
460
465
452
429
441
438
413
407
422
430
424
424
418
413
408
416
420
415
421
420
410
404
408
418
426
425
428
450
432
418
418
419
427
432
441
449
445
433
436
448
448
449
450
430
430
430
432
444
440
440
445
428
430
443
455
454
447
437
437
432
435
452
456
445
441
456
461
453
455
451
443
445
460
463
473
478
459
444
461
469
468
457
450
454
455
451
444
442
433
420
429
437
453
476
479
471
471
468
476
472
467
470
471
460
449
450
461
474
477
477
472
466
478
467
469
480
486
486
470
476
471
464
458
465
473
479
478
458
450
448
468
472
471
458
467
466
459
462
485
495
477
453
451
459
457
462
463
461
465
456
458
476
470
465
488
495
477
471
471
462
459
461
473
470
453
458
465
471
479
469
460
469
487
489
487
488
505
492
487
485
486
486
486
488
493
483
482
507
519
499
500
506
515
519
514
502
499
513
513
509
495
491
512
507
481
481
491
491
499
518
525
519
534
542
535
539
539
539
547
550
540
519
509
517
528
526
503
491
488
461
462
464
453
463
483
488
465
460
435
446
465
461
451
446
431
436
436
432
420
421
443
447
434
436
441
444
450
449
455
463
467
446
435
431
421
433
462
461
445
421
419
427
440
441
438
439
442
450
443
437
437
432
434
426
423
426
442
447
442
438
449
462
462
446
443
445
447
430
426
444
463
462
457
435
426
425
435
436
438
444
436
451
463
477
493
498
496
490
492
494
512
529
553
576
593
602
591
610
615
628
637
658
672
701
710
699
689
680
656
666
670
650
609
556
515
467
412
372
353
318
300
285
275
261
247
240
244
258
278
298
315
328
340
342
353
363
363
370
385
391
409
424
434
444
449
437
442
462
472
464
469
482
478
467
451
467
458
445
454
462
478
485
475
476
486
490
494
493
480
496
494
480
470
480
484
481
484
488
496
514
514
524
519
490
475
480
498
507
476
465
467
473
481
486
489
497
496
506
501
498
501
492
501
505
510
522
517
512
517
516
521
512
511
516
511
519
522
509
496
499
491
490
496
503
509
519
526
536
531
529
529
533
538
511
498
512
509
506
511
502
509
503
499
515
536
520
534
546
558
556
539
519
511
511
511
537
534
518
524
533
531
520
529
537
537
531
537
546
552
553
552
546
543
542
554
557
557
542
546
548
553
551
550
556
570
550
546
563
574
585
568
562
562
556
546
536
523
530
543
549
549
549
562
562
558
561
557
562
575
568
561
577
569
561
557
579
572
525
514
527
528
541
552
544
562
552
540
540
537
540
543
552
560
556
540
526
516
520
532
526
506
496
490
508
541
551
536
518
512
512
496
476
481
481
474
473
466
469
481
483
478
467
472
469
461
472
460
432
437
451
470
467
457
450
439
425
418
421
427
426
421
441
446
427
413
411
429
427
434
437
417
410
415
418
412
412
417
410
395
401
415
419
425
437
434
430
442
429
434
435
430
436
435
429
417
416
422
417
415
427
440
441
432
418
428
446
450
444
448
441
446
442
433
445
450
443
448
449
456
453
437
434
434
432
432
438
445
455
459
457
452
459
460
438
439
445
445
453
457
455
456
461
476
486
474
455
452
453
463
469
468
472
482
474
468
451
442
440
457
457
457
454
460
468
475
464
464
471
446
444
452
455
462
464
463
459
457
440
448
447
436
447
470
484
483
479
470
469
470
452
454
469
464
466
486
487
478
475
472
473
470
466
475
466
461
473
467
472
466
469
472
463
458
468
463
460
466
474
467
458
466
475
472
476
475
473
473
470
487
485
495
500
466
445
470
466
469
454
450
458
459
456
465
467
465
472
479
472
476
487
502
504
496
498
500
497
492
484
477
479
483
491
488
497
482
481
504
501
513
509
511
516
518
524
534
523
512
525
523
512
510
505
500
499
501
507
520
537
552
550
542
545
564
565
534
527
540
542
527
535
526
502
491
484
486
490
502
503
490
480
476
475
464
443
444
447
448
441
441
454
466
460
434
438
430
446
456
443
434
432
441
441
446
441
437
444
455
461
447
451
429
419
424
434
446
446
448
452
462
460
457
451
454
453
449
456
456
458
435
422
420
422
431
431
439
455
451
436
435
446
457
468
448
424
419
424
444
436
436
447
436
421
410
437
459
456
469
474
467
481
497
493
477
472
479
479
483
506
522
534
554
583
601
614
639
656
672
690
689
680
681
692
702
706
701
690
679
659
641
611
577
524
469
410
364
321
300
291
284
269
253
241
239
248
250
256
279
295
309
320
341
353
366
389
384
390
416
450
422
382
406
453
465
467
465
450
445
453
470
479
469
472
465
458
463
467
476
485
482
470
461
473
463
446
457
475
484
493
493
492
483
480
477
488
489
493
504
513
512
484
465
472
500
497
485
496
500
485
482
492
487
485
477
478
496
505
510
510
505
501
496
491
497
509
520
517
508
500
508
528
526
506
513
510
505
515
510
506
508
507
509
512
516
511
527
522
505
501
496
492
487
513
520
513
514
527
528
542
543
533
531
532
531
539
537
537
534
532
520
520
534
527
522
526
543
557
549
544
539
524
520
533
540
540
542
562
563
551
539
536
545
558
548
533
528
522
524
545
552
552
560
585
597
587
577
550
545
552
562
565
560
540
542
550
564
553
557
546
550
566
557
559
566
569
566
550
541
547
545
537
546
560
562
556
541
545
553
561
553
557
558
555
561
559
550
551
554
544
525
526
529
525
527
521
518
526
525
526
540
524
519
527
523
532
523
499
486
488
494
504
502
490
486
480
463
467
497
495
484
470
470
476
475
463
451
444
440
436
432
441
459
463
436
417
422
435
438
431
420
434
445
438
419
417
415
421
421
410
398
420
426
417
420
428
434
436
429
415
413
405
413
457
463
432
423
424
425
425
445
430
435
433
413
413
423
433
429
427
444
467
462
441
421
410
415
428
436
436
431
444
455
454
430
438
441
451
423
410
432
455
451
454
450
448
452
478
476
477
488
450
434
418
420
451
457
445
449
463
482
464
463
471
451
440
441
455
466
472
473
461
462
466
465
462
453
462
469
461
434
438
456
469
475
476
482
466
454
462
446
457
472
471
459
460
457
452
431
454
475
485
488
483
463
466
468
471
461
459
461
467
473
479
475
468
462
454
459
473
483
474
464
481
477
474
477
478
475
472
473
476
461
440
441
453
462
487
488
482
485
474
459
464
464
454
448
457
489
495
481
464
476
483
463
440
450
467
466
463
475
478
461
470
473
469
469
470
466
454
443
447
462
465
460
456
465
479
489
500
498
491
489
485
479
485
486
486
495
494
491
496
497
487
486
495
508
528
532
516
513
489
469
493
518
520
530
533
525
520
510
508
499
496
507
525
534
538
550
566
559
545
535
534
560
551
531
539
538
553
551
529
503
492
495
483
478
480
499
503
481
478
486
481
454
449
452
459
455
467
454
454
452
428
423
432
432
432
442
461
465
453
448
461
462
454
445
440
437
442
436
429
426
420
422
425
439
447
451
455
454
466
448
422
430
442
437
438
449
461
463
460
454
442
433
434
433
452
448
433
426
430
432
434
444
443
435
428
420
438
457
465
457
454
453
445
434
443
449
455
458
469
478
483
483
478
498
505
508
521
539
552
568
593
612
622
628
630
655
666
669
678
684
684
681
681
705
717
693
658
625
585
554
507
439
390
362
335
305
282
266
257
245
242
246
255
279
300
298
298
298
308
332
352
379
402
397
381
405
427
429
423
426
438
463
469
472
457
435
441
442
459
499
512
491
469
452
458
469
464
468
485
490
486
482
474
476
475
482
503
510
497
487
479
479
485
483
484
491
479
475
477
489
508
525
529
524
519
496
485
485
488
485
498
486
467
473
490
487
500
518
525
519
504
506
497
495
481
476
503
515
512
507
509
531
536
529
511
505
505
499
514
515
493
504
518
521
514
494
511
531
542
530
519
526
528
534
530
509
509
515
518
519
522
531
521
517
529
529
527
540
537
540
539
527
523
520
522
536
551
539
541
569
579
568
560
569
553
540
547
542
531
527
525
519
521
537
529
535
541
558
563
562
551
551
557
559
562
548
536
531
545
554
564
571
552
542
549
568
555
516
513
552
564
562
563
576
571
560
568
563
552
541
543
549
559
558
536
531
543
547
562
553
533
545
557
559
557
546
535
537
537
528
529
528
527
529
535
529
538
524
499
495
498
506
537
528
509
529
516
483
475
489
500
502
500
494
494
484
475
472
472
473
465
455
456
453
444
449
452
439
434
433
423
442
465
439
415
424
431
427
431
438
432
429
434
433
434
436
433
424
432
435
428
407
405
404
403
415
408
412
420
432
440
431
432
450
436
416
405
410
420
414
417
423
432
431
425
435
446
426
427
432
433
440
455
447
434
437
438
435
437
436
436
435
436
441
454
464
457
448
450
441
440
445
447
453
443
437
458
473
464
453
448
441
441
455
465
468
465
458
461
469
450
450
457
459
447
454
457
454
459
448
461
472
467
463
466
463
472
468
453
456
464
472
474
465
466
469
470
462
464
471
457
445
450
448
449
462
463
448
444
442
456
472
481
484
486
486
489
480
471
456
456
466
479
494
486
463
456
449
473
484
471
471
473
476
470
472
472
468
468
457
459
457
460
467
460
474
473
464
460
467
468
472
477
469
472
478
494
501
499
485
447
428
439
456
463
458
460
465
472
477
490
494
471
449
447
448
454
483
488
473
465
467
463
476
497
479
447
450
464
474
474
467
469
478
494
501
476
452
471
468
484
476
465
449
456
486
493
487
479
479
470
461
458
470
482
480
477
472
467
473
487
492
481
471
462
460
477
492
494
492
499
506
515
510
500
490
483
490
487
484
477
502
518
524
535
516
502
523
551
536
507
519
526
519
527
541
527
506
502
505
515
525
527
524
529
529
507
529
561
569
584
570
546
546
528
527
517
522
525
521
497
485
494
505
506
498
491
484
493
500
475
472
470
470
475
459
440
444
445
456
473
467
459
453
454
456
433
429
437
436
442
447
448
450
447
455
450
451
442
458
465
456
446
434
430
418
421
430
437
443
443
452
464
464
448
437
439
442
445
439
415
421
421
429
446
442
460
469
469
451
438
440
456
467
471
464
439
432
419
421
437
453
463
462
454
449
467
500
507
502
490
483
485
481
500
531
533
532
549
573
591
621
645
658
668
670
676
693
712
719
711
704
701
705
712
671
622
587
551
504
450
391
353
321
298
280
265
251
236
236
239
238
244
256
284
301
314
324
345
356
364
369
377
402
427
423
419
453
463
444
429
433
462
471
474
477
475
491
458
439
462
482
467
454
476
485
470
448
469
496
491
477
490
505
503
485
482
475
468
464
489
521
505
485
485
499
505
499
479
478
490
497
501
495
492
497
502
501
496
485
492
498
493
494
496
503
510
505
499
507
498
487
498
500
521
527
496
488
498
487
480
499
516
526
520
515
506
499
498
510
519
517
510
509
515
525
513
503
506
503
515
546
552
532
523
517
507
514
520
528
523
519
505
523
531
536
532
524
523
531
528
524
529
530
521
521
546
561
547
540
546
548
535
537
535
533
532
537
552
566
550
553
546
546
544
530
536
544
544
556
549
537
546
568
578
567
548
541
551
555
537
539
563
566
559
556
551
569
574
564
551
532
532
541
548
551
546
541
529
531
541
550
545
540
546
560
569
561
557
559
553
543
550
561
544
544
562
562
571
573
555
527
542
532
528
518
515
514
522
512
496
509
519
523
529
528
520
516
501
496
490
484
484
480
474
465
464
478
483
473
476
481
469
462
468
483
475
445
424
432
442
442
443
430
426
444
459
444
422
415
423
423
429
446
441
429
432
447
433
418
410
418
416
398
390
389
406
429
431
424
426
429
424
434
427
422
438
437
425
415
410
425
441
412
418
436
433
431
432
424
427
438
438
449
441
431
444
452
442
432
429
441
449
452
469
472
435
422
428
439
434
427
435
459
454
453
459
478
476
460
435
435
447
441
444
445
438
446
460
473
457
457
462
458
457
467
472
456
449
437
433
441
449
446
439
446
467
473
466
462
469
500
499
482
455
470
469
462
455
435
432
439
454
466
467
466
467
464
458
470
476
462
447
448
465
476
482
486
481
450
458
490
488
460
452
459
480
476
469
470
465
467
472
468
458
453
468
478
470
446
446
456
461
473
476
488
488
479
461
454
464
472
471
473
470
469
468
453
462
469
464
463
452
446
448
462
463
465
464
467
468
474
491
493
473
448
436
443
457
479
487
484
481
460
449
449
459
461
463
479
474
480
478
453
448
454
468
475
492
471
448
472
500
477
462
454
467
467
467
463
448
455
462
477
486
483
474
477
476
469
470
474
478
469
456
467
497
494
496
496
451
440
444
458
456
472
478
483
494
502
508
503
498
474
451
464
483
494
498
490
483
478
464
473
501
513
514
496
494
497
503
507
505
521
530
515
514
518
518
523
521
513
524
539
555
526
503
501
512
518
521
526
554
552
518
515
533
539
549
563
561
536
520
520
537
546
551
540
507
491
491
493
489
484
486
473
479
480
477
479
480
466
457
467
466
464
462
450
438
457
452
445
454
460
454
446
440
430
424
445
447
445
455
442
436
427
421
438
444
442
447
443
444
452
456
459
449
446
432
446
467
465
458
453
450
452
449
440
436
428
415
420
437
450
457
441
434
466
475
458
451
465
439
446
456
454
453
463
454
457
451
445
457
461
470
470
476
455
462
497
501
475
469
496
530
546
566
581
605
633
658
662
642
643
662
671
676
682
681
696
700
703
702
700
672
615
557
505
461
421
380
345
304
281
276
278
250
230
234
247
262
280
300
308
315
319
337
360
369
370
374
375
390
423
429
414
433
452
462
476
485
477
483
491
492
481
477
470
464
459
466
467
474
465
445
468
477
471
485
494
503
494
486
487
487
468
466
477
495
496
473
462
479
497
505
500
503
505
502
499
496
492
504
506
495
497
501
511
524
510
495
483
490
494
491
497
508
506
491
495
498
501
507
494
504
549
553
525
500
506
519
515
514
509
501
490
483
492
495
521
542
533
527
510
505
520
527
528
526
523
510
500
504
513
504
504
504
513
532
548
540
531
526
522
523
537
545
515
510
522
547
548
527
523
534
541
544
543
541
544
544
547
552
543
548
568
571
555
545
536
536
543
548
550
555
548
530
534
556
549
519
502
516
537
546
559
569
563
538
524
543
555
568
588
580
561
555
560
538
528
524
538
560
574
567
558
558
558
551
543
537
546
559
563
543
543
543
533
541
526
520
528
559
589
578
545
529
539
551
545
540
537
534
518
489
497
516
541
529
524
523
523
521
506
503
503
505
507
495
484
482
506
489
467
464
458
444
456
466
459
457
469
469
460
464
484
483
452
450
457
438
426
426
444
433
422
421
428
437
435
424
430
431
427
411
414
425
427
421
411
414
428
437
430
420
401
402
413
413
430
430
430
442
448
429
413
415
423
435
434
436
438
436
427
405
385
400
414
426
443
456
450
447
441
451
455
451
435
428
434
436
440
452
470
440
422
434
449
461
445
444
450
450
439
436
440
439
442
435
451
455
447
435
437
447
456
451
450
454
456
457
471
466
464
469
484
483
469
463
464
459
453
454
459
460
461
459
465
463
449
468
469
477
496
450
415
417
444
469
481
490
471
458
465
453
450
464
476
472
467
475
478
484
476
480
493
496
496
486
467
454
459
462
463
465
466
454
444
459
473
481
490
487
461
450
465
473
469
458
450
442
438
448
459
458
451
454
459
466
458
455
461
469
467
465
475
471
467
463
458
456
467
465
458
462
466
461
467
474
474
485
485
464
443
454
462
476
506
499
462
448
463
453
463
462
468
490
481
470
460
452
445
444
454
476
492
489
485
460
457
460
456
468
464
459
463
467
472
476
488
486
479
473
473
477
479
456
451
467
483
479
462
467
486
488
478
474
480
475
479
485
487
484
486
506
517
524
516
514
512
503
505
515
503
495
490
507
525
552
540
503
510
530
528
505
511
521
515
521
526
543
538
521
527
542
557
573
573
571
541
534
542
536
533
512
497
492
488
481
466
445
447
468
468
469
455
458
462
460
468
466
463
478
462
445
435
442
453
447
435
435
427
436
431
425
426
438
462
471
446
434
436
451
460
453
450
449
456
460
436
433
435
448
447
450
453
456
452
459
439
439
433
434
434
439
438
438
437
438
460
453
442
434
434
436
434
435
456
467
453
443
442
435
437
437
432
430
432
440
436
431
452
469
483
489
470
467
460
457
480
505
522
548
564
584
614
635
641
670
684
654
645
674
688
695
696
692
690
670
659
666
661
634
607
543
471
405
358
326
310
312
272
250
227
208
218
237
266
269
273
286
307
326
332
345
360
377
388
381
399
422
425
430
429
431
446
463
474
472
462
466
465
466
470
473
483
490
476
459
480
488
479
482
484
482
469
451
437
463
469
458
475
489
493
498
500
507
499
503
519
529
521
520
497
477
476
477
478
485
491
484
488
502
504
513
503
477
469
501
518
525
518
497
490
490
495
495
498
488
526
534
508
516
506
490
515
508
495
509
509
506
504
519
508
509
509
495
500
510
525
536
545
532
523
532
544
549
536
530
525
529
507
495
505
531
539
520
525
551
547
510
510
524
533
541
537
532
531
533
537
539
525
514
529
541
543
540
544
543
537
531
532
534
528
542
534
528
546
561
561
556
549
556
574
577
562
566
569
545
527
522
533
528
536
540
542
553
564
563
572
584
573
556
547
553
569
547
544
542
551
528
533
545
557
567
560
559
543
555
566
552
541
543
570
583
571
545
545
538
533
540
541
538
532
538
510
523
526
525
533
539
544
533
521
510
498
500
524
542
529
506
498
508
517
505
501
502
493
474
462
471
475
459
456
472
492
487
474
469
448
458
474
469
475
452
436
437
437
405
427
457
447
431
414
412
409
407
409
411
412
415
418
432
434
447
448
425
420
411
409
419
419
416
423
416
410
403
426
440
434
418
401
401
415
430
405
404
431
447
447
441
435
432
434
432
430
428
429
438
438
428
425
425
431
443
457
461
454
452
455
464
442
434
435
435
447
458
454
438
436
433
434
453
447
439
438
446
452
436
428
435
423
435
466
485
494
486
482
474
474
466
448
445
454
457
436
430
434
441
450
458
462
460
473
476
467
471
461
468
477
465
455
465
470
471
464
460
453
449
463
475
468
460
433
434
447
474
484
475
474
481
486
474
483
495
490
487
480
457
434
424
457
475
488
478
472
472
464
461
467
465
450
448
456
459
469
465
453
453
468
487
468
450
458
464
435
446
480
475
470
471
459
455
473
481
479
486
483
480
468
453
453
459
451
446
447
457
476
473
472
469
484
461
457
465
459
453
484
509
482
467
465
472
472
475
469
442
447
461
449
441
445
461
452
450
459
469
488
490
488
486
489
491
477
467
473
476
486
490
495
495
512
504
510
514
495
490
511
543
524
507
503
496
497
500
500
517
523
529
536
529
523
528
520
498
498
504
512
529
538
539
550
557
554
539
535
536
546
543
542
530
524
520
500
508
513
498
472
461
486
502
488
473
470
468
481
496
474
453
432
426
427
445
470
472
465
452
434
446
439
432
433
440
444
444
451
442
435
414
418
449
457
437
443
440
424
432
441
451
444
435
433
430
418
421
431
444
443
438
434
436
437
436
441
439
434
436
443
436
451
453
438
424
435
427
430
443
431
432
441
443
430
416
437
469
473
472
470
461
462
453
462
469
480
500
493
485
484
484
481
504
534
560
572
585
604
615
632
643
662
662
659
679
695
698
688
688
692
703
680
660
654
611
565
518
459
420
403
378
330
300
284
268
236
205
206
239
256
263
269
275
278
285
307
346
393
399
413
428
430
411
398
419
439
421
423
437
447
453
456
463
464
459
465
460
456
462
480
481
482
489
492
503
478
460
469
480
479
487
494
502
476
479
500
507
494
481
489
476
467
462
471
483
495
486
502
512
501
510
529
516
488
481
494
498
509
517
508
497
504
503
506
517
514
508
494
480
484
488
500
513
523
506
501
528
544
522
520
509
493
492
484
493
513
530
531
534
535
517
503
504
500
522
521
530
547
549
530
519
524
525
525
519
516
519
530
536
546
539
539
533
522
510
482
509
540
529
524
545
580
581
565
545
533
522
527
545
558
544
534
546
567
559
536
531
540
540
544
570
571
549
552
568
575
561
544
542
547
550
553
555
554
567
561
566
566
546
542
541
539
538
539
559
561
570
581
571
571
596
576
543
537
535
531
542
550
551
552
562
575
587
585
549
533
543
548
550
543
530
534
532
536
532
533
543
548
542
534
534
533
530
525
518
515
515
522
525
511
507
509
507
504
507
503
520
495
486
480
483
487
496
481
452
436
440
463
483
489
472
452
452
455
446
440
444
442
432
442
457
465
481
472
457
432
420
417
411
414
415
410
411
405
399
419
430
429
422
428
432
427
423
429
438
420
404
398
414
433
427
416
423
420
396
405
425
433
445
445
444
438
442
439
427
424
421
414
418
422
408
424
459
449
437
436
419
426
450
470
467
453
448
458
462
474
471
448
426
412
421
437
436
433
434
434
453
465
456
438
453
472
465
447
458
463
468
457
459
470
467
461
462
461
484
494
480
474
470
460
447
441
451
465
465
464
459
441
442
456
453
453
464
485
478
466
460
464
458
469
486
477
464
456
466
448
448
461
481
478
471
465
452
471
462
447
448
464
487
487
504
510
502
483
475
447
425
435
458
472
475
465
463
453
464
469
472
480
468
455
460
476
482
477
470
456
462
452
448
459
465
472
472
462
461
462
473
473
450
470
505
512
511
480
438
440
463
459
465
460
455
454
442
450
465
457
446
458
465
456
460
461
472
482
477
463
456
480
499
493
479
458
457
457
481
475
479
474
477
489
487
497
505
511
499
495
484
519
524
510
506
512
481
467
481
481
494
508
520
505
504
510
516
526
528
519
527
523
515
522
499
490
504
509
506
508
527
559
573
568
578
580
564
548
530
518
516
518
510
502
499
509
518
482
462
476
485
470
464
464
482
491
483
468
458
453
444
442
455
460
459
448
446
457
467
443
439
438
438
451
459
449
441
457
455
456
457
450
449
471
454
439
438
452
432
419
430
429
444
451
436
421
434
451
453
449
448
453
444
418
426
448
468
458
445
449
451
439
440
436
464
453
428
440
444
448
457
460
453
456
453
451
463
457
453
443
451
471
477
469
486
499
481
494
508
510
524
542
559
578
588
595
611
626
629
645
680
694
693
686
690
709
715
716
673
653
635
603
574
545
518
459
399
363
350
319
296
270
259
251
235
237
235
248
271
289
312
309
304
328
366
385
399
395
391
405
421
431
437
441
439
450
454
475
491
495
495
485
483
485
479
476
459
457
460
471
488
489
479
485
491
488
489
489
492
480
501
504
489
482
486
482
495
495
489
495
498
502
504
508
508
524
520
508
489
488
500
510
506
496
503
512
512
520
502
492
487
487
495
493
490
491
507
511
513
513
511
518
515
507
502
515
516
498
485
499
522
523
518
523
509
516
517
516
515
524
537
539
550
539
538
518
518
508
508
509
514
509
511
531
526
514
513
526
527
518
529
530
523
530
534
533
538
546
567
566
517
494
517
533
543
577
558
529
533
545
544
541
548
548
538
533
541
535
543
555
566
563
548
542
541
544
549
562
557
555
558
551
559
574
576
558
530
537
538
517
524
542
563
556
532
522
540
554
555
562
569
563
557
553
554
561
543
531
538
534
527
530
547
561
561
568
577
573
551
545
548
554
541
527
520
531
527
513
518
514
535
527
517
535
531
515
505
505
510
505
515
513
508
498
496
478
478
496
476
465
468
470
483
480
480
480
456
458
461
464
438
425
425
431
438
430
431
433
448
453
440
421
404
413
421
437
444
429
436
438
422
404
414
424
429
423
418
430
445
432
423
419
423
431
440
429
430
427
424
423
419
410
414
416
423
429
426
426
439
435
420
407
438
474
451
431
440
454
445
447
424
420
419
418
430
441
438
449
467
453
427
419
425
448
449
458
455
448
450
444
442
440
448
460
455
430
432
439
461
467
478
466
456
464
458
435
442
474
467
460
448
442
446
453
452
453
454
468
461
471
475
452
455
465
475
486
495
475
459
466
463
462
467
462
438
447
461
459
460
464
465
473
470
458
475
487
474
480
475
479
454
467
488
475
466
454
464
467
462
454
458
470
463
481
482
470
477
487
475
460
434
434
455
472
481
477
473
472
477
473
478
480
478
479
470
461
454
445
454
474
475
466
461
476
482
474
461
440
432
451
471
468
466
476
482
480
481
478
473
472
471
467
464
467
483
487
491
467
465
490
497
506
504
518
502
471
461
462
471
500
513
498
493
496
499
506
510
519
524
521
505
523
531
528
511
538
545
519
508
506
510
509
528
543
557
561
555
555
534
504
516
521
525
529
518
511
514
509
519
529
513
498
495
511
490
483
490
485
474
476
471
468
454
434
431
435
454
467
470
462
457
445
455
447
417
415
427
443
443
435
437
453
468
453
425
419
431
440
449
463
461
443
427
428
412
417
444
457
453
442
440
444
440
425
436
449
469
474
455
421
416
430
441
449
444
450
434
432
449
434
388
405
430
435
434
442
465
456
440
442
439
439
450
461
463
457
446
469
470
467
474
471
482
467
464
480
510
533
558
570
578
584
599
624
650
651
650
662
688
703
692
692
695
695
685
687
692
653
595
564
529
474
407
368
353
331
300
284
272
255
251
232
231
232
239
252
273
314
334
344
362
377
384
384
376
385
396
425
436
452
438
437
447
461
470
457
463
463
464
476
469
461
454
461
466
470
476
473
464
459
462
480
487
481
477
464
483
488
491
492
501
497
495
489
486
482
471
478
481
462
475
488
494
516
511
491
501
520
498
503
511
504
507
516
496
475
476
492
501
512
504
497
508
526
551
529
522
522
515
511
510
501
506
519
513
515
508
504
506
508
500
507
513
519
531
529
531
527
516
497
479
479
495
524
509
512
538
556
549
530
508
516
515
503
516
514
511
538
531
529
536
531
530
522
520
527
537
522
520
537
528
537
555
546
546
558
557
535
547
553
544
543
542
540
543
538
548
559
564
558
553
546
531
535
548
535
525
532
542
571
597
624
594
552
527
553
562
539
537
543
538
552
547
546
533
535
547
563
573
576
582
562
536
528
544
563
553
545
545
549
554
551
532
513
508
524
528
519
520
551
556
527
523
537
549
538
531
534
530
522
524
523
513
514
525
544
494
486
492
491
487
489
479
474
480
473
475
480
477
477
496
472
429
434
435
438
437
448
446
447
451
444
441
412
397
399
414
433
456
444
430
424
434
429
419
421
434
423
406
401
392
381
390
395
415
442
447
426
415
425
435
458
476
444
418
381
381
396
406
439
468
461
445
413
402
398
428
421
425
428
427
438
453
454
468
452
409
413
426
442
448
443
425
436
440
452
458
444
438
449
448
441
437
450
453
447
436
443
454
454
447
459
466
453
455
441
456
449
415
423
432
423
434
444
445
464
471
466
472
469
434
417
442
484
493
468
476
472
444
452
457
460
460
475
462
464
460
456
448
461
466
459
452
465
477
466
473
469
478
482
475
476
492
524
503
457
442
435
446
445
443
453
451
454
454
460
472
468
452
466
468
469
450
442
458
472
472
488
509
507
501
468
445
449
480
463
461
463
463
453
462
469
449
444
451
460
470
472
466
475
475
474
443
419
418
449
487
484
478
482
475
464
465
481
478
477
483
490
479
475
476
472
481
476
482
481
482
497
508
490
497
488
464
459
476
495
500
494
497
503
518
528
518
503
499
497
503
523
524
518
518
535
538
539
537
529
513
510
515
501
488
509
530
539
540
560
570
561
544
546
540
533
537
530
513
523
525
498
479
496
521
515
503
483
470
477
471
464
465
461
463
468
456
445
442
434
426
441
477
466
467
457
434
426
428
440
449
443
451
455
436
447
472
446
424
444
437
430
419
421
439
443
437
431
426
442
436
425
423
425
436
439
450
451
432
433
450
441
452
462
461
436
439
448
455
435
436
453
451
440
434
431
431
438
445
441
450
447
449
462
478
472
443
437
446
460
471
488
468
460
467
484
496
523
560
573
586
612
629
647
671
683
693
688
680
683
686
676
670
691
677
670
676
669
657
582
525
446
384
364
344
332
282
262
264
250
227
232
228
227
245
270
292
307
324
329
323
349
366
379
393
409
442
449
437
437
424
413
431
459
460
451
473
493
496
492
482
468
465
485
503
506
483
444
433
440
457
469
478
491
475
464
481
483
498
500
472
467
477
489
498
497
486
488
511
537
520
463
471
463
464
484
496
494
485
483
498
524
517
508
502
500
518
516
510
513
513
509
488
482
491
504
497
509
531
497
487
497
524
524
509
492
495
504
509
513
506
511
509
514
515
519
519
512
517
524
537
538
540
538
540
534
537
533
528
515
496
487
505
517
529
538
534
534
534
529
531
532
535
534
539
553
543
526
528
508
513
538
544
555
556
550
554
548
539
545
555
533
531
537
538
550
549
551
542
538
547
550
543
566
565
544
518
492
537
595
579
560
564
567
572
570
571
557
546
548
547
549
550
560
568
556
543
547
535
533
563
556
554
550
544
550
558
555
554
560
568
558
554
540
508
501
517
546
552
536
532
552
576
574
549
532
520
516
530
534
508
487
488
501
502
515
519
495
484
492
505
493
484
501
504
494
476
452
456
467
459
449
441
442
457
470
431
427
444
459
459
447
435
439
441
438
433
435
446
445
407
411
421
416
430
423
408
416
431
444
432
426
421
452
451
418
403
397
407
395
405
409
415
407
418
427
428
419
406
417
425
435
435
434
426
426
418
426
445
460
454
434
419
400
392
409
432
445
439
428
430
430
427
436
442
450
459
482
470
438
437
425
438
411
399
426
445
458
480
483
481
450
445
442
444
453
462
460
457
457
466
462
452
453
465
456
450
455
455
471
450
426
454
467
480
490
462
460
467
459
433
438
457
465
446
447
459
476
504
492
464
454
456
480
472
474
461
432
436
462
473
469
465
453
455
481
477
460
454
461
463
458
455
475
478
472
467
463
453
449
458
460
465
472
456
468
471
459
454
463
466
460
478
479
476
498
509
476
440
457
462
452
453
459
453
457
470
459
453
462
474
480
470
474
485
480
482
499
495
479
472
437
426
443
448
457
480
490
477
479
495
492
473
472
484
492
500
488
481
480
472
450
476
479
487
491
487
496
518
520
505
522
523
501
498
514
538
553
552
546
525
495
481
488
505
520
524
531
532
526
525
537
545
561
569
579
564
562
574
551
531
521
519
511
507
491
489
494
490
498
490
475
470
469
483
479
453
459
464
448
439
452
460
471
455
447
450
449
431
421
440
442
438
457
452
448
443
446
451
451
446
449
460
444
439
446
450
433
426
425
437
419
438
462
445
434
434
429
422
432
452
446
457
446
433
424
423
431
430
443
439
453
428
418
428
432
428
433
426
425
438
432
441
449
440
460
484
471
459
476
481
472
469
471
492
491
460
444
438
456
471
504
532
554
567
565
571
605
651
676
672
674
680
690
700
705
698
696
714
705
666
660
643
609
557
522
463
409
377
351
322
280
265
243
242
250
227
219
227
247
277
299
308
318
316
324
364
387
374
381
392
420
431
428
430
433
460
470
437
436
469
473
466
472
475
487
488
478
465
479
464
471
476
466
485
518
505
468
443
449
462
479
481
478
471
464
488
493
510
508
485
475
461
449
468
494
528
525
497
494
502
507
502
496
477
474
468
484
504
503
513
510
492
489
503
503
497
509
495
495
489
488
511
499
501
519
520
510
511
506
500
495
507
522
526
521
535
534
526
495
489
507
517
513
504
500
506
504
485
491
508
532
547
532
522
523
526
533
533
522
530
527
528
537
532
522
520
542
553
545
552
553
535
529
518
512
522
529
532
525
534
558
536
528
540
532
545
549
540
566
591
576
540
539
542
556
573
580
611
542
521
518
533
558
558
571
568
556
548
550
553
547
548
555
559
553
556
563
564
566
576
557
540
550
551
535
530
551
561
552
546
529
515
533
568
563
556
565
536
522
532
528
522
523
540
547
556
538
533
543
556
569
568
538
519
511
510
515
519
529
509
502
505
508
496
470
470
478
475
474
489
475
472
457
479
456
465
464
443
451
453
471
478
454
446
437
431
426
433
429
423
418
416
413
434
451
449
432
425
438
434
422
419
410
410
409
414
400
381
390
408
432
448
440
437
441
426
426
428
424
420
427
426
408
419
420
416
412
412
417
423
441
452
451
464
439
403
418
426
445
427
409
413
435
444
444
435
424
432
444
440
442
443
447
444
441
459
451
443
446
443
443
438
440
440
435
437
443
448
457
470
480
474
460
439
447
443
450
460
467
459
453
445
449
459
458
454
450
440
438
449
451
448
450
461
469
470
466
462
458
464
465
470
478
472
457
460
446
439
444
459
472
488
486
467
454
449
441
464
493
486
480
472
461
462
447
450
470
462
461
473
466
483
479
487
478
468
462
469
468
461
462
452
461
471
474
466
463
473
476
468
454
441
448
452
472
480
478
483
483
480
465
472
471
470
480
490
495
513
509
482
482
491
486
487
497
497
502
519
520
499
493
495
500
496
475
464
496
510
508
518
527
539
551
531
506
501
486
480
488
511
532
533
540
541
547
529
521
552
546
545
526
522
537
554
549
545
544
541
524
505
482
479
488
489
485
478
479
464
471
477
476
476
479
462
455
461
473
450
429
428
445
443
447
456
453
430
439
439
456
458
454
463
465
448
440
428
448
459
442
439
436
446
452
452
453
450
437
437
444
437
446
424
429
431
435
441
446
442
440
444
431
444
441
433
429
445
448
453
449
463
454
432
430
434
448
441
433
450
460
449
454
450
446
468
467
469
470
473
470
481
489
484
468
464
490
519
535
550
578
577
588
608
615
631
625
634
642
664
690
696
698
695
685
669
662
658
637
589
557
522
475
410
375
343
313
288
282
286
262
260
271
272
278
284
299
318
335
344
342
341
348
349
358
380
397
423
456
455
430
426
453
459
464
478
492
486
497
478
462
464
462
467
484
480
462
479
496
488
490
483
471
482
485
470
467
474
493
515
501
484
462
466
470
477
482
487
506
509
496
495
509
493
490
489
508
515
519
509
525
545
529
519
515
486
472
478
477
485
491
490
508
526
506
496
503
524
525
509
504
504
501
506
493
506
506
497
511
518
510
531
541
526
518
494
482
495
529
520
506
512
514
511
502
510
518
500
500
527
539
520
539
555
546
525
511
502
499
521
544
553
533
540
515
512
513
525
535
536
538
522
511
520
533
523
541
547
538
539
542
538
544
551
545
534
535
555
556
548
556
546
546
577
603
593
590
577
555
529
516
497
487
526
581
549
547
550
549
542
534
533
552
561
576
584
552
545
548
570
563
551
540
536
539
539
541
534
520
533
536
544
562
566
569
550
526
539
543
558
554
519
504
517
513
502
501
507
528
530
534
535
517
511
507
503
499
498
509
507
494
480
460
476
481
466
464
455
461
461
474
491
485
462
454
456
453
458
450
446
445
447
453
453
444
449
434
413
411
399
415
435
435
400
404
396
378
407
425
419
422
433
451
455
426
410
406
401
393
418
416
420
415
433
450
449
436
432
451
457
436
428
431
418
410
421
424
421
420
428
441
439
428
418
427
438
448
466
455
435
428
421
427
426
427
440
457
455
450
452
463
445
436
455
445
432
444
472
467
451
444
458
463
441
437
428
433
449
428
444
469
470
477
484
454
436
453
468
482
477
484
465
454
451
452
443
426
415
432
457
473
480
492
497
490
474
481
487
478
465
459
475
477
456
445
452
446
456
462
480
494
465
458
467
465
467
467
462
466
473
471
476
483
465
440
446
458
459
448
447
444
448
489
490
479
489
490
490
469
481
477
472
459
447
466
464
471
485
457
444
436
444
471
476
481
480
482
470
466
466
476
501
479
473
500
537
524
487
492
478
457
464
495
495
502
507
483
478
483
489
496
512
509
511
512
515
511
517
527
526
520
521
516
518
510
500
491
494
508
524
534
545
548
556
561
556
530
522
531
542
537
537
519
510
506
513
500
488
491
487
482
484
486
458
456
474
470
468
468
449
453
459
455
449
467
470
447
460
487
454
448
436
421
415
428
432
425
436
448
455
455
444
430
431
442
447
443
455
451
441
432
432
427
428
428
438
446
446
448
450
451
443
444
444
449
455
440
438
427
433
425
418
411
419
427
438
451
456
463
452
459
452
425
416
422
410
410
435
496
507
484
485
488
482
484
482
491
491
481
497
513
523
537
557
589
616
632
647
662
675
677
700
688
690
701
697
681
675
674
680
664
633
596
544
490
438
398
365
326
293
272
274
249
230
236
245
258
267
271
272
291
315
337
356
387
390
396
394
401
394
416
438
450
462
467
442
432
424
427
458
461
479
465
457
461
466
479
468
459
463
478
479
465
474
478
483
489
499
489
481
463
467
467
470
490
497
484
492
490
479
483
493
493
497
501
508
528
522
508
495
477
478
478
481
500
503
499
513
518
529
528
523
505
485
470
470
483
500
501
511
516
514
504
500
523
511
502
487
483
479
507
515
508
495
500
495
499
518
523
525
537
523
519
512
523
534
522
520
541
552
540
522
503
513
526
528
515
515
505
519
519
526
535
530
533
542
541
513
514
533
551
546
551
544
524
512
516
517
522
545
553
542
562
600
580
554
535
530
544
548
555
551
562
570
553
546
553
568
560
538
530
543
542
545
570
549
550
548
545
550
549
548
533
512
512
554
559
551
552
559
554
544
540
548
555
555
563
563
572
568
565
572
570
564
557
542
521
530
528
525
535
546
546
539
534
542
555
531
522
531
558
546
516
515
527
527
529
524
487
471
470
458
477
478
474
474
479
479
496
497
503
498
485
458
475
469
473
471
466
439
457
447
441
439
449
451
456
436
460
454
425
407
403
409
414
424
423
427
433
418
391
401
420
441
443
440
423
413
427
428
428
422
430
410
393
405
435
453
438
420
423
412
410
422
430
441
445
431
439
438
441
450
437
447
460
450
430
432
436
442
436
432
426
436
436
436
447
448
439
442
464
474
457
448
447
457
457
459
467
462
469
467
458
437
438
456
445
450
452
444
445
473
479
475
461
477
493
487
473
429
403
418
449
469
466
457
452
447
455
465
463
476
476
466
473
472
466
473
475
465
454
457
462
460
452
451
460
467
483
480
472
493
505
504
478
461
451
452
464
459
476
485
447
433
443
460
486
500
487
488
481
502
483
461
466
471
473
471
472
478
455
466
484
478
459
461
474
475
470
468
466
470
458
440
437
467
492
481
465
478
487
475
459
463
489
490
477
485
478
466
470
459
448
467
500
504
493
490
493
479
476
482
489
494
501
504
515
523
513
510
509
527
514
524
516
521
532
524
524
519
513
522
518
510
517
523
531
501
500
534
562
559
544
552
565
557
532
537
544
531
518
513
508
497
492
489
477
482
476
473
487
481
484
493
500
480
449
438
438
421
436
445
441
451
458
456
448
454
423
416
451
464
457
449
442
445
441
406
404
417
444
446
442
427
431
456
439
422
437
442
449
445
441
449
448
446
425
418
421
427
455
449
411
395
410
412
414
426
461
478
473
463
464
455
432
440
429
441
447
444
439
445
438
425
441
455
459
464
488
501
503
500
496
486
462
479
493
500
524
550
567
586
605
591
597
611
643
673
677
686
694
699
694
689
686
695
719
716
656
605
559
491
431
374
359
341
307
297
283
258
250
242
229
239
248
265
260
251
284
317
337
342
338
373
382
398
416
422
423
441
451
461
450
466
484
468
461
444
443
462
462
468
492
463
456
479
463
465
486
497
486
485
474
459
445
455
491
511
506
486
477
502
502
483
478
489
485
481
483
477
479
503
523
508
474
465
487
510
531
528
521
513
477
471
479
499
524
531
517
498
510
514
489
482
487
487
490
485
495
502
512
527
524
530
524
503
510
517
530
514
501
496
511
506
507
524
511
498
501
513
514
524
528
523
520
524
508
515
524
513
504
514
533
550
543
519
505
515
533
544
538
532
524
525
533
537
522
536
548
552
552
550
539
542
547
566
573
553
508
483
492
534
545
550
532
528
545
573
587
566
554
570
564
558
548
539
553
555
542
534
537
527
530
531
555
573
588
581
550
554
563
558
547
542
549
549
548
529
526
530
532
543
549
544
545
556
572
558
549
544
532
522
532
546
564
577
542
520
531
524
528
521
529
526
520
535
540
534
539
524
510
525
527
521
512
501
482
477
492
524
535
519
504
491
495
480
460
460
457
443
443
452
470
467
451
450
467
462
484
495
456
424
424
426
422
422
416
426
428
418
413
412
441
449
432
439
429
415
412
421
434
413
402
423
435
443
435
443
433
434
441
415
425
420
401
398
417
437
444
436
408
404
405
408
418
448
458
454
442
439
435
423
440
451
418
413
432
447
454
442
427
430
420
419
452
449
425
428
438
441
444
457
457
455
453
448
450
454
443
441
444
444
429
423
440
465
471
475
458
465
481
475
451
450
441
456
467
448
448
451
434
455
488
474
459
453
455
477
467
436
435
448
464
455
432
450
473
468
451
446
460
484
489
483
472
463
461
457
456
467
476
473
477
476
485
469
456
452
441
441
448
457
465
481
487
480
462
457
455
464
470
469
467
464
464
465
478
485
491
483
460
456
470
478
480
478
467
471
482
466
448
455
465
471
473
462
465
460
463
474
451
430
442
451
458
473
464
468
487
507
526
511
495
464
451
466
468
460
468
482
457
451
475
488
486
490
502
510
510
515
509
515
541
535
516
494
476
476
497
507
512
524
539
553
547
524
509
519
510
493
516
532
540
536
535
549
544
539
538
545
548
550
567
533
517
518
531
526
519
502
471
470
480
498
501
488
495
491
486
466
440
445
444
434
450
464
449
432
425
447
453
453
453
470
456
443
446
435
427
431
432
448
454
451
473
460
443
441
392
398
408
421
429
427
439
451
456
456
457
462
470
428
403
402
415
426
433
440
455
471
455
460
460
445
418
389
413
432
421
426
442
443
465
446
414
416
445
457
463
457
439
435
445
453
455
455
460
458
462
476
480
449
431
478
515
537
559
571
582
623
642
643
644
647
659
652
668
686
686
685
693
683
694
695
682
663
632
566
513
460
398
370
338
283
255
258
239
227
232
237
269
277
275
276
299
313
309
323
336
365
386
419
439
437
428
408
406
419
445
438
440
454
471
479
469
456
463
471
463
473
481
474
466
467
472
468
476
482
479
485
482
482
474
466
485
514
524
503
478
477
473
461
467
486
488
492
506
531
523
478
481
482
469
467
476
494
523
543
519
492
494
505
503
495
503
508
509
526
535
536
516
497
506
515
511
490
504
519
518
493
483
502
507
506
516
520
524
518
518
521
517
513
517
519
542
539
547
534
531
548
530
519
512
496
505
520
531
524
519
516
534
527
511
515
534
518
523
540
537
531
539
553
562
572
548
541
512
528
542
533
536
541
557
543
528
542
536
534
544
549
549
540
553
555
539
522
519
528
551
567
571
566
566
565
576
562
527
531
551
563
570
551
561
571
571
561
534
539
554
540
545
527
529
529
544
564
552
537
531
539
549
572
576
564
565
546
553
563
551
534
531
531
535
537
520
517
526
542
550
551
549
544
537
523
508
517
528
540
543
512
505
504
499
491
486
497
501
499
508
505
501
503
516
514
504
493
483
485
461
443
442
435
436
447
447
444
433
437
436
441
444
439
426
424
433
434
423
419
415
425
431
447
441
422
412
406
400
409
420
431
436
437
428
428
432
430
421
425
438
421
415
406
402
421
442
442
414
409
433
447
447
432
420
441
452
449
455
444
433
445
460
449
431
419
406
428
449
440
428
423
420
417
426
444
447
438
436
444
464
475
469
459
454
452
450
441
419
445
474
477
475
464
463
464
449
432
422
447
455
468
495
485
456
456
438
424
436
435
444
464
468
478
465
462
459
460
457
447
453
464
462
474
468
474
467
457
461
460
479
476
468
469
476
468
473
477
475
474
473
461
454
455
452
451
457
456
464
471
464
463
475
478
460
452
460
464
470
480
474
480
496
477
451
470
472
477
484
494
494
474
448
443
457
474
462
449
457
448
455
469
458
453
455
454
454
451
470
465
456
447
467
468
472
469
474
454
459
454
456
455
460
466
456
459
478
501
498
467
469
473
486
481
472
489
494
491
485
491
489
489
504
524
513
501
511
506
483
480
496
520
523
530
515
505
513
527
520
534
530
522
510
487
497
517
530
519
535
541
552
548
542
541
549
560
545
539
546
535
543
538
510
500
495
507
499
501
502
501
498
490
478
470
468
454
439
428
433
442
454
448
440
436
445
443
445
448
443
429
426
431
430
424
418
430
445
451
456
443
431
439
445
445
437
438
444
447
437
425
426
429
433
437
444
444
433
435
454
446
434
425
432
430
437
451
459
452
445
448
444
440
438
436
447
461
464
427
420
430
445
438
440
459
434
436
446
448
454
463
474
491
490
481
479
477
499
490
484
515
540
564
578
594
612
616
612
624
628
646
682
712
684
679
690
692
706
711
709
682
643
599
534
506
454
397
343
309
294
269
238
224
215
227
244
255
259
270
282
295
288
305
350
355
367
387
402
401
398
414
431
443
450
466
465
479
485
483
442
444
451
449
451
472
485
478
475
474
483
490
491
477
472
480
476
484
496
472
468
487
484
490
491
501
493
474
474
487
506
494
479
483
503
537
526
517
490
480
481
501
497
485
487
504
519
505
489
492
500
504
513
523
541
522
500
507
508
505
505
495
494
500
512
522
517
491
483
488
488
497
516
515
511
505
503
525
514
502
520
538
529
535
547
539
535
515
511
505
520
522
519
527
523
528
539
536
532
539
529
527
529
531
526
516
526
522
517
521
522
526
540
545
539
543
550
562
572
547
572
548
529
563
569
536
532
556
565
558
540
532
541
546
537
536
552
551
544
544
539
533
527
513
519
529
573
580
577
574
575
567
571
577
558
551
543
549
562
561
554
545
521
540
540
542
562
547
548
553
543
536
531
539
543
542
539
550
550
540
537
541
561
547
546
541
540
533
520
504
507
513
509
520
524
531
532
534
509
489
506
519
521
514
520
510
492
475
474
486
499
483
448
440
449
461
457
462
475
469
464
472
473
476
451
446
471
448
439
435
432
429
431
429
435
445
451
456
444
418
398
395
417
426
422
410
394
390
413
429
431
428
438
440
427
426
427
430
423
416
409
413
431
445
443
442
431
426
432
415
399
422
451
470
453
443
451
463
443
441
442
425
406
415
422
422
434
453
463
474
468
466
445
440
446
449
449
451
450
443
451
443
473
454
434
469
458
446
426
438
449
438
448
464
463
459
454
455
456
452
450
451
457
461
448
448
453
443
452
460
462
479
474
476
490
456
441
452
459
475
489
483
477
476
470
456
441
444
462
487
490
492
468
475
489
464
434
454
472
468
465
471
465
471
461
471
477
480
482
470
467
456
455
458
455
468
469
475
488
489
491
490
468
472
465
464
467
484
439
427
443
455
462
482
473
458
473
479
487
472
473
478
457
451
468
469
467
485
477
466
481
496
493
497
495
489
483
490
516
510
497
488
501
488
498
519
528
525
516
490
492
522
551
557
533
522
517
512
520
535
536
511
496
514
532
536
529
537
545
550
560
575
551
532
515
521
525
521
539
539
522
486
485
490
479
472
483
479
463
467
466
472
480
455
441
451
465
464
467
466
472
442
423
437
418
397
427
439
433
423
409
413
432
444
440
442
447
455
449
437
439
439
431
433
448
437
426
428
429
429
432
445
453
449
448
453
467
447
440
424
436
438
428
428
428
432
444
453
467
450
401
403
427
447
469
471
451
437
434
450
451
465
464
464
476
444
425
435
459
471
465
458
461
478
485
511
547
569
584
611
591
590
593
610
652
672
660
675
690
694
699
715
698
684
676
669
662
618
586
514
446
393
348
329
300
297
274
239
204
208
222
255
269
258
264
294
314
312
339
357
373
387
397
390
411
431
436
434
447
464
450
447
449
458
471
493
504
480
469
459
443
437
470
495
488
485
485
485
479
472
452
468
480
484
493
510
490
455
472
498
495
470
462
472
493
489
503
519
516
506
503
490
475
484
503
508
520
512
509
529
525
515
508
490
487
498
504
505
499
496
489
488
504
511
487
474
501
519
534
510
504
508
501
501
506
505
498
526
532
526
516
506
514
523
539
548
543
530
524
527
528
517
513
509
507
526
549
559
510
492
492
514
543
551
566
567
558
519
511
526
527
526
536
553
538
546
543
539
530
527
530
528
528
529
540
559
542
544
549
539
550
571
562
550
543
530
521
535
553
542
536
540
547
547
543
535
538
565
579
580
572
555
535
536
541
535
538
545
552
551
548
563
574
573
555
542
548
555
550
569
576
567
541
526
525
527
543
565
562
539
522
521
529
540
561
544
554
571
561
554
528
514
511
514
518
519
524
517
541
548
516
496
507
522
518
508
526
544
501
456
449
454
471
511
527
496
460
434
440
450
463
459
460
456
448
448
430
441
456
445
439
431
430
433
433
444
435
416
414
419
420
428
440
442
426
447
425
411
421
434
438
436
448
421
426
446
456
416
403
399
391
403
407
409
412
420
430
435
430
424
437
451
463
442
438
436
426
420
429
430
429
435
434
462
437
420
447
435
426
439
463
490
461
443
439
451
453
428
422
426
435
434
431
445
456
470
467
449
436
444
467
490
448
429
436
453
448
451
475
471
452
446
445
459
480
474
467
462
447
457
489
484
485
476
483
485
449
449
469
465
447
435
439
449
463
476
481
481
466
470
471
457
460
466
465
464
467
476
462
435
449
461
456
457
454
473
457
445
457
483
486
495
484
483
495
484
449
440
454
451
444
461
446
447
467
453
462
475
480
499
502
472
455
455
455
445
450
460
466
459
446
453
473
500
491
474
481
479
475
483
482
491
502
484
485
493
507
498
486
475
476
486
473
472
498
514
518
514
508
526
525
518
524
515
525
505
515
532
552
538
532
518
502
476
473
485
508
524
529
549
568
573
561
552
537
550
577
577
561
523
513
506
511
520
502
476
483
483
466
470
495
483
465
467
475
478
472
456
441
445
450
440
454
459
447
453
461
462
455
446
439
437
440
456
443
440
425
423
423
417
427
447
428
421
410
432
448
448
436
422
423
437
449
450
432
416
414
447
451
435
403
399
433
463
482
455
432
441
434
422
430
447
455
453
454
452
444
440
456
448
439
430
415
411
438
447
443
455
456
475
486
500
498
484
486
484
498
499
498
504
532
547
550
575
619
627
640
652
681
695
666
667
676
689
700
691
690
677
672
668
627
560
494
454
419
393
392
355
315
296
278
240
230
217
239
264
259
248
244
252
275
298
323
345
373
387
403
423
439
424
417
433
440
465
473
476
472
462
448
449
475
482
480
459
446
452
455
465
477
495
496
484
484
459
468
493
473
464
469
471
480
520
517
487
493
506
480
477
487
476
475
500
507
495
475
472
470
474
489
506
500
491
489
496
523
516
513
508
516
522
525
520
504
487
490
490
493
489
484
503
516
514
514
506
497
497
511
494
494
501
505
517
518
504
499
511
539
536
517
525
522
533
527
529
535
534
525
514
504
502
521
529
522
521
521
518
514
547
572
578
547
525
517
516
510
527
552
547
565
565
555
541
524
526
539
533
544
521
506
532
553
542
541
541
539
546
552
560
552
524
528
542
539
551
554
567
576
563
579
583
549
549
545
547
559
575
595
582
557
527
559
559
537
514
517
537
543
539
539
533
559
570
565
559
549
522
528
540
535
524
552
554
562
562
559
549
540
543
544
546
536
529
533
536
547
542
528
518
523
526
535
533
522
520
517
517
512
519
520
511
503
489
468
479
497
507
486
472
475
469
478
479
483
493
477
455
443
435
435
450
423
422
449
452
454
452
443
443
454
443
425
400
397
401
426
432
433
441
419
411
422
430
412
416
432
440
430
446
433
418
440
443
440
429
423
399
397
408
396
391
418
446
468
442
418
403
420
438
437
456
450
461
441
417
429
432
440
451
445
452
464
443
427
431
443
446
450
446
451
454
458
453
456
451
438
432
434
451
470
483
473
451
446
435
438
433
447
463
471
469
445
445
448
449
446
440
426
433
439
438
436
432
456
465
479
475
484
476
465
461
470
473
467
462
473
488
474
462
452
460
469
489
481
472
464
460
455
463
450
445
463
459
448
443
463
475
458
454
458
474
484
461
455
477
479
484
484
463
464
465
463
463
467
464
477
472
463
450
439
458
454
440
437
443
466
490
495
476
473
475
478
490
515
522
489
462
441
465
497
477
464
469
476
476
475
480
484
478
474
482
475
491
514
497
487
486
487
486
498
502
519
488
481
487
507
530
536
514
531
569
551
559
539
529
521
521
527
515
520
527
521
505
515
513
508
505
521
554
561
558
556
537
519
525
530
518
509
478
486
507
499
477
487
486
474
473
476
472
463
462
459
464
456
446
440
425
423
445
458
448
426
439
445
451
451
444
432
435
438
426
436
436
428
413
433
463
462
462
466
444
431
426
459
471
430
418
406
400
411
424
428
433
443
443
461
464
453
435
416
421
433
437
445
462
450
433
433
447
425
443
454
447
448
448
447
468
465
451
438
434
444
447
460
460
461
470
468
492
505
478
454
473
507
539
568
573
561
567
594
614
634
659
669
690
721
731
729
714
724
680
673
677
675
654
605
560
495
442
383
340
354
291
277
269
276
257
250
237
239
259
264
271
295
333
343
348
348
370
393
379
374
390
414
421
413
429
447
464
477
485
489
470
476
482
477
475
472
474
465
472
513
481
470
459
465
461
464
477
484
483
499
519
494
486
492
481
472
490
467
468
485
487
504
503
493
498
482
497
512
512
507
518
524
488
449
465
487
511
501
497
502
510
505
519
537
552
556
524
490
487
483
484
483
485
506
521
514
515
503
502
515
510
512
514
501
480
470
486
505
497
478
494
552
560
507
492
499
518
541
537
536
531
507
512
527
516
522
521
521
528
543
557
557
553
526
517
510
508
499
485
495
542
556
536
553
556
542
520
526
529
531
523
511
547
581
582
558
539
541
557
550
551
554
532
511
535
545
542
553
571
580
565
542
551
548
550
545
545
554
559
564
559
546
526
530
563
568
549
534
537
531
540
539
526
521
523
526
533
542
539
544
545
517
493
516
552
559
569
567
564
570
556
550
539
537
535
528
518
508
510
521
538
537
533
532
529
507
502
494
499
507
506
507
516
523
509
496
493
490
483
478
486
462
452
445
469
477
481
446
433
457
465
443
433
427
434
455
473
473
463
455
422
409
422
432
423
423
430
417
439
434
420
423
429
415
421
424
404
398
396
407
440
431
446
458
453
446
416
437
450
429
415
411
431
444
445
440
427
433
427
424
420
417
418
426
435
435
431
445
456
454
432
447
467
450
443
434
441
438
429
416
429
452
462
464
463
465
459
449
453
456
444
456
452
443
464
470
460
450
454
464
466
454
449
449
476
468
458
470
472
481
464
462
465
458
459
459
462
455
447
462
463
471
484
468
465
473
468
475
468
456
449
455
464
497
509
515
507
484
453
441
430
433
438
443
472
479
434
437
470
475
468
460
477
492
487
479
479
470
473
479
477
455
451
475
456
453
470
470
476
473
479
478
464
482
494
483
476
447
433
448
467
476
478
475
483
499
477
485
489
504
519
507
477
472
476
495
508
505
510
508
510
522
497
497
520
521
511
520
524
521
515
513
513
506
507
489
479
497
488
497
524
521
521
530
548
558
557
565
559
554
529
528
528
525
536
513
502
515
510
495
510
520
488
467
455
466
489
475
465
449
445
443
434
455
457
461
469
452
445
427
448
451
452
447
433
416
426
432
437
460
466
477
475
431
422
432
453
451
434
428
442
442
435
429
433
437
448
434
447
461
455
452
443
448
446
443
423
425
433
445
441
449
454
455
460
447
450
441
441
438
426
437
451
455
447
446
456
454
468
470
461
454
442
454
490
498
485
496
495
498
504
524
530
516
526
557
575
610
627
616
629
635
644
648
661
682
665
667
678
697
659
624
605
567
572
544
482
418
386
371
339
321
292
277
278
278
283
289
273
292
304
304
315
332
333
346
341
351
396
428
422
408
408
429
449
456
463
468
464
474
485
484
491
473
461
474
492
490
475
471
480
458
459
458
475
497
494
470
474
482
485
494
486
486
489
487
460
450
476
498
507
516
520
514
504
482
501
512
501
514
527
507
482
488
469
475
468
481
501
518
506
489
477
487
504
503
501
519
514
503
508
516
519
513
513
533
535
536
486
505
523
516
503
503
505
499
490
485
509
525
521
512
512
508
504
501
508
532
524
515
534
516
490
493
514
528
520
529
540
546
555
529
524
520
517
517
515
509
498
494
505
542
547
543
553
534
538
556
553
548
552
558
556
569
587
544
511
533
555
521
516
536
546
561
578
572
566
545
538
554
558
538
528
520
559
542
532
542
556
567
563
561
544
534
530
526
520
522
527
519
539
574
578
564
560
548
541
532
536
543
537
547
541
548
554
536
517
511
532
530
542
554
564
569
545
528
517
523
518
523
536
512
504
499
490
493
499
491
487
502
496
473
480
504
514
508
514
497
474
469
456
460
479
475
469
470
444
445
464
467
440
433
455
466
468
467
458
449
419
399
411
433
441
439
427
425
409
415
436
452
440
423
424
409
408
420
429
437
439
442
456
439
424
423
433
431
410
407
411
430
432
415
418
432
434
439
455
448
436
426
419
420
419
408
401
404
420
456
462
445
435
433
428
425
430
429
444
471
499
462
455
463
454
435
429
422
422
427
443
477
482
481
459
447
467
481
466
463
467
444
418
404
420
448
453
461
468
457
451
464
476
485
505
506
485
475
481
461
452
438
435
448
465
469
459
458
459
468
486
484
474
465
457
469
479
479
489
484
467
459
451
460
458
452
457
455
469
466
456
464
460
457
471
476
464
448
474
497
474
449
462
483
490
462
448
460
465
471
471
452
455
474
460
472
480
473
483
500
498
500
512
508
509
489
473
488
482
489
495
502
518
494
483
492
504
506
508
511
507
513
512
498
506
515
504
512
516
515
534
515
484
464
485
494
518
540
548
528
519
533
549
540
532
540
537
527
541
549
544
548
509
446
466
493
502
502
495
472
454
466
501
504
467
437
420
415
408
421
445
461
455
447
453
465
464
449
441
439
443
446
442
425
419
439
460
450
437
425
437
446
441
439
443
443
443
435
428
421
406
406
418
434
448
450
452
451
443
426
420
431
446
443
439
458
455
460
454
442
439
445
438
426
449
453
455
432
418
437
449
437
434
434
425
445
462
484
481
471
469
475
464
460
465
470
506
535
553
569
567
588
601
603
601
622
641
671
687
699
709
693
677
683
700
721
731
703
663
610
563
488
415
387
385
371
346
332
306
277
255
244
252
272
284
305
296
304
323
330
353
356
363
371
374
401
421
424
418
425
442
443
443
446
451
468
459
462
468
480
484
462
451
466
472
475
450
454
433
434
443
475
483
482
474
451
439
461
477
476
480
492
487
492
511
491
475
495
485
474
474
470
481
480
467
471
469
487
501
505
510
511
500
491
483
496
512
511
495
502
516
498
508
485
490
475
484
503
506
497
488
515
519
508
507
509
504
510
500
503
515
492
477
483
497
491
509
530
508
502
502
497
491
500
527
537
548
537
535
530
508
515
522
515
517
514
518
517
509
524
543
526
523
529
538
527
529
548
544
548
558
558
545
536
525
532
524
506
506
521
535
546
554
557
536
542
550
549
536
539
545
537
554
559
585
553
542
547
541
543
544
537
534
543
548
544
542
532
517
524
554
568
560
560
558
559
562
548
546
550
553
544
518
527
546
565
559
553
560
564
540
525
525
527
528
531
537
541
548
551
553
569
539
511
500
492
510
518
499
502
497
515
525
527
515
490
481
472
478
492
512
501
479
476
462
443
483
495
462
455
474
481
465
464
467
470
458
432
423
404
404
411
424
435
445
441
448
454
449
436
428
446
445
437
422
418
401
410
402
404
408
393
415
429
423
430
438
440
435
425
435
435
426
406
408
437
415
373
389
400
414
433
436
434
436
434
444
448
439
448
449
442
446
436
432
444
470
442
426
435
431
433
458
476
459
460
464
439
451
462
467
464
441
444
460
463
459
457
455
448
443
458
465
463
474
467
460
435
434
455
463
461
471
480
486
498
479
471
467
466
433
427
444
469
463
473
476
468
455
452
472
462
456
466
482
492
513
529
493
440
437
450
460
463
462
468
458
435
441
448
471
499
480
457
468
485
466
450
470
473
461
472
479
498
498
468
486
485
498
487
465
455
457
455
447
471
473
469
467
474
469
467
476
482
476
484
492
479
453
466
479
485
480
491
498
489
456
432
434
435
460
447
464
486
496
490
478
480
484
499
495
485
490
503
509
516
501
475
491
520
517
489
474
490
501
494
498
516
522
516
512
534
526
499
503
518
517
510
497
497
504
501
510
530
542
537
547
557
575
568
551
550
537
515
515
533
526
493
495
504
514
496
495
481
472
477
478
472
483
500
510
456
429
438
438
448
431
434
438
440
433
420
429
481
491
444
451
438
433
417
438
449
450
458
462
445
425
407
413
421
438
455
460
469
462
435
441
445
451
449
452
456
440
420
423
429
435
435
436
444
452
442
441
452
456
449
440
436
449
450
434
437
462
458
471
485
459
435
420
406
426
470
485
475
483
491
491
484
469
456
476
477
494
517
528
524
543
579
610
600
607
628
649
660
700
696
714
713
717
726
732
706
678
668
615
573
553
540
507
449
393
343
305
296
282
267
245
227
221
239
258
264
277
285
303
344
364
359
382
393
400
397
400
406
410
419
451
472
466
463
469
472
479
482
487
477
465
453
456
461
450
463
462
463
473
497
492
477
483
463
471
485
496
481
489
452
447
483
473
484
486
473
471
479
491
504
501
507
510
492
500
500
486
491
493
483
486
487
471
485
493
497
485
503
535
546
535
520
509
503
507
511
531
538
516
492
452
462
477
492
491
485
507
524
525
529
532
532
522
509
506
511
513
505
515
525
531
501
495
501
505
505
513
530
537
543
537
528
536
539
530
541
556
539
547
563
530
508
509
504
508
526
555
553
552
568
574
537
528
525
524
524
522
522
520
528
536
533
537
528
525
554
552
535
530
536
555
572
586
564
553
562
552
554
559
548
541
541
555
557
571
580
557
544
547
572
569
541
526
531
538
545
547
551
540
537
543
551
563
565
553
548
546
532
521
518
534
556
551
534
515
522
543
560
576
563
527
501
539
554
555
576
559
534
516
504
498
518
529
517
493
478
488
505
511
490
489
488
490
483
469
468
462
451
456
469
490
502
480
464
468
470
462
450
446
436
442
426
437
448
438
465
473
461
424
408
418
434
435
419
422
426
423
416
411
415
420
432
432
436
446
424
403
405
406
425
427
422
419
422
432
439
431
425
441
440
436
423
418
430
455
437
439
433
446
456
446
444
437
458
495
493
459
432
421
424
419
420
443
455
452
450
447
437
456
495
523
513
462
431
424
427
430
445
444
428
449
456
458
465
483
468
457
440
440
465
480
462
469
488
487
479
478
462
456
453
470
482
467
458
461
464
477
458
456
467
469
469
459
481
490
480
465
452
451
459
474
476
475
481
458
433
445
460
466
478
484
491
478
466
462
459
472
489
479
483
469
468
478
488
492
497
484
474
469
457
440
452
472
473
460
454
450
473
481
456
445
450
475
491
459
470
475
473
471
470
485
499
497
476
459
468
463
442
434
447
504
453
439
460
482
486
480
475
480
468
466
465
481
484
471
477
477
487
486
489
482
489
481
476
490
497
504
487
490
505
513
519
517
504
506
504
513
519
506
493
484
487
493
496
499
504
519
526
528
536
530
517
527
536
525
530
532
516
529
545
544
559
541
542
545
565
571
564
552
530
527
517
492
526
540
509
504
502
462
476
468
465
462
458
490
489
467
467
473
452
440
448
453
448
451
459
461
451
451
449
415
430
435
437
439
434
426
432
434
442
441
444
445
448
457
460
457
455
453
447
450
445
422
431
455
460
447
416
414
433
423
418
424
436
458
451
448
432
419
436
425
436
470
462
421
427
437
440
442
447
464
453
452
464
463
438
458
462
464
470
454
454
448
471
489
474
465
491
504
491
493
514
587
620
612
619
632
637
657
675
690
684
678
695
696
696
711
697
667
648
642
628
607
551
474
410
370
352
324
314
284
264
250
225
214
224
255
267
300
324
322
328
353
351
354
382
416
408
402
412
436
434
438
454
482
473
466
458
444
448
468
484
485
474
474
465
459
453
466
473
470
475
462
475
482
498
458
468
504
479
459
461
486
509
477
472
501
527
535
525
494
486
478
480
489
493
492
486
484
483
477
479
496
519
534
540
539
543
533
521
516
498
485
496
516
504
500
516
517
517
509
530
538
503
501
507
502
482
470
492
524
521
507
518
521
505
514
517
515
522
544
549
545
541
527
539
551
552
512
499
503
511
526
523
516
529
544
565
537
511
515
528
531
548
536
542
540
530
530
541
548
546
516
502
515
530
532
542
541
543
549
549
560
563
570
543
546
549
529
529
538
546
555
570
569
556
532
524
556
588
605
597
568
566
560
549
547
547
546
545
532
527
537
557
570
563
553
531
534
528
538
524
532
563
555
563
560
554
540
511
505
527
550
546
547
546
552
551
545
550
542
539
547
558
550
553
540
541
523
522
533
512
505
506
521
518
524
532
525
514
505
504
502
499
527
526
499
471
471
470
456
449
458
459
457
452
472
461
447
441
430
448
442
446
455
444
427
427
461
462
458
435
405
417
426
437
429
427
436
413
427
434
430
426
420
409
399
434
442
421
405
408
419
417
422
426
422
443
425
410
430
426
440
465
470
466
461
448
428
431
427
415
411
443
451
453
436
431
431
441
459
446
453
441
443
441
434
419
417
427
443
462
464
447
452
451
442
450
456
459
457
453
461
487
495
492
489
477
460
467
463
462
466
464
458
455
468
458
442
445
451
468
476
457
455
458
475
467
440
491
485
438
436
453
478
494
507
485
472
486
487
467
453
451
457
455
443
441
464
474
465
463
486
489
489
482
471
468
454
452
458
470
469
474
478
500
495
475
484
503
484
462
455
441
454
466
458
465
465
483
470
463
453
449
449
466
484
478
471
467
484
500
497
485
484
475
453
444
459
473
480
495
482
480
478
495
502
470
433
427
430
436
452
468
483
466
466
466
460
460
472
484
493
493
502
489
466
475
467
479
496
515
504
491
482
473
487
487
488
492
497
510
523
528
511
497
498
498
505
522
517
510
503
503
507
520
525
526
530
533
534
532
538
544
517
510
508
524
539
540
540
546
554
554
540
523
520
530
531
528
523
523
494
488
496
498
499
497
513
516
470
472
495
481
443
449
453
442
433
454
459
451
438
435
459
474
451
410
422
434
447
437
428
451
445
428
427
432
437
441
457
468
460
449
449
439
428
428
419
417
432
441
441
440
443
444
456
476
460
445
433
416
412
414
429
443
449
446
441
433
431
435
440
433
440
442
435
448
452
449
441
437
439
431
443
474
469
453
463
476
476
479
472
470
481
502
483
498
529
559
585
613
617
640
648
636
657
687
703
717
716
723
698
667
679
690
683
648
585
557
514
466
421
377
327
320
310
279
248
222
226
218
240
274
270
260
259
282
321
335
355
386
409
441
432
406
398
399
404
433
460
458
456
476
494
502
480
469
490
489
483
483
472
465
464
461
473
498
516
516
468
451
442
450
464
476
474
481
483
479
466
454
461
483
491
494
491
510
508
482
491
489
502
485
478
480
485
469
477
484
486
494
495
493
523
529
515
515
526
532
493
480
499
517
513
491
481
493
486
496
519
539
532
520
527
513
522
545
523
491
480
496
502
496
498
533
544
534
535
529
522
509
502
505
504
500
519
533
515
513
518
530
545
540
538
525
528
543
547
540
539
553
545
548
557
543
531
511
512
525
526
539
558
577
554
534
532
544
544
552
548
549
563
553
543
563
540
520
531
549
577
563
547
533
537
529
552
559
552
555
541
549
562
569
562
536
540
529
543
538
539
543
548
551
537
516
518
546
550
562
567
562
565
561
552
554
558
556
546
537
559
550
552
551
541
545
547
549
555
568
562
551
539
515
525
523
527
532
521
518
524
535
520
515
502
505
506
515
512
507
510
498
469
471
482
488
482
471
473
464
466
478
476
454
431
422
431
453
464
444
440
431
428
423
430
468
479
450
412
384
412
428
415
415
419
425
431
418
411
425
428
413
421
432
415
402
430
431
434
427
425
425
430
451
440
425
420
412
399
395
412
425
447
439
464
454
434
429
417
414
410
409
409
447
478
482
472
462
449
438
449
450
442
439
453
443
447
462
467
472
446
467
461
433
422
439
448
451
448
446
459
453
460
450
450
437
453
478
490
490
468
456
439
449
445
435
454
466
450
459
475
470
479
461
448
453
476
471
454
440
445
447
442
460
455
448
468
481
474
466
473
483
468
459
475
487
494
454
450
454
451
438
436
457
476
475
469
480
480
492
492
482
480
495
488
474
483
492
480
468
461
449
452
452
436
446
457
474
477
471
470
473
488
478
474
475
486
461
443
458
470
474
468
480
497
478
467
461
452
447
472
475
470
462
467
489
478
475
479
489
476
465
464
502
499
482
501
492
484
485
491
491
498
524
510
503
506
501
509
510
500
517
521
512
522
533
520
521
521
501
527
520
513
520
518
502
520
560
542
544
528
523
538
558
574
550
547
536
534
536
537
536
540
517
489
481
464
463
460
446
472
486
485
488
491
468
442
461
452
436
427
447
475
456
441
469
462
446
446
449
434
423
437
449
449
447
447
455
453
442
456
451
439
446
454
439
444
451
437
405
421
440
439
446
448
443
437
441
448
450
442
446
457
462
450
447
455
456
451
444
442
445
450
453
445
451
442
440
450
450
451
428
422
433
455
472
471
457
456
485
503
496
495
495
509
508
496
497
505
517
550
562
583
621
641
643
657
673
710
689
673
667
665
660
663
676
679
660
633
599
565
527
480
431
393
352
315
298
302
275
264
260
265
271
271
270
289
305
295
321
341
347
387
408
408
412
408
397
398
419
431
442
463
454
456
453
446
449
469
486
483
496
503
497
460
449
468
476
478
493
503
484
478
481
479
470
479
485
479
484
496
497
488
490
494
495
488
499
503
509
497
479
483
508
522
506
522
532
508
487
492
501
516
520
486
492
511
512
490
485
484
487
478
499
513
517
503
502
508
517
516
515
513
504
524
533
538
531
522
513
511
531
534
514
480
484
507
540
517
506
506
511
526
510
513
513
510
522
518
505
525
549
545
539
535
521
511
510
529
552
559
554
554
533
540
544
529
553
567
541
528
545
519
510
511
497
502
536
553
554
552
565
582
567
555
538
537
542
557
551
538
535
542
544
546
544
551
554
549
549
557
550
553
582
584
575
550
538
558
565
562
550
541
548
547
549
557
554
559
555
541
561
572
577
579
597
578
554
512
516
528
533
542
542
535
516
523
527
527
521
514
532
544
550
551
542
517
517
520
530
524
533
545
557
503
473
474
479
471
484
497
488
496
504
506
506
492
488
482
464
451
447
430
425
432
444
461
469
455
451
458
460
437
406
406
431
437
448
450
461
445
421
420
423
431
440
430
433
437
449
449
426
409
395
419
465
440
443
435
423
428
435
421
400
403
415
415
425
427
436
427
428
421
441
454
462
460
452
430
459
445
428
406
423
429
426
428
432
426
415
424
446
461
461
439
437
451
446
457
453
461
455
438
438
456
453
450
468
456
461
436
420
421
452
470
466
462
457
461
469
456
463
464
468
461
458
486
471
440
439
429
438
452
467
467
462
466
472
478
472
469
472
480
463
463
467
468
463
460
456
469
485
478
484
486
480
493
490
463
461
478
478
460
467
481
482
486
483
481
465
448
443
435
445
450
463
475
477
474
473
473
466
465
471
486
491
458
436
443
474
471
455
460
459
455
469
479
483
475
474
472
480
470
462
464
456
452
466
491
503
499
493
473
471
479
476
470
468
488
500
510
518
510
504
517
514
486
493
500
509
521
509
498
500
511
514
548
519
500
492
479
494
509
506
505
526
536
521
519
518
520
517
546
581
579
546
561
548
530
522
507
474
451
476
489
488
469
458
460
455
465
456
449
473
481
462
451
460
474
477
486
482
435
419
445
456
430
422
424
442
459
462
444
411
430
444
451
458
475
459
440
438
427
431
417
417
417
437
437
440
449
431
440
462
472
444
426
429
444
439
432
456
482
444
441
434
420
399
416
432
448
444
445
460
462
459
445
444
448
451
431
433
464
485
501
473
450
443
463
485
487
475
471
472
486
519
528
552
557
575
600
635
632
626
654
670
679
689
681
680
695
705
720
689
690
668
656
627
575
523
476
447
370
322
304
292
280
254
229
222
248
272
286
293
291
319
336
375
367
371
353
357
375
397
408
415
426
436
442
440
429
458
447
450
465
454
459
481
468
466
472
461
445
448
462
477
476
471
471
474
482
496
476
461
468
466
490
487
492
488
480
470
480
484
489
470
465
457
465
483
495
496
494
508
521
517
497
497
523
515
510
480
461
472
473
480
488
476
467
484
510
514
510
509
514
505
512
517
537
516
505
507
503
492
469
471
478
479
486
487
521
509
503
498
506
508
502
510
531
521
522
550
567
533
502
499
516
501
485
490
497
515
524
526
536
538
564
553
511
515
533
528
507
515
531
529
525
515
492
510
536
549
550
556
557
543
528
537
570
572
545
527
519
530
531
529
546
544
556
567
545
560
558
540
572
578
572
531
511
538
532
519
549
561
556
569
574
559
542
548
547
534
559
576
538
548
557
557
570
557
536
537
548
554
555
553
538
524
529
546
559
548
547
554
549
545
541
534
534
537
542
543
523
505
511
504
506
508
501
502
490
492
506
510
499
491
503
497
491
480
491
484
479
480
480
478
479
465
472
484
491
480
435
429
461
464
416
413
436
447
437
420
430
446
434
455
464
452
423
389
382
375
389
421
456
451
438
433
437
449
441
442
442
422
411
426
438
413
408
396
411
428
440
432
416
407
422
438
447
435
435
424
427
439
440
434
432
432
429
442
440
444
447
448
451
454
450
461
453
438
431
445
425
428
435
446
456
448
443
453
453
460
504
460
444
459
449
466
488
469
470
467
472
477
472
446
433
439
435
433
465
485
485
480
471
456
446
468
476
474
459
456
455
432
441
455
497
484
475
463
467
472
470
459
464
449
457
481
473
485
477
482
478
476
477
467
470
489
487
460
444
443
464
494
507
504
504
480
460
458
434
437
451
440
448
453
468
489
468
463
479
480
485
462
473
482
491
499
505
478
469
477
483
463
448
459
472
460
467
466
456
450
448
456
484
494
494
485
475
478
463
453
446
456
464
474
481
468
454
449
461
477
474
467
473
497
527
509
507
501
464
439
474
487
497
525
515
509
519
511
510
511
508
510
540
519
483
501
498
517
522
507
512
522
520
513
507
518
513
499
511
540
564
554
541
523
527
543
555
539
522
528
533
532
515
507
507
519
512
479
463
457
477
500
507
482
473
497
479
456
445
444
444
438
438
446
446
451
448
435
451
450
430
429
436
461
459
465
485
470
447
427
422
418
426
434
447
466
449
428
433
445
457
449
455
439
411
420
444
461
468
449
446
443
408
409
444
462
474
480
449
441
458
429
426
457
449
440
439
443
441
444
439
464
475
467
453
419
418
429
472
472
467
474
471
473
491
498
495
499
526
522
524
563
597
625
642
681
677
628
643
674
669
660
682
694
702
704
715
699
672
647
628
598
529
454
398
363
328
320
314
297
280
275
259
235
243
259
276
283
297
296
295
333
386
386
377
390
407
400
406
420
449
479
501
482
450
438
439
454
464
466
467
468
452
439
444
444
453
504
516
527
503
502
508
479
463
450
450
452
463
482
487
474
472
484
494
497
493
512
499
474
472
468
471
507
497
494
505
504
506
507
506
508
496
490
490
499
502
504
502
506
511
536
532
498
496
501
516
522
515
493
470
477
478
498
511
528
566
536
520
496
487
497
521
538
552
516
510
500
496
508
501
504
525
561
538
527
511
499
513
536
552
529
501
518
526
519
535
545
531
529
549
549
521
515
517
509
525
528
528
514
529
543
546
547
559
565
539
536
544
566
595
570
540
537
532
521
518
535
546
544
555
560
550
543
548
557
555
558
555
560
552
554
560
558
557
565
538
539
560
543
538
536
552
551
559
578
580
561
559
562
531
509
536
550
574
586
554
529
532
547
545
532
531
551
553
558
550
543
542
541
551
555
534
535
539
518
524
529
500
505
512
519
533
531
535
548
546
512
506
500
492
491
498
482
496
488
460
455
466
481
476
476
475
475
458
458
473
456
434
407
402
406
440
447
440
429
438
421
422
428
437
439
426
423
443
433
429
418
418
420
438
424
407
410
401
408
418
441
442
448
410
405
418
441
467
440
407
411
427
454
455
449
441
435
430
430
431
431
441
441
435
423
444
469
465
453
434
431
448
445
419
412
415
436
433
433
459
454
451
451
438
445
459
477
475
444
452
456
484
468
476
457
414
381
393
446
463
453
441
449
441
454
437
448
458
482
486
475
466
454
450
461
455
447
437
465
480
478
474
482
475
480
459
446
439
437
447
480
500
480
460
449
470
470
449
426
442
476
480
480
465
445
448
460
485
494
501
492
477
451
462
483
503
476
449
456
462
460
480
497
494
490
438
415
453
487
497
502
478
458
457
478
475
480
469
455
442
424
420
438
466
485
485
490
481
466
470
483
476
466
482
469
456
462
448
448
451
450
457
466
454
447
443
450
468
468
469
477
497
509
499
484
463
449
446
459
462
468
472
471
468
460
462
444
451
472
490
486
481
488
503
508
505
501
496
491
485
469
470
479
480
475
494
508
510
503
499
518
520
523
523
501
504
536
539
524
527
526
514
500
514
524
518
538
546
566
581
562
552
558
557
550
540
524
519
528
530
528
508
497
504
487
485
491
483
484
463
455
476
487
480
470
451
442
443
439
455
460
452
449
455
451
442
433
435
461
436
428
423
427
427
447
457
446
422
407
408
409
405
421
436
431
439
454
484
489
462
467
479
466
449
438
460
458
439
422
412
414
430
440
432
435
441
433
446
455
453
450
446
444
449
456
445
454
468
461
457
415
390
422
465
477
465
475
490
474
459
479
479
484
499
476
460
456
482
502
532
566
587
604
612
627
629
630
650
663
673
708
705
705
687
683
681
691
695
681
646
600
557
508
443
399
367
330
307
262
231
237
227
226
250
266
278
294
290
299
309
314
328
352
386
423
390
391
435
445
431
430
441
449
460
473
462
453
455
460
476
481
480
486
493
480
463
480
486
458
461
467
478
473
466
463
460
485
494
486
505
502
495
489
493
480
464
457
458
463
498
512
489
499
527
523
504
494
496
508
494
472
463
474
502
509
529
524
505
489
488
515
513
520
519
504
490
500
501
529
508
497
491
501
525
511
508
533
543
516
503
495
504
513
520
490
466
484
517
526
532
502
502
522
523
531
526
526
538
583
558
551
521
492
501
524
505
489
502
512
520
528
528
527
528
533
554
541
531
564
574
551
532
539
556
576
564
556
559
563
551
557
546
542
544
538
553
563
559
549
545
543
555
557
559
545
542
545
542
541
529
534
545
545
545
543
560
571
574
584
570
559
558
525
523
547
536
505
503
547
578
572
550
528
533
541
549
548
574
559
549
545
554
565
545
542
549
555
537
528
527
530
534
545
543
532
542
541
535
549
535
523
521
517
512
508
500
514
522
516
513
500
498
502
513
508
489
475
461
451
461
473
472
473
485
468
462
462
472
460
454
479
478
460
430
418
394
410
422
433
435
426
418
415
419
434
459
448
445
433
437
460
469
446
403
390
381
379
401
425
421
413
405
414
437
436
440
435
435
433
441
451
418
409
420
438
421
404
415
424
423
415
423
445
453
430
415
431
449
455
440
442
446
449
435
436
452
455
448
443
465
468
461
461
454
446
428
427
453
451
445
432
427
432
464
472
454
445
448
452
461
468
476
477
464
454
447
454
473
481
465
478
487
488
470
457
454
435
440
467
482
449
440
452
486
486
473
490
464
425
429
439
450
458
459
472
488
469
468
472
470
471
477
473
473
461
469
498
493
463
439
444
470
483
469
474
495
481
456
468
439
441
471
479
467
480
479
484
490
472
463
477
459
453
453
449
464
477
459
449
454
444
458
471
491
489
478
477
472
441
443
443
462
500
504
492
489
479
467
476
489
489
481
480
484
445
434
447
456
452
458
486
474
451
450
432
441
461
496
495
494
490
495
490
512
527
516
502
487
493
489
496
504
518
512
510
502
488
503
517
513
516
527
527
530
536
530
508
510
507
535
538
524
518
518
524
535
552
549
556
559
569
552
535
551
546
566
541
510
503
488
510
513
482
471
479
485
485
481
485
486
464
447
454
490
513
475
437
428
410
428
449
453
463
458
438
436
450
466
461
451
450
461
448
439
414
394
405
410
414
419
436
448
444
439
437
434
410
421
451
458
455
463
451
448
471
460
428
395
397
414
437
445
456
440
432
429
431
416
390
421
455
480
477
472
460
453
444
457
457
462
476
489
481
444
426
414
436
460
478
495
486
486
509
505
524
545
543
587
594
605
628
626
655
676
670
679
695
703
711
701
688
691
694
664
631
605
578
528
488
429
373
328
298
255
250
241
246
242
243
229
267
257
251
282
303
325
337
364
375
373
379
382
387
385
395
412
426
440
468
458
464
504
503
478
477
470
459
459
480
498
486
492
475
461
446
465
484
496
491
489
483
485
489
485
500
498
473
458
460
482
489
489
485
502
521
514
484
489
490
495
497
505
524
539
503
491
503
506
495
488
480
480
516
521
512
497
501
518
523
522
523
510
502
495
497
503
505
530
520
493
494
510
512
502
527
523
510
508
513
521
521
526
542
531
515
519
517
509
521
509
519
524
510
518
523
524
539
546
521
522
539
525
516
500
516
526
529
526
550
536
528
555
534
521
510
533
541
529
528
530
531
554
563
553
544
540
545
545
534
514
513
534
546
547
553
564
542
525
539
550
553
577
589
575
549
541
546
541
548
559
542
545
545
536
525
509
530
548
564
561
563
565
579
583
579
571
561
547
553
564
529
516
518
559
592
577
558
535
524
527
535
544
544
548
542
549
530
526
531
538
533
497
490
507
519
546
552
570
539
522
515
497
491
504
521
512
510
515
492
477
483
475
479
480
459
451
443
441
462
480
483
461
458
435
431
438
430
444
474
438
401
444
443
440
434
438
421
419
433
435
437
410
410
439
444
446
437
430
419
424
438
417
407
406
407
432
440
438
422
414
427
444
459
450
439
430
405
400
414
420
413
428
420
415
430
430
429
425
405
414
451
467
453
437
418
413
423
423
444
437
453
465
459
442
430
435
444
438
430
415
455
475
469
468
471
476
460
447
450
459
457
457
452
473
480
474
467
467
458
443
450
462
468
464
459
464
468
478
486
478
465
445
428
458
498
492
475
443
440
453
460
442
423
438
462
480
475
457
460
466
463
467
457
470
452
460
471
486
469
472
478
468
474
464
458
460
458
463
481
474
473
458
428
426
442
454
478
493
487
475
453
426
446
453
455
446
444
463
475
472
471
457
456
472
477
469
455
463
499
515
486
470
463
460
465
469
493
512
495
483
483
478
462
447
467
477
497
499
507
506
502
515
518
490
482
490
481
495
521
531
533
547
538
523
532
518
503
511
517
502
490
520
527
522
508
535
550
515
516
535
540
545
540
537
522
539
541
530
513
515
536
496
480
486
498
488
468
473
497
491
483
460
441
423
442
448
444
459
474
480
451
419
410
411
419
441
427
431
441
438
421
424
437
435
444
428
414
432
437
435
440
438
438
430
420
419
440
467
452
432
433
450
447
449
424
435
455
452
444
443
458
460
436
423
437
429
424
427
437
484
450
448
462
429
414
438
438
445
454
449
447
451
469
442
438
457
478
483
477
476
474
458
457
488
513
543
568
555
536
567
607
632
640
657
679
683
690
720
701
689
723
737
725
699
688
655
625
606
560
501
449
405
381
355
319
310
295
259
235
240
240
240
252
285
289
303
340
347
320
293
341
363
408
403
417
429
457
460
451
430
429
451
457
452
444
440
472
472
449
451
455
465
487
481
471
484
497
479
450
472
467
483
493
477
452
456
483
496
487
480
481
485
493
486
499
505
509
505
513
518
506
491
505
509
495
473
453
458
475
489
488
502
525
521
482
471
496
515
513
516
509
495
492
510
498
500
498
498
500
496
503
504
493
518
526
515
485
475
510
512
507
507
506
518
549
542
523
532
551
522
524
525
519
521
525
514
537
552
542
504
505
475
475
496
509
505
515
536
540
546
553
555
557
552
557
540
544
523
501
515
517
528
538
534
531
514
523
524
518
535
560
578
566
571
559
556
545
542
544
553
553
547
536
515
520
532
560
558
553
544
547
529
537
569
594
585
570
551
540
561
559
546
531
530
526
531
534
532
551
550
542
545
565
552
541
554
559
531
516
529
528
523
544
576
575
549
552
553
529
519
540
555
553
564
582
542
493
465
450
483
495
504
512
521
503
495
512
477
463
473
494
503
490
477
491
476
451
471
488
493
454
422
437
450
443
433
432
429
438
448
441
440
437
437
456
436
430
443
446
453
442
424
430
419
419
410
410
422
436
424
420
437
427
425
434
435
425
436
445
447
450
434
423
406
431
446
419
419
412
434
432
410
440
461
460
454
459
459
464
451
434
427
434
422
437
458
440
431
435
431
442
468
466
451
449
450
446
441
433
432
436
457
476
453
444
444
447
451
458
464
456
476
482
473
458
439
454
478
471
465
448
467
453
447
459
462
458
460
457
451
453
447
447
456
484
481
470
465
479
497
494
491
464
459
457
463
489
496
478
472
461
457
465
472
471
475
477
478
463
465
462
483
485
453
442
450
481
489
502
494
494
480
466
461
464
475
482
479
451
448
446
447
457
459
483
483
476
473
471
467
467
455
457
460
476
494
494
499
514
508
486
466
468
474
476
485
467
457
445
479
515
510
498
510
528
509
509
520
527
536
515
524
500
495
510
506
488
505
525
510
511
510
525
526
512
498
513
524
511
486
491
512
521
528
519
519
528
522
504
519
531
523
518
544
540
522
509
489
480
483
480
479
482
484
476
443
468
465
463
460
476
458
430
421
447
474
483
462
457
446
420
442
432
439
447
453
462
467
443
445
458
480
452
432
437
456
474
471
433
417
425
430
435
454
464
449
433
424
428
431
426
434
444
443
452
465
457
459
457
436
432
430
428
456
469
473
460
444
438
455
462
444
446
467
467
481
473
479
472
458
470
447
454
465
482
506
518
507
513
535
523
537
598
610
601
612
607
626
657
660
671
680
688
703
708
685
690
686
641
630
628
601
560
487
440
408
373
339
293
288
308
297
267
249
268
273
299
319
315
311
338
339
349
364
401
409
415
425
424
433
436
437
453
439
422
419
435
464
477
482
476
478
481
485
474
479
476
472
479
457
452
459
480
482
494
486
493
487
466
460
480
476
493
489
489
483
487
496
497
486
493
490
473
484
507
500
497
486
480
475
479
488
490
494
514
519
506
485
478
489
519
523
490
485
492
497
510
517
522
501
480
481
501
496
502
499
503
524
535
543
536
512
492
502
518
516
493
480
497
518
525
507
486
486
504
488
516
539
524
504
502
527
531
516
497
521
536
526
515
517
534
543
553
520
511
514
533
540
557
552
535
507
494
511
528
544
550
546
539
516
513
537
560
562
552
576
525
503
494
513
553
572
570
567
552
524
518
534
552
554
558
563
556
544
550
550
543
560
567
515
512
529
533
546
541
534
559
544
547
545
549
547
560
555
554
554
562
534
530
508
502
512
532
547
546
522
508
518
534
542
546
537
521
541
563
567
568
535
519
545
526
516
504
505
508
480
464
469
475
480
477
469
489
487
493
504
519
491
446
407
429
439
465
424
416
437
456
458
418
425
432
432
443
441
452
454
440
441
456
459
446
419
414
430
437
435
415
402
409
411
403
400
416
433
437
429
431
427
438
430
430
405
404
413
409
422
417
412
400
399
394
404
447
431
422
452
462
473
459
442
420
425
444
434
442
430
420
427
450
459
445
451
457
454
453
475
480
433
434
446
445
441
431
432
426
404
407
457
512
491
475
483
472
450
462
446
445
465
466
451
448
457
430
434
445
455
472
481
485
478
464
448
465
485
457
458
456
453
437
430
449
468
468
460
458
448
452
472
475
493
489
509
473
453
453
459
454
450
453
460
480
468
467
451
450
462
477
471
474
471
468
473
483
474
459
473
517
514
506
490
481
467
468
459
455
441
440
463
485
501
493
481
492
484
490
473
490
502
494
481
490
483
508
513
496
494
489
482
491
526
525
490
506
533
527
540
540
514
511
495
486
485
482
499
508
488
484
483
494
511
521
532
528
508
511
529
531
534
525
520
527
537
529
523
542
528
500
494
496
485
489
497
484
471
499
516
482
482
481
451
422
415
427
446
447
442
436
448
459
452
445
433
416
436
432
439
465
450
445
464
470
453
454
460
450
408
385
384
409
447
472
454
451
450
468
465
443
446
432
430
449
442
453
469
443
411
435
425
422
426
436
444
420
427
429
409
415
438
438
452
446
434
443
451
459
446
451
445
434
435
448
464
485
479
485
479
483
483
498
496
495
527
553
569
571
572
602
619
631
658
680
702
691
663
682
721
751
730
703
712
680
649
610
556
518
471
421
389
379
360
328
292
309
289
261
258
271
266
268
276
303
330
335
336
360
379
369
376
370
377
424
441
445
418
403
425
431
423
441
474
497
484
461
469
489
459
442
421
443
476
487
486
481
460
463
477
484
486
476
481
487
500
501
496
489
489
458
461
455
461
481
478
478
490
505
501
508
520
524
504
477
476
489
486
475
500
504
483
498
479
478
500
495
511
506
501
509
510
498
485
484
494
509
508
504
484
487
498
482
483
520
536
536
512
486
482
502
537
557
540
520
495
475
474
483
492
509
517
513
524
506
528
528
516
492
492
511
516
527
520
515
528
540
526
522
544
536
525
538
528
529
515
525
549
550
555
550
548
544
535
550
580
537
510
495
502
516
527
531
525
547
576
573
568
554
543
534
531
536
561
557
562
551
534
535
561
550
546
546
549
558
556
549
560
552
538
547
551
532
525
514
548
588
594
592
554
522
509
517
535
535
545
546
556
538
533
564
583
552
554
537
531
538
526
509
510
512
522
530
525
494
493
485
469
470
477
504
517
513
487
481
487
495
508
501
497
488
492
503
476
478
452
463
470
470
460
463
461
434
437
430
436
448
409
409
476
468
443
428
420
425
423
433
428
431
433
443
444
424
454
448
429
404
393
415
422
397
389
393
405
427
433
438
456
435
431
437
434
430
415
