0465
473
474
471
466
467
480
471
459
457
455
454
458
460
457
464
470
468
478
488
487
487
491
489
497
507
510
500
492
489
480
473
478
484
500
508
508
514
530
536
525
509
514
509
506
509
519
524
527
523
525
535
543
544
546
536
525
531
538
539
551
562
567
553
539
540
552
572
587
584
562
560
566
570
564
565
580
597
587
590
611
628
627
624
629
626
628
632
635
619
621
624
614
615
616
613
610
612
608
611
624
628
638
637
624
617
618
626
625
620
613
607
594
590
584
569
577
581
576
574
583
583
591
586
589
594
577
560
546
553
553
537
519
518
531
527
532
521
523
507
486
471
473
483
472
462
462
463
471
471
457
448
438
423
421
428
428
430
425
427
420
411
398
402
406
410
391
385
391
398
390
388
387
384
391
389
388
380
375
366
351
350
362
372
368
379
384
383
378
377
384
379
368
367
374
387
377
363
369
379
381
380
385
385
378
384
392
404
392
384
380
373
381
379
372
390
401
406
411
405
389
400
414
422
425
429
422
429
427
423
413
407
408
407
408
411
417
421
426
425
427
426
424
427
432
430
415
408
416
411
412
424
433
442
447
448
454
440
425
432
447
450
453
441
438
448
453
451
456
447
427
428
434
439
448
446
438
447
456
456
464
478
481
475
462
459
466
451
449
447
439
433
432
442
446
440
438
439
437
444
448
453
449
440
450
459
470
471
459
445
446
444
433
434
434
444
453
454
457
470
469
471
476
470
467
462
459
472
466
449
443
451
457
451
444
448
453
459
469
485
486
464
443
436
457
473
461
451
451
446
443
452
461
461
452
448
450
456
457
468
473
468
467
473
481
473
475
482
479
460
451
462
467
477
472
462
473
473
459
452
449
445
449
450
467
478
487
479
473
477
476
485
481
456
446
459
468
472
461
455
458
457
461
468
472
469
480
479
469
458
451
453
455
463
456
459
460
458
469
477
480
478
476
458
460
469
467
466
467
466
467
464
471
480
472
478
479
477
474
464
461
473
485
483
490
487
474
474
485
488
482
484
479
478
477
473
468
471
483
497
490
485
487
475
471
465
463
465
466
465
467
469
467
490
496
495
492
491
494
483
470
471
476
479
479
481
488
492
487
480
479
470
467
479
485
488
488
485
479
474
459
458
460
458
462
469
465
461
454
455
466
471
490
496
494
488
485
483
482
477
481
493
497
500
496
486
465
461
465
464
478
493
490
470
464
475
477
471
468
478
483
473
468
476
466
476
492
489
488
483
483
479
479
479
477
479
483
487
489
486
482
485
491
505
506
507
500
492
490
490
492
493
501
491
478
481
484
488
500
510
510
503
491
500
518
509
504
507
510
510
494
480
495
509
517
507
509
507
523
523
508
507
510
518
517
512
519
541
548
532
528
535
525
497
483
491
503
500
494
491
505
519
502
495
500
506
502
495
483
476
477
474
473
466
463
459
459
459
459
476
493
481
471
475
463
460
460
463
470
484
468
454
464
483
490
487
478
470
466
470
474
475
469
470
466
468
474
465
450
443
448
456
466
467
465
456
458
467
468
474
470
468
466
469
473
459
444
433
425
420
428
436
440
449
467
488
503
514
526
536
551
559
573
616
664
719
763
797
836
867
889
912
937
962
987
989
989
989
988
988
988
988
988
988
989
989
968
925
872
837
800
754
686
629
570
523
472
404
342
286
225
147
100
104
113
122
137
158
175
182
197
219
224
225
230
258
280
296
315
333
343
357
369
370
373
378
386
400
399
398
407
416
412
408
411
419
430
442
412
388
390
392
400
420
443
441
430
434
434
430
422
422
423
432
428
422
419
422
438
438
442
443
448
448
450
447
450
458
461
459
464
461
448
448
460
466
472
481
479
471
463
449
458
460
455
465
473
466
463
460
467
467
461
457
460
468
497
513
505
494
501
496
487
482
481
482
497
507
494
480
478
500
504
494
497
494
484
483
497
513
521
520
525
519
509
504
502
499
499
506
517
532
537
526
525
536
549
552
548
557
543
521
525
545
564
566
546
537
539
548
549
556
560
552
557
563
571
582
591
584
582
577
577
593
593
581
582
589
597
608
611
604
600
612
628
628
625
629
637
635
639
642
629
619
622
616
609
612
611
606
609
608
608
608
611
624
617
619
620
622
613
604
602
600
596
593
583
575
570
573
577
588
590
574
575
579
566
540
535
547
543
539
527
514
507
503
491
486
485
488
493
497
500
480
468
460
454
458
460
444
431
433
436
434
424
408
396
395
389
391
402
418
434
429
418
404
397
384
371
358
361
365
366
366
367
372
380
380
374
379
378
375
387
392
386
383
380
374
371
373
372
389
390
395
395
396
384
374
373
377
384
375
378
385
387
388
393
399
393
390
391
395
388
388
389
387
387
388
396
402
413
406
397
406
421
444
453
430
406
401
420
419
408
402
399
403
407
413
423
433
446
432
416
413
413
412
414
427
439
443
431
428
431
431
423
438
441
437
430
419
434
437
440
440
432
431
436
448
450
449
441
448
456
458
464
467
455
450
445
444
446
440
435
432
442
442
442
452
461
452
435
425
424
433
447
454
468
463
454
466
464
454
437
444
454
445
439
437
437
447
450
443
436
443
451
455
473
484
479
478
475
467
455
453
454
453
457
460
456
455
448
448
448
441
456
469
465
458
457
458
449
442
451
462
466
477
472
473
465
453
447
446
450
456
459
463
465
468
463
443
432
445
451
467
469
459
460
461
461
462
472
487
488
470
459
449
452
455
451
466
473
477
465
458
456
453
452
460
474
486
484
472
470
470
461
439
429
426
430
452
460
478
485
477
465
461
461
460
466
464
476
482
477
475
482
471
465
470
487
498
472
452
449
459
461
450
450
462
475
469
467
463
464
466
463
458
463
464
468
480
481
482
479
468
473
484
474
469
464
468
479
479
467
463
462
473
478
471
465
474
480
483
471
455
449
458
471
472
466
460
464
466
468
467
469
471
474
478
469
467
464
463
464
467
462
463
476
474
469
476
476
486
490
488
479
469
462
470
474
476
472
471
471
482
485
481
476
474
468
466
470
477
483
489
485
467
471
482
505
500
467
456
462
471
474
480
473
476
476
476
487
486
475
469
464
464
467
475
480
479
480
483
493
496
499
508
497
483
478
487
499
509
510
502
490
478
481
483
489
482
471
478
476
476
488
485
482
492
499
497
495
498
496
498
499
500
502
512
518
513
515
522
524
511
510
519
525
516
510
516
520
516
510
500
504
518
515
504
503
493
492
494
503
504
501
492
491
487
474
475
483
492
485
474
459
461
480
474
466
469
482
474
459
441
442
455
466
464
457
467
474
474
467
460
450
458
470
471
471
468
470
469
463
472
472
468
465
464
461
458
451
449
453
455
459
458
467
462
471
465
456
447
445
448
450
445
446
444
426
431
431
439
445
437
435
454
469
484
501
519
535
547
578
610
646
689
745
797
843
899
926
941
968
990
989
989
988
988
988
987
987
987
988
988
988
988
988
989
990
938
888
826
758
699
636
554
483
419
356
294
233
178
131
104
100
116
145
172
181
191
212
215
211
215
231
252
272
291
301
306
325
349
356
357
365
367
369
377
388
391
389
392
393
397
400
394
385
377
385
400
395
394
397
414
427
423
424
424
414
402
406
411
421
421
409
403
407
421
433
437
429
418
414
425
439
454
459
446
443
447
449
446
444
437
429
429
439
447
451
467
471
465
450
452
452
453
451
444
454
463
459
454
456
458
459
465
470
473
467
470
475
483
485
493
495
486
484
482
489
480
466
470
477
473
469
476
476
484
495
496
496
503
514
518
519
511
501
500
507
508
509
516
511
502
504
527
536
522
509
507
510
513
525
539
552
545
540
542
550
546
545
555
563
565
574
574
573
584
577
571
576
580
586
587
580
596
607
608
618
624
621
620
617
602
595
606
623
632
627
624
632
641
634
630
619
593
588
599
609
618
615
607
600
599
606
617
617
617
611
607
601
597
599
602
602
610
608
596
589
589
584
574
572
573
556
555
554
554
546
529
519
518
514
519
524
524
511
502
502
500
497
482
469
472
469
463
459
461
453
450
446
431
413
411
411
418
409
399
408
415
404
395
387
374
376
381
382
384
392
387
385
381
383
385
388
394
407
392
373
367
369
368
359
361
362
370
379
382
374
367
376
385
387
377
361
364
369
370
372
373
375
382
382
392
396
379
370
374
385
395
403
399
395
397
393
392
385
384
377
396
416
416
415
415
408
408
427
427
407
397
400
407
410
413
405
401
401
418
434
440
433
421
421
418
416
409
414
416
424
429
441
435
424
426
438
449
439
439
443
447
441
438
437
440
461
461
452
450
453
455
437
426
428
432
438
441
429
425
432
437
438
446
450
451
451
443
439
442
455
456
451
450
453
453
460
466
458
458
455
452
451
446
437
434
447
461
460
452
448
446
454
462
460
462
461
450
450
467
469
462
449
443
446
445
451
451
450
448
449
459
463
470
461
449
453
462
452
461
462
457
443
438
439
442
453
466
470
466
464
465
466
471
468
473
476
474
461
457
465
468
471
471
462
466
464
464
467
465
451
432
441
459
474
468
460
450
464
487
495
482
467
448
442
432
424
440
457
472
481
469
468
475
475
464
463
465
473
475
477
469
467
469
459
455
453
458
462
460
464
469
471
465
462
475
478
477
485
487
491
485
470
462
464
465
462
475
476
470
468
477
468
463
465
480
488
470
471
480
498
471
449
438
435
439
450
466
458
453
458
469
469
467
465
461
457
458
486
497
496
497
489
489
475
460
456
462
457
459
468
472
475
480
481
480
478
469
472
474
468
467
468
475
470
469
471
472
477
477
472
472
472
464
466
458
462
479
493
488
483
484
490
481
472
474
490
499
483
479
478
479
479
485
485
486
485
479
479
475
474
476
465
466
476
473
468
472
472
482
484
482
481
475
467
468
475
478
471
471
471
472
484
496
487
482
486
479
475
488
491
487
487
492
497
498
490
488
504
507
492
490
493
492
474
474
477
487
505
510
501
498
491
488
493
499
504
507
510
505
501
491
481
484
492
497
497
500
501
501
506
503
509
521
525
530
538
531
515
513
521
525
517
523
521
521
521
518
514
509
501
491
500
508
512
506
489
483
489
488
473
476
480
481
481
482
477
465
456
457
463
468
480
486
474
471
472
480
479
460
449
454
452
456
478
478
476
475
472
473
458
449
457
455
444
454
464
478
483
474
458
444
445
455
469
467
464
459
463
467
469
470
466
463
453
446
433
434
435
425
418
416
427
432
437
443
452
456
463
488
509
535
562
591
627
662
692
746
796
838
877
897
924
959
989
989
989
988
988
987
987
987
987
987
987
987
988
988
989
989
965
916
850
771
696
622
559
493
431
358
274
201
146
112
96
91
108
135
164
171
179
179
186
205
220
225
234
270
292
296
313
336
355
366
369
373
376
382
382
400
399
374
364
365
364
357
360
374
387
386
384
396
402
408
410
410
411
413
414
411
400
397
411
419
407
404
413
413
419
441
455
449
429
415
416
427
438
462
456
432
414
410
425
429
424
423
426
430
438
452
455
458
461
455
450
448
450
455
463
459
453
453
453
452
439
34
478
504
518
522
511
499
488
490
495
492
494
498
504
505
515
518
505
490
483
494
496
496
479
472
470
462
455
456
460
463
451
449
453
448
465
464
464
474
479
460
449
451
456
459
466
453
454
469
469
474
458
436
420
434
431
431
429
428
431
439
451
471
472
476
471
459
445
447
450
451
435
424
440
460
464
450
447
477
488
481
463
462
462
460
471
471
455
454
455
443
447
478
487
512
537
541
543
570
599
637
668
684
723
784
843
871
885
912
926
937
966
989
989
989
989
989
989
952
936
919
893
859
832
814
778
703
624
559
517
483
431
382
337
284
238
192
154
138
127
122
139
179
202
227
246
239
244
280
301
296
304
320
339
346
362
384
389
384
377
388
379
386
409
430
422
404
387
401
415
432
424
428
443
455
469
477
477
470
462
454
458
463
465
447
437
450
446
442
438
439
439
442
440
444
455
455
458
461
453
455
463
458
453
455
476
469
459
463
500
504
466
424
429
432
456
471
488
487
482
482
479
457
438
422
420
473
496
505
502
486
491
488
500
481
456
450
455
458
483
499
495
506
504
506
488
490
508
518
506
513
506
497
498
504
513
504
487
478
483
500
519
530
527
521
526
531
516
515
549
559
544
540
545
553
556
523
512
512
524
515
506
533
555
550
539
543
552
570
569
551
538
542
544
541
530
528
557
564
557
565
549
546
555
560
573
576
561
573
568
560
561
565
574
576
572
550
528
519
522
536
545
550
552
554
557
552
544
550
552
540
528
540
543
543
559
559
553
539
539
532
531
529
533
541
529
504
479
462
464
502
542
566
574
553
528
543
536
519
502
477
453
445
454
468
484
477
465
480
501
485
466
424
405
398
389
389
411
445
449
444
446
450
455
435
427
424
434
440
431
411
405
404
416
421
420
418
419
423
421
412
400
400
416
426
428
428
414
420
419
420
414
413
421
426
420
406
387
388
401
412
409
415
437
441
433
426
425
438
434
424
428
437
439
434
426
431
450
457
446
434
413
399
405
445
458
458
454
437
453
458
448
442
438
438
436
430
428
419
432
453
459
449
428
411
426
469
490
497
485
462
450
439
452
479
467
465
473
491
497
489
473
458
443
448
461
461
467
460
457
442
428
426
431
438
440
438
437
436
449
431
413
439
464
479
465
454
450
457
462
464
482
483
473
464
453
449
460
466
464
458
462
461
457
458
457
448
453
461
453
449
445
442
441
444
439
447
479
503
505
483
473
467
481
490
491
487
486
506
502
483
469
482
489
475
471
491
520
523
512
514
508
495
475
480
487
481
449
421
425
422
419
452
489
503
492
470
463
443
437
475
515
512
500
480
462
444
467
467
432
428
454
464
477
469
446
447
462
470
474
481
472
452
451
467
476
464
455
458
456
456
452
439
425
427
449
464
471
474
471
466
468
468
456
445
427
432
447
451
476
484
444
423
433
453
458
471
476
473
467
482
502
510
516
537
560
593
642
686
710
735
758
777
804
848
871
896
913
926
957
953
962
989
989
989
989
948
909
872
816
785
771
725
672
627
575
527
483
440
392
331
281
228
163
138
160
184
201
206
217
246
261
256
250
246
245
257
281
320
334
372
419
427
434
447
438
426
439
445
424
416
423
419
416
430
438
439
438
404
397
429
448
446
442
440
432
444
448
443
451
459
456
442
449
460
466
467
459
439
434
437
435
445
456
457
464
472
498
497
453
426
433
449
448
452
452
434
424
427
454
466
468
468
479
507
512
499
487
471
465
476
479
478
490
496
479
471
462
453
445
480
539
562
548
539
522
510
506
506
497
489
495
503
505
516
521
501
505
493
493
500
499
510
528
538
548
541
536
502
477
487
494
504
532
560
547
526
496
494
497
512
548
570
558
545
536
543
557
558
537
522
524
535
527
525
521
527
539
545
553
562
563
564
565
567
566
540
541
563
579
568
538
529
544
558
570
586
601
597
577
566
563
565
570
576
574
565
559
558
552
544
532
533
543
557
584
589
587
570
574
560
538
551
567
537
517
505
506
534
565
556
542
540
543
536
520
528
523
517
516
523
499
472
462
466
471
459
462
473
496
497
491
491
488
480
439
426
424
439
449
450
435
434
426
424
418
410
419
416
410
421
447
435
411
407
414
419
427
444
453
434
419
410
410
407
405
402
419
442
460
450
435
427
415
413
425
437
420
422
436
431
411
410
416
419
441
438
420
421
438
454
441
429
427
435
448
454
440
423
426
420
416
408
404
408
440
453
447
429
418
443
475
470
457
448
445
448
445
444
450
457
456
466
464
451
453
452
446
433
424
422
430
441
445
444
441
445
465
474
452
429
418
431
466
462
454
457
460
463
444
442
439
431
430
455
453
448
442
446
430
446
473
461
445
467
478
465
467
468
477
484
476
469
448
463
485
498
488
471
474
486
484
476
475
473
477
471
468
468
456
448
450
450
459
481
502
495
478
477
472
481
485
487
499
489
490
506
511
493
468
473
499
503
470
472
497
478
455
460
477
490
472
458
460
457
459
440
419
431
444
461
471
480
448
454
447
441
446
451
462
481
479
462
457
461
452
433
433
448
458
463
439
419
439
476
488
487
475
453
433
435
443
445
452
465
466
458
464
472
474
473
469
472
478
470
451
449
444
438
437
437
435
429
429
435
419
439
471
481
448
430
435
450
471
464
473
504
560
601
624
649
686
734
754
749
752
787
847
887
916
938
951
957
969
984
990
989
975
953
928
901
877
829
773
738
707
674
627
584
514
475
432
365
309
274
219
184
169
170
183
195
206
220
242
264
279
298
295
294
304
316
325
337
365
384
396
393
395
408
409
405
416
416
418
429
434
425
398
377
394
405
425
420
414
419
431
432
432
429
438
441
456
460
459
460
446
440
441
442
448
454
451
446
445
437
445
437
439
461
500
511
500
479
450
446
456
456
450
454
460
451
441
458
471
492
504
496
489
470
458
458
473
472
472
474
464
463
461
465
473
471
469
477
479
484
508
511
502
478
451
451
450
458
483
487
490
497
514
516
524
543
536
497
485
490
497
504
501
510
531
522
504
519
524
511
489
469
458
471
477
485
509
535
562
580
591
575
555
538
535
535
536
547
562
559
541
541
539
546
551
542
533
532
534
543
557
558
542
526
513
525
568
596
600
590
571
554
540
548
555
554
546
555
571
564
569
563
556
561
566
558
541
537
549
567
566
551
531
537
541
532
515
509
524
540
537
533
533
539
548
560
574
564
528
527
513
486
475
498
505
504
495
504
510
500
494
482
482
489
472
472
466
453
443
451
458
475
472
448
430
418
432
465
476
459
451
442
445
441
435
429
424
406
396
402
411
415
442
454
437
428
431
435
423
413
419
414
414
415
414
412
433
435
420
409
416
426
422
430
430
427
428
431
431
428
444
448
420
414
419
426
431
430
429
441
444
435
441
446
445
430
435
441
443
421
418
424
435
432
418
408
412
422
434
454
450
455
454
449
456
444
413
421
440
430
424
450
459
459
464
452
456
456
444
439
436
453
459
462
443
438
447
458
482
484
468
455
443
450
457
446
449
467
475
467
451
443
450
466
467
468
482
470
463
452
468
488
486
477
480
473
457
430
437
454
463
469
471
465
471
475
490
476
465
455
444
442
455
482
484
464
455
469
476
480
477
483
490
492
482
483
489
466
461
460
482
502
503
493
487
492
501
496
483
465
455
452
460
445
438
456
473
446
426
432
429
444
440
427
437
463
470
457
445
444
457
460
452
459
511
517
481
461
459
454
445
436
443
454
459
454
449
434
442
453
451
441
445
458
488
504
492
468
455
449
458
459
471
490
479
452
454
439
437
441
442
435
427
424
422
428
464
485
480
469
457
444
451
477
514
563
594
630
670
720
757
775
797
806
820
849
869
900
931
966
980
984
971
964
951
931
918
912
877
841
803
763
729
684
629
559
510
478
407
327
268
236
191
162
156
159
172
193
206
211
226
250
262
270
282
303
319
332
353
368
387
418
434
425
430
438
444
445
446
442
431
428
431
422
425
421
409
407
413
418
416
438
449
424
405
406
414
431
461
477
470
454
444
450
462
457
473
447
427
424
430
437
465
470
460
439
441
443
446
448
443
450
457
461
458
460
464
477
482
480
468
451
454
472
469
477
469
462
464
455
471
477
473
479
482
482
464
462
478
503
503
515
532
528
494
492
497
499
507
496
489
492
503
518
527
526
518
517
498
478
476
494
500
497
493
505
512
514
517
509
508
509
496
500
523
541
525
509
504
545
560
545
544
549
531
518
532
523
502
501
540
569
532
530
549
551
538
539
557
568
576
561
536
541
540
554
576
581
588
581
580
560
543
554
548
548
548
549
555
568
573
560
540
538
540
546
556
563
551
538
542
530
540
557
570
570
562
567
579
581
549
527
511
522
536
530
506
501
503
527
561
553
532
512
502
511
502
491
502
508
499
487
479
474
462
473
487
493
481
470
491
499
487
475
453
435
423
422
438
433
432
424
418
415
426
436
439
434
413
398
398
403
411
409
419
427
423
419
405
399
384
383
382
405
415
409
430
455
457
448
432
423
416
433
439
438
453
433
422
432
421
396
405
436
447
442
443
433
434
427
437
442
427
420
422
435
454
456
443
439
431
427
427
432
437
440
433
434
429
443
454
451
456
440
428
430
431
449
456
466
452
436
446
451
439
436
442
445
448
445
454
469
459
448
444
445
429
426
435
453
453
454
454
450
451
450
447
448
456
449
462
466
471
466
461
466
460
447
446
450
461
475
476
467
447
448
459
470
465
467
477
482
473
476
476
472
468
459
456
457
467
467
457
445
453
455
482
492
510
513
504
492
503
509
493
473
470
470
478
486
483
488
486
485
489
488
478
467
449
456
466
464
469
455
441
452
457
448
447
468
469
454
448
440
440
438
434
437
422
413
437
463
488
496
473
464
472
466
443
438
438
450
462
460
460
464
446
433
417
429
441
452
451
455
482
475
452
446
461
459
432
434
441
448
449
464
473
468
447
435
413
387
379
383
376
385
407
415
462
496
504
526
557
577
602
625
669
692
723
744
784
810
831
831
852
877
895
938
962
964
974
989
990
978
959
933
920
883
836
808
785
731
655
617
573
509
445
399
350
285
223
188
176
144
131
140
157
181
214
240
250
261
267
283
298
311
343
342
340
349
367
385
385
412
426
426
424
425
425
429
419
410
404
397
406
423
431
433
439
434
433
421
421
440
453
456
448
433
420
421
436
458
476
475
457
461
467
458
453
418
417
428
421
398
398
435
468
495
481
473
456
434
432
478
495
477
483
469
457
439
424
424
453
472
487
512
497
487
481
473
470
470
466
469
458
452
450
446
461
477
483
490
488
473
470
476
479
482
481
488
481
496
498
489
486
475
470
477
495
498
499
495
513
529
535
546
532
527
507
506
515
519
545
549
537
528
525
527
516
505
514
525
534
527
515
506
506
508
522
535
553
561
570
555
535
534
535
532
537
542
552
561
561
559
557
572
577
550
526
559
594
599
585
564
551
537
543
556
574
569
557
546
554
559
550
548
554
555
537
524
541
546
554
563
542
518
509
520
559
569
561
552
546
541
529
531
526
533
524
517
517
514
498
498
500
514
515
503
517
509
479
462
462
481
503
480
463
452
443
459
471
478
469
465
453
434
423
430
438
433
420
428
422
416
400
397
395
397
411
442
455
450
439
433
427
412
410
421
433
431
433
433
435
449
433
425
443
456
440
414
415
427
417
406
399
402
411
421
438
412
406
425
457
460
436
419
421
430
447
443
441
444
437
434
426
412
413
422
426
447
424
421
448
480
489
476
463
454
448
452
446
446
443
435
433
439
447
461
478
470
449
444
438
428
431
449
460
460
461
454
443
445
452
455
453
465
474
462
457
448
441
439
432
438
452
457
460
459
461
465
472
465
447
433
416
416
438
460
479
475
468
444
425
424
462
487
469
455
455
461
466
468
465
462
457
454
459
477
494
482
465
450
456
479
498
486
470
468
469
462
435
425
445
445
439
439
457
482
505
491
480
480
479
484
493
494
492
480
491
489
473
478
503
508
493
486
475
476
491
490
469
478
506
510
493
489
482
481
477
480
476
482
489
461
449
442
453
456
455
466
476
489
477
466
425
411
435
448
435
429
431
440
433
424
438
472
468
470
478
461
465
477
466
446
440
447
442
446
464
471
463
441
443
442
444
439
429
428
448
478
484
485
476
464
463
462
449
440
428
439
437
440
448
446
438
441
452
464
476
490
509
524
559
604
641
678
731
777
812
830
832
832
836
861
892
932
985
989
989
989
989
989
989
989
959
938
911
883
838
805
759
707
649
593
518
450
413
373
323
263
196
144
140
140
147
165
184
197
213
237
264
275
271
283
302
303
308
320
352
386
400
390
385
389
382
378
385
394
401
404
405
406
428
437
419
395
401
416
412
410
409
419
429
429
430
423
414
414
416
439
452
465
446
451
479
465
437
422
416
419
421
433
439
441
433
441
440
444
456
462
459
461
460
455
454
466
475
468
458
450
456
454
442
452
461
488
495
478
464
461
450
466
474
485
486
464
449
453
463
468
479
482
473
457
462
489
510
515
517
489
482
503
513
505
482
475
486
528
541
552
542
502
494
500
506
497
494
502
509
514
500
494
494
498
514
530
544
548
542
514
510
531
545
549
548
538
520
515
506
526
546
550
561
566
570
573
558
550
534
530
549
561
563
560
572
579
571
573
567
562
545
553
566
561
563
567
568
563
574
563
565
559
564
556
558
570
572
546
531
541
544
545
537
529
527
528
527
527
538
546
541
532
542
564
576
562
550
521
514
522
518
506
510
511
507
499
496
501
502
506
506
507
498
510
516
519
506
486
474
460
449
432
430
423
428
437
448
448
447
451
453
462
462
442
431
423
417
408
406
430
433
419
433
437
421
412
403
418
437
440
426
402
389
387
400
420
428
423
413
424
438
423
406
405
404
397
397
407
412
415
418
417
421
431
436
426
427
428
425
423
437
437
431
427
427
435
446
444
437
434
431
434
425
413
434
438
442
469
485
479
451
430
417
415
439
450
454
464
444
419
402
369
359
423
450
442
441
432
457
490
499
488
455
431
419
437
458
475
472
462
457
460
465
465
459
452
459
447
460
477
475
473
462
432
427
427
450
476
479
454
430
432
430
444
453
447
454
458
463
474
461
441
437
441
444
436
442
445
455
457
460
463
463
461
457
446
442
441
450
443
444
453
468
473
472
468
469
463
451
450
464
479
479
477
478
475
465
453
460
456
448
443
410
384
409
442
452
457
446
456
493
493
482
480
479
476
476
470
477
475
463
481
493
474
443
422
413
422
444
464
484
497
484
486
515
527
534
512
512
500
504
509
510
510
515
513
517
520
516
505
496
461
455
454
470
482
492
512
515
509
486
478
477
476
474
467
449
432
427
437
450
468
477
467
472
481
488
479
455
450
448
438
431
440
455
455
446
453
460
469
477
478
469
471
462
470
475
467
461
455
458
453
458
465
435
421
430
463
465
463
451
446
446
455
454
444
455
458
477
472
444
436
431
429
438
453
464
474
477
499
498
492
499
514
553
597
654
694
736
762
792
804
815
837
860
904
964
989
989
989
988
988
989
989
988
988
989
988
955
921
870
823
772
716
645
576
513
454
388
328
267
226
188
167
150
150
153
152
151
156
178
210
232
249
252
253
264
301
320
323
339
345
344
353
367
379
401
404
402
410
412
416
413
397
391
394
388
393
393
400
394
398
401
408
430
435
433
431
446
448
441
434
431
431
428
428
409
409
422
436
439
433
434
438
426
453
465
450
437
434
444
435
432
441
449
436
427
456
476
481
485
491
502
493
473
464
479
480
466
449
424
413
412
424
431
441
457
478
487
489
483
487
476
456
462
467
470
485
499
503
499
481
468
471
471
464
463
470
491
504
505
497
508
513
525
529
526
522
520
508
504
513
535
544
514
508
510
520
519
516
512
520
533
535
533
539
536
529
537
557
554
549
547
529
512
520
529
538
535
535
537
540
547
539
553
569
574
547
540
553
554
550
534
537
545
561
571
584
579
569
573
557
551
550
566
568
576
591
598
581
565
589
586
573
558
551
564
564
565
563
564
551
562
559
565
571
556
539
533
539
540
525
511
520
536
529
509
504
504
498
484
489
498
488
501
516
518
519
508
495
496
495
488
479
483
493
485
475
452
446
447
446
451
448
451
447
443
446
453
446
418
392
360
350
370
388
410
427
440
429
423
417
408
406
415
429
436
423
400
396
411
421
410
405
401
396
400
391
391
401
410
436
447
439
435
447
446
434
426
422
421
436
441
432
421
376
386
418
420
421
428
428
436
462
464
457
459
442
449
451
442
442
449
443
443
439
439
444
451
437
433
428
418
422
440
463
482
497
495
492
465
429
386
382
401
424
438
441
416
393
416
446
472
498
508
507
471
454
449
452
455
452
443
448
444
445
445
441
441
434
436
450
461
463
459
452
459
465
466
457
451
436
444
435
423
450
475
476
472
478
471
459
447
437
452
483
467
447
456
456
454
441
437
439
441
432
458
485
483
467
448
442
461
474
468
462
459
469
477
477
474
468
468
464
458
457
457
451
452
475
466
442
432
441
450
467
478
476
470
464
467
457
446
447
458
461
456
444
462
491
471
456
454
440
438
459
464
482
462
460
467
483
490
501
507
493
486
474
463
464
470
474
484
498
506
510
490
479
479
492
490
471
455
461
468
459
464
458
451
460
482
486
478
485
490
513
512
504
511
512
497
476
471
482
504
500
497
496
488
485
509
507
486
500
519
544
534
523
507
508
500
487
474
470
470
473
478
477
483
483
473
466
469
457
454
454
459
452
446
459
484
491
469
447
453
461
461
463
473
468
450
438
450
463
466
473
480
480
471
442
441
457
451
438
443
463
465
460
466
488
494
483
472
471
477
475
464
466
472
462
442
435
437
438
445
438
451
456
460
455
461
472
481
496
513
528
535
572
617
663
687
710
744
772
801
841
866
883
937
981
989
989
989
988
988
988
988
988
988
989
989
961
922
866
826
779
712
639
604
531
484
444
375
305
230
158
128
123
128
148
147
162
192
214
212
212
222
240
262
287
295
312
321
323
344
370
394
423
427
409
403
396
392
403
404
404
408
418
423
432
433
404
409
429
431
424
423
436
437
412
393
392
381
368
375
408
453
464
447
435
433
424
420
419
412
424
441
455
454
456
449
431
431
432
434
448
452
447
451
455
464
470
484
478
463
451
447
476
477
466
473
460
441
436
443
476
504
497
479
471
462
435
437
461
485
525
530
519
506
485
482
480
479
481
479
494
510
521
524
527
511
500
483
483
494
501
510
521
517
499
469
448
465
483
497
502
499
493
495
489
495
508
510
512
494
480
499
528
557
558
545
534
507
497
504
533
553
546
535
555
585
594
565
555
551
547
544
554
562
579
563
563
562
568
575
571
581
580
575
567
560
558
549
550
565
571
568
573
576
582
579
564
573
568
551
558
572
587
591
584
581
571
572
576
570
551
536
535
522
517
538
538
527
526
524
527
540
546
509
508
526
525
520
528
525
510
499
502
504
510
512
514
507
521
512
486
475
455
450
449
448
445
457
480
480
463
461
449
444
440
422
424
439
451
433
431
417
403
410
422
428
432
437
434
437
440
435
426
416
405
425
434
424
406
392
402
416
411
406
411
420
434
432
425
422
420
412
412
423
436
426
424
431
432
432
436
427
419
421
430
437
426
431
445
462
452
424
404
405
418
425
415
418
423
433
457
477
466
457
457
448
445
435
446
447
416
418
416
423
440
442
437
437
440
439
445
455
462
470
452
452
463
456
443
441
432
444
456
469
462
440
419
401
401
437
464
479
482
477
465
451
446
449
471
497
480
462
463
466
464
459
444
421
420
446
489
515
501
465
446
456
459
454
442
444
437
438
445
452
451
437
436
468
493
479
454
442
429
425
432
442
459
471
473
481
466
445
446
479
487
478
465
459
429
434
462
461
460
451
436
439
430
449
459
448
437
439
441
444
454
456
472
479
479
473
483
487
476
464
475
473
463
462
454
471
478
472
467
465
461
482
485
475
480
471
465
472
483
476
473
465
444
436
429
432
423
413
424
454
474
473
480
484
495
506
497
461
451
477
488
473
449
448
456
472
464
461
475
479
471
451
458
482
511
529
506
489
491
506
499
487
477
486
491
490
484
473
457
451
461
470
471
467
456
462
473
466
472
492
501
494
493
501
506
503
500
487
489
505
526
525
528
548
546
530
517
504
509
514
514
508
498
480
479
480
476
498
505
490
464
439
433
433
436
438
448
458
460
462
468
478
472
454
460
460
449
443
459
450
458
495
488
470
450
435
445
463
485
490
489
485
482
467
464
464
460
464
460
454
443
431
438
458
442
447
466
471
475
488
512
529
534
534
547
559
573
600
611
655
698
728
761
805
851
891
931
971
989
989
989
989
989
989
988
988
988
989
989
989
981
949
918
866
841
772
680
600
527
463
411
362
312
256
188
138
111
129
141
126
147
178
204
224
247
249
254
276
291
299
308
308
320
327
328
337
339
360
388
432
458
444
426
417
419
403
395
411
429
420
414
424
423
413
413
415
401
399
416
450
455
448
432
415
399
389
430
456
443
437
432
434
432
427
438
436
441
452
453
468
471
443
408
401
435
460
478
479
475
466
452
447
457
459
456
452
444
446
455
471
470
448
445
465
466
449
450
477
479
468
447
448
466
482
483
476
473
474
473
467
466
497
506
501
500
489
493
493
504
510
518
514
495
488
505
505
501
514
520
514
496
499
502
481
470
469
503
537
529
514
501
510
517
528
532
526
533
551
550
544
534
498
484
485
492
516
535
548
562
549
529
532
548
547
542
551
552
568
583
578
570
561
556
565
575
589
591
576
565
581
578
585
576
569
577
588
594
598
581
597
592
586
562
542
540
548
559
547
547
542
546
564
584
594
590
563
531
529
538
547
561
563
541
547
543
514
512
514
515
540
577
577
552
525
508
508
508
519
521
519
527
517
493
473
473
482
512
504
492
495
481
457
432
411
449
496
493
462
438
428
414
408
412
412
419
407
409
429
440
437
436
434
421
415
419
423
407
396
403
405
402
407
412
412
400
399
405
411
423
402
396
397
424
437
433
444
434
438
422
387
384
394
400
394
381
400
435
440
444
455
448
436
434
433
440
438
428
429
436
421
412
426
431
428
426
432
437
421
426
434
435
440
452
454
443
460
451
435
425
426
440
455
452
436
434
429
440
430
406
418
431
416
416
420
416
442
455
463
473
462
440
432
451
464
465
465
472
465
455
446
453
457
454
459
463
446
431
444
461
468
462
468
461
453
434
421
425
447
477
492
481
460
453
467
476
468
462
465
468
455
445
451
446
454
450
454
457
446
440
442
450
469
460
449
467
477
445
432
442
454
469
460
455
467
482
480
460
434
435
435
428
419
431
439
438
442
439
457
454
443
437
447
467
464
448
439
452
451
458
460
469
478
482
482
466
436
412
423
452
485
470
450
454
452
450
457
454
447
444
438
448
465
490
501
513
514
484
457
462
469
480
493
494
499
483
450
447
444
451
485
490
493
488
485
487
493
488
475
461
457
458
460
471
472
469
466
471
461
456
454
455
460
483
494
482
457
437
435
434
446
477
487
487
472
466
466
480
463
446
427
423
425
432
435
441
456
452
468
496
470
430
438
453
451
451
452
457
465
473
474
468
473
492
516
528
521
497
495
499
503
512
511
497
493
497
503
507
496
483
484
501
529
540
532
538
544
519
492
475
451
454
460
467
470
460
468
499
482
483
514
498
473
479
485
482
479
510
534
507
480
476
458
456
468
496
496
485
478
468
456
451
456
463
474
470
471
452
436
425
443
469
476
496
500
485
482
496
499
512
543
577
614
646
677
724
785
839
872
912
960
976
989
989
989
989
989
988
988
988
988
989
989
989
989
965
923
875
836
773
701
630
564
502
443
399
332
243
179
144
116
101
118
146
169
189
210
223
230
234
257
276
288
289
294
286
295
330
356
375
408
404
393
381
379
383
400
428
428
429
440
437
436
435
430
417
414
431
438
424
402
391
419
424
428
418
428
439
442
452
455
440
418
419
418
409
423
423
421
425
416
427
435
443
453
447
442
454
462
450
438
437
440
464
462
436
424
426
434
452
464
472
478
485
471
462
461
467
474
471
462
475
486
484
471
474
468
455
454
456
470
477
485
477
470
478
483
487
489
506
522
507
500
495
501
499
521
547
527
481
449
470
495
488
474
465
462
460
474
495
495
488
502
524
539
537
531
516
512
523
519
511
501
507
516
531
536
532
538
538
526
527
533
520
514
545
564
566
546
529
524
536
563
580
584
560
544
540
548
560
560
577
598
609
573
558
572
587
595
596
602
595
581
583
593
593
577
581
585
566
560
575
595
584
569
572
571
572
558
561
568
564
558
563
559
559
552
560
557
549
541
530
531
534
531
524
519
525
530
519
505
509
519
527
548
546
518
501
493
478
445
436
450
472
473
465
447
433
420
422
445
457
466
456
425
440
449
442
446
444
439
434
417
400
393
401
427
421
390
377
388
389
410
427
415
417
422
405
400
404
405
410
403
392
400
400
393
392
399
405
421
434
435
447
434
439
431
421
428
439
445
453
427
364
347
366
388
423
462
449
427
423
423
429
432
451
457
446
442
448
447
438
437
428
394
396
415
426
428
421
405
413
439
471
465
452
448
446
439
427
416
442
458
453
448
446
447
453
452
433
432
437
430
432
432
430
425
431
447
477
491
495
515
512
485
452
436
413
408
447
466
468
469
470
466
467
465
459
433
418
435
454
436
407
401
414
450
480
488
473
459
443
436
442
446
444
438
453
454
460
466
475
480
478
463
452
457
469
485
486
477
457
452
440
445
442
435
448
466
466
464
463
437
431
437
449
454
432
428
442
443
448
462
468
473
474
463
467
473
472
468
475
469
452
443
441
450
461
467
459
450
443
430
443
459
482
485
465
464
470
479
477
440
420
421
420
460
481
485
492
475
454
458
478
467
450
439
462
478
478
479
471
452
450
459
471
492
497
478
480
495
482
453
452
466
464
465
476
466
464
453
455
461
468
466
453
440
441
467
493
492
483
485
482
486
484
459
454
448
444
455
469
481
479
479
482
469
446
444
457
494
506
499
467
448
446
445
454
449
454
460
463
462
484
489
486
473
460
460
453
479
495
498
481
477
489
493
492
484
475
469
468
468
475
487
485
479
481
486
482
455
428
418
430
461
498
513
524
507
484
476
465
477
478
476
473
475
465
456
442
456
454
453
462
466
454
441
440
442
460
482
478
484
495
471
480
489
478
470
469
462
470
492
495
497
504
529
552
535
511
491
469
471
473
489
506
525
530
532
522
546
532
530
522
503
491
483
485
487
497
503
494
484
481
481
485
482
479
481
481
473
468
475
486
484
482
487
489
476
469
470
467
469
477
474
476
476
459
435
426
440
474
490
485
485
476
446
444
466
480
488
506
535
561
569
561
566
588
647
699
731
755
789
843
915
949
948
969
990
989
989
989
989
989
989
989
989
989
989
990
922
875
845
821
769
701
629
572
524
467
398
336
270
223
184
150
143
148
164
171
175
194
199
176
193
250
258
261
272
298
318
332
336
332
354
375
387
409
418
417
413
400
407
428
421
408
413
401
382
388
415
429
430
435
447
430
404
389
415
444
453
455
463
467
471
458
446
448
436
427
440
439
433
430
419
429
453
463
495
504
480
465
461
452
454
466
463
465
473
478
480
460
443
448
467
467
464
468
484
488
477
464
459
450
445
448
460
473
470
447
448
461
465
454
452
445
449
453
466
502
505
499
501
495
494
490
474
477
492
499
496
498
486
461
452
479
524
526
512
518
519
508
510
514
516
514
499
489
491
496
511
524
531
523
525
534
511
498
510
501
504
528
554
543
531
542
557
568
558
562
568
563
552
545
554
561
552
535
535
541
552
556
561
569
566
557
560
588
625
612
571
568
584
594
592
603
600
580
558
544
554
554
566
574
579
570
565
563
555
569
587
579
571
582
610
621
597
550
527
540
548
575
591
576
567
562
546
545
550
559
558
553
557
545
528
515
501
483
487
490
512
519
518
518
537
519
491
481
503
489
485
474
464
463
456
449
467
479
472
489
474
454
445
427
419
419
406
400
400
414
425
429
425
425
425
403
410
424
441
449
424
401
398
387
367
357
345
383
409
419
411
401
423
422
430
412
406
397
400
413
422
427
435
439
432
436
433
425
424
413
420
428
434
421
407
402
416
432
423
409
415
430
443
442
436
436
425
415
405
414
421
453
441
431
418
399
416
422
437
448
452
462
468
476
467
468
462
441
434
433
432
433
438
436
422
413
419
425
454
464
441
432
436
443
451
444
429
436
440
426
433
469
485
476
451
421
423
436
448
450
439
437
440
449
459
472
466
464
467
464
459
463
445
443
436
441
456
462
452
437
433
440
462
476
492
485
467
469
482
488
460
449
441
435
447
452
468
480
474
458
454
443
420
445
460
474
456
448
436
425
436
456
451
446
443
450
459
468
473
465
448
436
436
440
458
464
450
424
406
409
421
433
484
515
510
496
469
446
446
441
438
468
481
487
495
467
434
447
470
454
457
464
480
477
479
497
493
482
467
458
454
451
479
481
498
504
497
486
485
479
476
470
471
470
463
463
471
469
461
455
449
448
458
465
481
493
498
502
506
504
475
432
405
409
449
462
456
460
462
477
485
489
488
464
453
435
420
452
491
487
481
467
452
451
460
451
449
448
464
471
471
477
476
474
464
493
496
476
467
474
472
461
455
462
473
486
494
481
471
477
475
480
473
480
499
490
470
464
460
457
455
445
454
471
476
478
478
478
480
472
464
457
466
470
476
491
492
475
473
470
457
458
457
459
462
463
478
477
481
470
452
443
456
465
468
448
412
387
401
446
483
492
507
523
527
509
495
479
461
463
467
473
483
501
519
539
546
527
500
515
524
516
505
497
501
516
524
518
501
504
522
526
502
489
499
511
502
490
487
487
485
480
473
476
475
475
480
461
461
452
477
490
486
484
478
474
465
454
445
454
465
495
505
515
516
499
473
468
478
477
458
457
457
455
457
458
452
443
473
512
515
502
495
511
534
548
565
607
648
681
696
728
775
826
854
870
885
917
962
989
989
989
989
988
988
989
989
989
989
989
951
878
822
803
766
707
632
586
560
530
471
401
320
266
232
179
137
127
140
168
179
187
204
227
245
257
255
256
265
285
300
316
348
378
389
385
376
379
386
390
394
410
421
426
422
428
426
422
417
418
426
427
418
408
403
409
416
422
432
435
435
438
434
421
417
425
426
432
449
463
472
473
481
449
405
429
462
440
437
438
435
434
425
422
438
469
479
458
467
474
462
445
451
460
459
471
466
451
466
474
468
466
465
463
463
472
476
482
484
487
490
503
498
480
462
472
485
481
483
500
504
502
480
469
465
467
479
482
478
475
483
493
499
506
505
509
511
505
489
475
479
499
518
529
529
513
497
500
497
507
520
506
491
485
494
518
541
555
561
545
532
517
507
529
552
560
558
574
570
531
513
536
535
524
519
507
494
518
573
614
619
590
568
540
553
568
572
580
575
580
569
568
569
570
579
582
585
595
592
581
566
566
563
569
576
574
597
631
629
598
578
571
572
569
579
588
594
568
561
557
549
550
567
571
567
576
568
553
543
544
543
543
536
532
535
535
536
543
529
537
525
511
519
510
488
472
474
500
501
473
473
477
498
527
501
452
439
439
446
451
444
456
466
455
440
429
429
427
402
389
415
423
421
422
410
412
413
404
406
412
403
393
386
410
431
450
448
452
425
393
374
388
396
400
398
402
407
412
407
399
407
411
409
407
428
415
402
405
411
405
400
412
427
429
435
431
419
405
408
428
428
431
457
444
438
444
431
428
424
426
439
449
441
438
450
446
449
444
445
435
423
425
419
420
418
412
410
419
446
463
455
454
460
459
452
468
466
459
454
439
438
431
431
433
447
464
458
448
436
440
438
443
453
444
423
408
418
435
441
444
455
460
476
483
485
468
451
460
454
429
432
431
430
426
437
455
457
454
447
462
481
467
455
477
473
468
479
490
479
454
448
466
474
475
463
458
472
470
446
448
441
437
442
454
468
476
480
492
484
464
449
451
454
460
465
468
464
451
430
425
435
456
504
494
475
469
454
419
426
464
479
479
474
474
474
473
469
463
462
439
426
436
457
473
482
485
483
480
478
468
458
458
474
479
469
467
469
466
464
470
469
467
482
477
484
484
462
439
452
473
473
485
500
486
438
433
442
436
431
448
433
426
453
472
473
477
474
463
458
455
467
478
470
461
473
491
499
491
478
489
494
482
470
464
447
440
444
449
456
467
467
466
469
476
481
468
460
456
462
467
454
448
447
451
443
462
491
517
515
498
488
490
482
474
460
452
461
473
472
460
464
473
480
485
484
460
459
472
479
483
496
490
484
489
475
466
472
478
476
479
480
480
476
483
477
468
463
462
465
459
463
458
488
495
481
460
450
458
478
500
484
480
497
514
518
508
478
474
477
482
480
472
462
463
460
463
471
466
462
462
462
448
449
459
446
418
412
430
444
474
489
474
460
465
473
478
479
478
470
471
466
469
470
466
471
473
471
466
477
484
499
514
524
523
527
520
522
516
503
490
486
486
507
515
514
528
519
508
536
554
552
542
532
520
512
500
487
479
461
458
468
473
476
476
478
474
472
479
476
467
461
467
475
477
477
479
477
465
460
480
499
516
507
505
508
501
488
464
459
466
464
457
461
475
482
477
482
495
507
508
515
523
537
553
560
587
636
671
710
757
796
846
893
914
924
946
968
989
989
989
989
989
989
989
989
987
959
929
908
871
814
770
707
645
590
557
528
467
411
393
371
316
244
187
162
150
154
169
182
200
215
250
284
287
279
286
286
278
282
297
329
357
384
399
400
401
407
407
413
408
404
421
437
443
434
419
411
420
451
448
418
407
418
427
437
447
455
446
434
451
458
444
444
449
449
452
443
449
469
475
465
453
452
456
463
450
448
452
469
473
463
459
441
431
438
453
453
486
504
486
460
446
460
481
476
481
497
503
487
469
478
473
473
477
471
463
459
471
502
507
499
486
482
487
486
491
504
505
488
474
470
473
475
474
478
488
484
470
489
518
543
524
498
472
458
468
471
476
477
488
510
519
527
524
518
521
526
508
492
508
523
525
544
556
554
550
522
504
497
511
507
503
491
497
517
541
563
573
576
576
566
564
582
564
539
546
568
565
560
568
554
555
570
574
568
568
568
583
591
600
575
560
593
599
580
574
590
598
598
581
578
587
592
595
581
586
596
605
599
603
623
616
595
578
565
563
582
587
589
597
583
562
559
583
574
568
555
533
515
545
558
547
529
531
525
502
501
504
504
506
506
513
516
514
492
508
508
509
509
497
496
503
498
486
479
469
459
448
440
434
437
440
448
439
414
415
428
409
403
432
454
470
467
450
433
414
407
392
397
411
409
415
422
415
411
404
399
401
410
424
430
435
434
411
413
411
394
384
381
382
389
407
440
439
429
432
433
414
393
397
402
405
402
405
414
421
424
422
424
424
429
425
429
433
423
421
418
415
421
411
400
410
431
453
469
476
467
452
446
443
424
431
433
416
415
433
423
424
441
442
440
439
445
454
452
441
441
445
440
439
442
446
425
430
447
461
469
484
476
465
450
433
437
459
461
468
471
457
450
447
433
421
421
403
410
454
483
498
488
487
474
449
439
432
448
474
483
475
476
452
445
458
461
448
431
437
448
454
440
433
441
452
457
455
457
440
434
437
448
444
438
447
463
451
440
458
470
461
449
450
434
448
480
477
465
450
464
472
461
452
446
456
458
470
477
475
447
442
446
445
462
469
466
455
453
460
470
469
460
468
464
451
448
461
459
458
454
464
499
494
480
458
439
442
461
458
463
459
479
507
503
477
459
457
449
450
455
452
451
454
471
480
491
499
464
415
391
392
426
455
487
510
497
477
475
479
479
467
473
479
482
474
476
478
474
481
493
493
476
462
461
464
474
472
471
491
483
470
467
476
473
468
463
476
478
453
456
454
464
475
474
464
464
470
485
483
455
436
442
471
482
483
484
488
500
497
485
473
462
458
460
467
483
480
467
475
473
469
478
490
479
495
510
495
488
479
469
458
453
459
466
471
480
479
470
464
462
439
444
472
475
469
472
483
490
484
480
474
462
461
466
469
462
462
474
500
511
509
496
503
510
509
509
508
505
479
464
467
497
531
538
533
521
499
473
473
489
491
485
488
508
518
508
486
485
498
513
524
524
508
501
494
499
507
511
520
526
527
514
507
522
524
528
535
529
508
501
493
488
490
491
496
506
518
510
491
479
486
477
477
488
482
481
492
501
486
461
466
475
467
453
436
441
452
451
452
438
444
445
445
451
455
470
498
501
472
458
454
452
455
471
455
435
433
449
468
467
457
461
464
487
490
497
496
479
469
455
451
437
431
433
432
430
434
447
467
488
493
484
497
515
543
575
600
625
646
698
733
755
787
805
846
870
916
961
987
990
989
989
989
989
989
989
989
989
966
911
864
841
828
802
749
693
635
579
523
476
416
343
284
243
207
172
146
124
138
174
197
210
218
229
237
249
263
267
268
277
299
319
325
342
374
402
402
400
397
393
388
391
390
399
405
403
414
411
411
403
399
404
408
416
428
431
427
419
416
429
422
405
417
429
433
429
428
445
438
432
432
425
424
428
446
448
452
467
457
448
459
459
447
447
451
450
433
421
431
429
452
452
460
480
495
502
503
481
461
455
468
472
484
524
534
515
509
506
512
470
438
433
452
480
504
518
516
491
486
494
479
472
469
484
491
488
499
512
526
517
503
491
482
481
494
499
504
512
507
509
502
527
541
530
508
494
482
472
495
499
498
515
518
502
502
499
507
521
524
530
531
524
519
525
523
527
531
534
531
518
526
535
536
533
542
568
574
571
559
559
562
564
567
570
576
579
577
573
565
554
545
541
546
579
606
603
598
601
600
585
570
574
597
615
604
568
560
569
595
598
580
572
581
575
560
548
561
570
574
572
577
581
574
569
579
576
549
540
553
555
562
549
535
527
545
534
530
548
526
531
552
558
556
538
519
510
479
475
494
486
472
475
489
486
468
443
429
427
425
441
460
466
467
455
463
447
429
416
417
430
431
426
432
421
403
408
405
403
405
420
420
418
415
411
394
391
392
376
372
377
384
393
411
422
424
423
415
400
377
391
424
426
431
436
412
397
390
388
391
391
407
423
419
420
423
435
449
443
426
424
433
431
442
445
422
421
421
415
416
421
430
430
439
439
440
432
425
439
467
472
459
454
457
418
389
413
434
435
435
445
435
432
429
415
416
431
444
464
457
458
472
474
464
447
434
432
433
462
460
449
432
436
443
444
451
440
442
451
441
447
450
455
455
439
429
441
428
440
469
481
484
471
470
466
460
461
465
473
466
466
483
495
480
461
451
415
413
444
460
436
413
429
435
444
454
453
451
454
446
436
441
448
468
481
483
464
456
460
467
473
463
459
463
457
464
460
452
442
447
460
475
479
447
441
460
464
457
461
461
463
467
460
451
452
451
467
469
461
447
455
448
440
449
453
451
454
458
468
472
462
460
437
422
436
454
481
471
469
465
480
477
460
462
461
450
434
438
444
474
489
496
494
479
466
468
462
464
472
469
464
473
472
473
456
434
433
454
453
463
464
469
470
477
488
517
517
490
479
470
483
499
492
475
468
453
460
473
478
484
476
485
486
472
462
454
457
468
469
467
465
464
460
457
447
441
450
461
495
514
499
487
501
515
509
498
502
501
496
485
489
491
478
489
480
458
456
478
481
480
488
487
488
495
500
500
499
506
501
496
490
490
493
513
510
500
512
530
530
517
505
514
510
506
497
489
489
498
519
525
515
515
518
503
480
472
479
488
502
518
511
505
502
497
473
450
460
478
475
461
462
450
434
430
451
475
481
467
454
466
470
483
492
493
497
496
496
499
506
483
458
442
434
443
469
465
463
478
466
476
483
473
451
453
458
461
466
452
429
420
436
449
450
447
456
455
444
451
460
478
479
475
472
474
492
513
536
567
597
614
646
688
736
767
786
815
843
882
935
971
987
989
989
989
989
989
989
989
989
990
970
938
892
853
833
780
721
662
594
535
487
445
387
323
272
243
205
168
148
139
144
160
179
177
206
229
235
255
275
276
274
276
297
317
340
355
369
391
408
407
406
414
416
406
402
395
394
404
411
414
407
411
413
416
416
411
409
393
404
440
472
475
460
440
429
416
412
415
423
431
432
440
448
456
477
491
478
443
413
407
419
426
452
477
474
464
458
455
472
481
470
469
470
455
457
472
482
487
469
459
466
480
464
463
475
463
454
458
475
487
492
494
488
480
465
468
475
494
498
490
482
477
478
497
513
515
533
511
478
479
485
480
474
469
481
491
501
512
498
484
521
541
535
527
506
498
507
498
493
503
496
497
525
537
539
537
536
530
535
532
529
532
549
558
549
536
529
524
511
511
527
534
534
534
543
531
539
557
565
562
576
574
541
513
518
540
575
610
612
588
570
567
576
595
595
616
626
620
617
598
600
592
595
601
595
596
587
589
604
603
601
604
584
578
586
583
578
575
554
546
558
552
560
565
569
566
550
547
553
570
561
550
550
564
563
545
537
532
535
530
519
510
532
512
523
560
551
535
499
488
479
465
478
496
486
472
468
469
465
437
440
439
444
450
450
440
432
409
394
400
403
412
407
411
419
414
421
425
423
417
409
406
417
406
389
379
393
416
410
408
401
393
389
396
393
417
437
436
415
385
388
383
362
356
373
402
432
434
403
401
415
413
399
413
419
422
442
450
429
412
412
416
427
426
415
414
426
422
418
422
414
425
425
440
470
473
464
451
453
442
442
448
449
442
423
431
444
448
449
439
423
426
436
454
457
446
428
444
460
443
424
425
439
453
457
450
454
440
424
424
423
437
440
442
455
467
457
431
435
441
456
450
445
444
445
436
441
462
473
472
459
456
437
417
407
444
457
452
437
426
444
443
446
441
439
448
451
427
439
459
454
449
442
443
447
449
477
481
474
456
452
458
457
464
459
451
444
449
461
452
435
440
443
439
454
462
467
476
462
452
439
431
450
477
470
449
445
467
483
478
462
458
457
458
468
461
459
448
450
442
448
460
461
468
472
468
471
467
463
466
457
453
448
465
476
472
469
473
491
509
500
470
469
455
441
446
451
443
440
457
472
482
476
465
469
467
470
456
451
469
471
471
474
461
450
448
448
462
463
457
456
452
448
463
469
469
459
458
490
500
497
492
467
469
470
469
461
463
460
469
475
467
471
469
457
454
448
443
471
495
499
491
474
452
471
486
480
478
472
456
461
475
472
487
494
480
484
491
491
474
468
468
477
496
501
499
493
497
498
506
501
503
508
494
492
500
503
504
507
509
521
528
531
508
494
502
487
474
504
516
523
518
516
523
555
548
516
514
530
532
513
467
455
463
465
476
492
515
520
510
494
478
472
474
467
479
491
484
483
467
471
472
470
461
456
438
452
461
455
462
458
449
447
452
469
469
461
455
455
455
449
436
449
476
488
487
477
455
470
471
472
478
472
470
471
477
485
459
429
421
424
425
420
416
441
474
478
467
456
449
462
470
475
486
502
528
555
589
605
639
695
747
797
822
846
850
859
887
902
943
977
989
989
989
989
989
989
989
989
974
944
900
879
847
813
767
692
623
563
522
475
419
356
293
242
193
146
124
136
147
167
182
200
229
233
227
232
247
259
282
300
315
326
337
363
376
382
386
390
401
416
420
419
408
396
397
399
402
409
433
431
392
360
369
394
422
433
425
429
448
448
435
425
427
434
430
431
435
439
447
431
427
423
443
451
442
454
467
473
466
458
442
444
443
434
436
431
427
451
484
486
469
460
453
462
468
474
470
474
475
479
483
478
469
464
475
487
487
481
470
458
459
472
488
489
475
473
472
466
471
490
489
481
483
489
501
503
485
483
499
511
500
495
512
515
535
517
480
460
459
488
494
492
492
491
491
491
497
521
527
521
528
540
544
538
534
535
518
511
509
529
525
532
542
556
557
536
532
540
556
557
553
565
569
556
542
545
545
561
580
584
574
564
579
583
576
564
570
572
605
615
626
625
619
601
582
586
581
572
577
596
624
620
602
585
577
569
567
570
584
581
583
592
596
613
601
586
578
565
575
592
585
592
598
600
584
570
562
560
562
542
533
531
529
527
537
541
543
537
525
532
532
531
533
527
518
495
486
492
495
483
474
469
457
455
453
467
481
494
488
472
450
467
463
442
432
429
415
405
423
425
427
412
406
413
422
399
387
378
379
387
371
383
416
457
464
448
441
444
431
406
397
385
392
393
402
408
391
379
392
395
397
408
412
418
418
427
441
425
422
417
410
414
420
428
434
445
452
434
393
380
373
392
426
424
446
447
442
441
448
445
452
446
420
400
408
411
423
439
443
445
435
433
434
434
433
439
442
448
454
438
415
409
409
434
449
463
479
464
443
438
417
407
426
439
427
432
446
447
449
445
445
439
430
432
444
457
458
464
455
455
454
451
448
458
453
447
445
443
436
440
449
462
457
461
471
480
474
460
441
438
451
453
450
457
457
450
469
470
464
460
455
434
417
420
430
462
474
469
452
462
467
463
455
441
427
434
441
447
459
461
460
456
463
437
411
420
476
504
483
463
452
459
477
487
478
448
422
415
425
428
439
454
476
478
465
459
465
468
452
460
466
463
459
453
452
457
458
458
464
477
481
467
464
471
469
472
473
448
437
438
439
463
472
466
455
434
420
434
453
471
468
466
477
480
478
470
471
481
494
498
507
496
462
459
466
463
467
459
450
454
472
483
485
479
453
448
458
453
435
462
474
481
486
491
497
503
513
512
506
501
501
494
483
487
510
516
511
480
474
481
476
460
453
469
486
469
463
477
488
486
478
471
469
477
478
484
487
499
513
513
511
523
518
500
489
489
478
469
478
497
530
550
548
541
526
521
512
526
516
508
522
540
535
526
520
497
491
494
487
477
473
462
446
453
476
463
438
446
451
451
454
460
472
459
430
435
443
463
467
471
476
478
479
476
468
464
448
449
467
482
480
471
480
460
442
443
444
444
448
443
469
491
494
458
442
447
455
452
431
427
431
435
439
448
452
462
460
454
463
477
498
532
547
578
611
657
703
722
736
771
814
850
890
917
929
952
987
990
989
989
989
989
989
989
989
989
975
941
896
860
837
806
761
685
616
563
516
443
368
304
244
169
143
137
126
136
158
189
199
200
216
223
224
233
252
288
315
310
314
327
339
357
373
392
401
394
361
367
393
409
414
415
410
399
399
411
412
421
418
406
418
425
415
404
427
429
420
419
415
430
431
432
442
447
458
461
448
431
420
417
425
444
472
481
470
473
480
443
414
419
447
464
457
462
447
450
460
435
420
427
438
457
480
498
483
467
456
464
466
481
490
486
481
473
455
444
439
465
496
500
488
465
460
484
504
499
487
483
484
499
498
508
495
478
482
494
498
494
500
502
525
536
531
502
499
519
511
502
512
519
512
509
522
527
517
511
519
512
513
521
518
516
512
522
529
534
532
539
543
528
535
550
559
553
556
562
563
555
557
556
585
584
559
551
550
560
567
572
569
569
566
557
571
575
565
576
603
595
586
591
598
610
608
608
605
602
604
586
575
580
574
565
574
597
596
585
572
583
575
564
579
587
593
594
581
576
588
597
571
559
555
561
559
561
569
580
567
548
546
544
554
555
560
557
549
537
526
521
524
517
513
509
513
506
488
486
481
485
494
484
470
455
449
447
465
465
458
463
439
423
417
412
434
443
436
428
432
450
453
440
428
417
422
417
401
398
395
411
410
402
400
397
406
403
415
400
367
356
381
387
390
394
400
423
416
406
398
382
390
404
380
371
387
406
440
449
427
423
421
426
440
436
430
423
417
420
426
445
448
444
442
435
424
421
417
428
417
437
454
432
414
417
421
435
436
428
415
404
427
448
446
451
442
447
445
438
413
420
438
440
442
443
440
436
436
436
440
420
413
431
466
491
479
460
450
449
464
477
467
455
471
453
451
443
419
429
439
457
452
452
452
464
466
467
448
431
425
414
424
445
462
445
456
463
445
434
426
431
443
450
466
471
462
444
435
443
456
457
454
461
484
469
446
448
457
455
462
463
441
441
429
418
451
480
482
488
493
483
497
485
482
464
452
462
456
439
432
432
449
460
462
463
457
434
449
463
458
450
463
452
481
512
489
473
469
472
471
465
445
462
476
474
463
453
456
477
452
441
463
474
467
462
453
461
475
452
457
485
464
446
456
465
460
453
464
477
454
438
450
460
484
471
437
434
449
469
485
476
464
472
480
485
483
470
456
449
452
464
474
473
475
472
478
479
486
498
501
491
489
491
471
453
461
458
459
476
489
490
491
484
492
510
525
537
540
530
530
519
495
486
472
472
467
467
477
482
496
497
495
469
457
468
474
494
495
487
501
500
509
513
512
508
499
500
502
494
498
517
526
524
528
530
524
498
487
493
488
494
507
518
523
519
528
532
517
503
486
476
465
464
465
471
479
470
449
455
458
463
457
454
437
440
447
454
465
466
473
482
485
472
462
470
494
491
474
451
450
469
467
469
473
478
466
444
426
426
430
450
458
456
463
475
478
482
469
466
453
470
497
495
451
430
458
480
463
434
414
416
434
448
453
464
476
448
431
441
464
524
597
643
672
690
709
759
799
830
858
884
916
947
986
989
989
989
989
989
988
988
989
989
989
981
946
916
870
837
778
715
656
592
578
571
521
440
358
256
189
145
124
148
153
160
170
166
172
179
201
223
249
273
301
310
315
319
323
335
349
370
370
378
378
389
399
405
415
408
407
409
410
404
407
415
421
425
428
428
421
408
404
417
443
439
436
447
438
427
418
415
417
432
435
411
422
423
424
441
460
455
443
459
473
467
475
480
484
479
456
449
457
473
476
460
463
471
480
463
443
449
465
480
487
488
482
461
447
438
438
460
476
470
478
484
492
480
466
465
492
495
476
473
471
470
467
452
455
485
519
518
499
487
498
492
494
513
518
540
537
526
501
515
513
515
512
517
524
519
517
516
521
509
505
509
525
530
550
543
513
504
519
531
526
511
498
528
573
576
563
569
583
580
577
559
547
553
549
537
542
559
548
560
564
575
587
588
570
584
582
564
551
551
543
554
588
614
633
635
633
641
631
613
598
576
574
583
591
588
583
573
574
581
595
612
616
602
576
566
576
586
579
581
567
546
543
563
585
597
598
580
559
558
548
536
545
549
546
542
545
557
544
546
543
540
527
511
506
525
528
512
486
464
477
512
521
509
486
474
487
489
483
483
478
477
466
444
432
434
444
451
447
440
429
415
401
418
422
434
452
445
416
394
372
359
369
383
392
406
404
416
421
417
394
374
383
386
401
402
394
387
384
385
399
403
399
407
438
432
433
416
406
408
424
440
441
446
448
425
413
415
420
430
424
423
416
413
423
433
438
432
418
401
400
407
423
435
446
443
425
413
421
431
434
436
427
423
429
448
444
445
447
436
437
440
436
424
437
423
434
433
419
432
425
423
429
454
467
463
457
466
498
504
494
463
432
433
433
433
441
448
446
444
467
456
434
429
421
419
422
425
419
408
435
451
474
479
494
487
473
461
456
474
470
468
469
467
464
444
442
451
422
420
442
447
453
473
481
474
480
472
471
479
473
462
438
433
438
441
446
451
464
462
450
423
418
422
434
446
456
474
487
480
470
463
451
437
435
450
454
467
487
494
483
498
514
497
454
432
437
455
455
444
448
449
449
448
453
457
456
454
470
467
466
461
464
466
457
438
440
461
461
470
483
492
487
475
469
479
466
447
456
429
435
459
465
456
456
458
463
461
451
459
452
461
470
479
483
477
467
459
476
465
456
454
461
479
486
471
471
482
484
483
471
487
482
459
460
473
480
487
471
461
455
455
480
491
491
485
481
477
467
462
460
462
459
459
463
485
498
489
488
503
495
522
528
505
476
465
467
456
475
503
502
498
501
499
502
499
497
487
479
491
503
528
542
516
486
502
543
556
534
515
506
515
501
498
483
480
489
496
505
507
512
531
533
526
524
511
503
494
485
495
530
527
504
487
467
464
459
439
440
451
449
449
440
437
454
483
500
509
490
477
465
480
492
498
468
445
437
431
438
438
458
451
453
463
468
476
486
484
463
454
460
456
452
449
438
440
453
466
478
474
450
441
475
485
463
438
419
423
427
445
446
447
459
462
471
464
471
498
517
515
543
574
612
644
691
735
784
841
886
912
920
914
950
989
989
989
988
988
988
988
988
989
989
990
970
930
897
875
831
763
703
634
579
515
437
382
314
253
230
185
148
131
139
147
157
178
195
207
235
262
272
271
273
266
273
285
301
325
347
361
367
356
361
370
373
381
398
407
411
412
405
410
407
398
403
400
398
393
405
413
430
418
400
405
408
424
443
441
441
439
448
441
437
417
423
446
455
452
461
441
434
432
451
457
451
442
440
453
447
437
458
464
457
458
448
448
443
439
451
470
484
489
487
493
478
481
491
486
472
475
475
474
485
479
485
495
470
446
458
441
437
437
458
492
483
499
501
509
514
519
519
498
497
498
489
491
478
467
476
476
490
509
496
516
520
523
524
516
512
521
513
499
494
486
494
538
566
554
550
526
506
514
524
518
529
547
544
527
530
553
559
554
556
555
564
567
560
554
555
559
555
547
561
581
580
569
576
575
571
571
574
574
582
589
596
605
604
599
602
601
598
599
603
601
590
574
564
574
582
592
597
594
585
581
577
565
558
563
571
555
563
580
595
611
620
611
605
578
549
539
540
556
546
534
524
534
541
541
532
517
530
540
550
561
573
566
558
535
497
489
493
498
497
501
495
462
439
442
457
470
495
499
463
442
432
444
456
439
406
400
413
419
438
440
435
420
404
412
432
434
419
399
386
393
409
413
409
405
389
391
386
381
392
407
416
422
429
430
425
406
392
383
381
374
413
420
412
406
402
401
418
409
383
366
370
389
400
408
429
420
413
444
453
460
465
454
451
447
429
416
429
434
424
413
425
436
422
410
419
444
463
466
462
448
458
462
451
416
399
414
411
411
410
411
415
422
410
410
413
421
418
444
445
433
437
441
437
440
436
449
454
453
449
442
445
442
435
436
447
443
442
438
437
441
440
440
446
452
455
457
448
427
405
408
414
436
434
408
422
460
475
463
454
463
464
456
465
476
457
443
434
463
473
461
454
477
514
520
486
448
437
415
403
420
438
452
458
467
477
478
463
450
439
446
445
439
440
456
467
457
479
478
465
451
443
456
446
441
454
469
470
457
437
427
443
455
470
465
467
461
442
435
441
440
442
450
436
443
443
455
457
485
479
448
449
479
494
482
461
447
465
469
479
482
472
463
475
490
460
451
455
458
463
464
475
476
480
474
467
466
472
473
450
444
451
457
454
458
463
472
495
501
473
438
430
439
460
467
474
473
473
468
465
473
476
480
474
467
462
483
484
486
498
490
484
476
458
451
458
453
459
474
492
501
485
480
487
485
487
496
499
509
515
502
489
485
495
494
502
494
488
470
473
481
491
495
513
503
509
528
501
468
470
476
462
454
482
508
504
495
509
523
531
553
555
520
520
532
538
544
535
506
519
533
521
500
500
497
492
472
475
487
491
491
492
506
506
492
471
463
456
454
449
455
466
474
464
463
471
468
465
484
502
501
483
472
478
471
471
475
466
460
465
470
450
442
428
425
438
442
439
454
461
453
439
439
460
481
484
481
461
444
454
454
468
477
463
455
468
449
439
441
445
446
435
415
416
451
480
510
523
526
527
530
539
555
562
579
621
664
713
748
795
835
860
886
924
956
965
987
989
989
988
988
988
988
989
989
989
989
983
936
877
826
789
737
669
603
552
504
460
412
342
263
195
156
127
127
131
142
144
162
172
197
232
239
243
263
276
298
308
313
317
321
329
343
348
353
377
375
377
389
401
404
403
421
432
430
403
397
392
395
419
429
430
414
397
421
434
425
416
422
430
426
424
417
426
447
448
443
444
457
455
422
422
441
450
432
417
450
477
473
484
478
440
430
451
479
478
491
510
517
494
478
469
466
459
450
437
438
473
494
484
464
457
449
469
481
482
484
482
462
456
461
469
487
479
435
441
453
463
475
488
504
504
497
471
481
500
512
504
492
495
504
488
478
494
509
516
517
511
519
523
523
518
522
521
503
492
495
488
490
506
529
550
541
520
516
537
539
535
538
533
518
521
553
555
526
526
566
616
626
607
579
560
563
560
561
561
548
549
566
573
570
566
579
593
608
606
591
570
556
562
583
604
617
606
587
589
602
583
583
583
575
559
569
596
610
606
594
574
562
554
548
555
576
594
584
574
569
582
596
587
575
573
562
556
565
554
543
549
547
538
528
528
525
521
535
536
527
524
521
523
510
515
504
508
500
487
499
473
468
476
472
463
450
435
441
448
439
437
432
425
425
432
416
386
374
403
455
455
436
435
444
428
422
407
405
412
410
407
400
411
438
445
435
421
394
392
402
403
404
400
375
371
368
378
403
407
397
400
408
423
428
411
398
408
416
409
395
359
372
413
423
427
420
412
411
414
416
428
449
456
449
439
430
430
432
436
430
427
433
416
394
409
425
422
410
431
435
433
432
419
436
444
427
427
445
454
449
446
447
434
429
425
436
461
462
458
452
443
440
415
416
431
432
439
440
441
454
449
433
440
446
453
453
437
430
453
461
460
449
435
428
435
438
449
441
448
464
476
487
471
465
457
438
432
430
436
438
453
453
437
421
433
447
459
454
440
453
456
435
414
410
443
460
470
466
464
457
461
466
455
468
459
443
439
450
464
472
450
446
454
445
437
437
431
455
459
459
466
458
461
471
475
473
464
460
453
446
449
460
462
472
471
457
446
455
458
438
440
451
455
453
459
482
494
484
465
439
426
430
452
474
457
458
483
473
463
450
475
493
495
481
461
446
448
440
435
453
476
468
479
488
479
461
452
451
458
458
456
451
453
480
484
480
471
472
476
473
460
458
456
459
475
481
472
462
459
451
461
474
492
484
474
469
474
452
437
446
450
444
463
489
491
479
477
490
501
488
479
476
477
468
470
474
479
478
474
466
457
476
491
486
505
501
485
467
464
465
468
477
491
478
473
469
474
490
494
497
508
502
488
472
467
490
505
509
520
516
503
495
491
468
447
458
469
465
463
484
481
464
467
475
479
488
495
506
508
495
519
532
536
529
508
505
504
513
519
526
540
543
545
545
540
515
497
501
508
493
471
475
485
507
513
506
511
507
492
491
492
499
507
504
491
470
451
452
465
489
498
490
475
470
470
456
465
466
472
477
445
434
452
449
457
457
461
469
475
482
483
464
430
435
460
484
482
487
479
465
449
448
474
487
471
470
461
464
467
466
460
451
438
422
404
420
440
450
454
453
446
437
454
485
515
548
575
587
603
620
679
751
790
824
843
865
899
935
984
989
989
989
989
988
988
988
988
988
988
989
986
959
927
881
818
753
692
627
592
567
516
461
391
303
237
187
153
146
154
170
189
192
194
204
218
233
250
272
272
276
298
307
306
325
335
333
326
347
372
403
411
404
398
381
383
392
404
414
437
457
418
391
380
378
393
430
433
423
428
439
428
429
437
430
409
404
421
452
446
427
417
416
427
471
480
461
462
464
459
461
455
440
437
446
453
460
460
462
460
460
453
443
450
465
465
460
468
466
476
478
474
463
457
461
456
445
448
461
471
467
475
486
494
501
498
493
485
475
470
447
431
420
453
511
523
516
514
536
518
500
486
494
504
510
496
485
484
497
516
516
524
529
526
527
532
522
503
492
490
494
514
531
518
512
521
543
542
540
551
552
573
570
533
494
492
538
553
577
572
564
556
553
562
578
577
553
561
563
583
587
584
590
600
605
603
595
586
588
572
577
594
587
580
581
582
575
573
581
568
553
553
567
585
576
576
575
578
587
593
600
596
589
582
585
588
577
561
562
567
571
576
562
552
574
585
569
554
556
561
577
573
535
504
502
519
507
498
526
567
609
599
571
543
526
522
508
501
493
471
471
499
511
505
502
496
477
485
492
473
434
457
464
443
410
408
423
424
459
483
467
449
434
424
414
408
385
380
403
418
415
407
398
388
384
396
395
388
380
362
370
378
396
400
399
403
414
414
399
414
427
440
423
400
396
406
404
392
387
385
391
405
413
410
420
430
415
407
406
419
418
411
399
398
422
428
424
436
431
424
445
451
437
436
440
434
419
400
392
412
433
447
458
468
463
453
447
450
453
440
438
441
445
440
435
424
417
418
415
425
444
444
444
452
452
467
471
454
435
444
464
468
487
490
469
442
429
441
425
424
433
442
460
449
428
427
426
408
407
421
436
432
432
465
468
455
466
459
459
472
467
465
458
445
421
424
452
476
478
463
469
454
430
432
433
439
448
448
439
437
430
433
423
436
464
460
473
459
454
471
489
480
461
447
445
450
455
454
454
462
463
466
464
454
446
454
465
469
465
461
463
470
477
476
473
451
423
410
423
444
451
468
471
464
475
489
474
465
469
464
471
473
462
450
441
431
457
489
483
473
484
481
464
450
447
453
460
481
483
476
495
510
517
506
484
469
468
478
484
486
475
467
462
453
459
465
488
501
499
474
468
453
448
449
439
442
444
451
466
485
490
495
489
480
480
483
475
475
467
453
453
458
461
474
488
492
483
475
465
483
500
502
484
470
478
495
499
487
480
481
492
507
495
486
503
485
456
455
477
501
509
514
499
485
475
487
506
509
497
473
471
468
493
507
514
514
506
496
492
500
497
516
521
525
532
536
518
506
501
496
499
508
526
530
512
495
487
478
470
479
494
479
460
455
467
480
486
483
472
468
470
474
476
468
466
467
468
477
473
476
476
461
454
465
475
480
487
465
433
444
455
445
431
425
457
476
481
483
472
476
474
469
471
470
465
466
464
464
443
449
452
456
451
452
455
457
465
462
468
467
471
478
480
498
522
538
544
561
581
597
621
670
725
776
805
831
862
879
871
902
954
990
989
989
989
989
988
989
989
989
967
930
887
840
810
779
717
644
596
585
539
486
441
388
316
243
204
174
157
142
149
163
183
195
217
233
261
276
272
277
273
286
302
323
332
349
368
377
394
406
420
397
366
376
415
432
429
438
435
430
423
433
441
443
443
437
428
433
432
442
458
441
423
428
431
442
451
440
441
458
451
428
439
429
402
411
421
422
445
440
444
451
453
455
459
457
462
463
474
475
472
464
453
457
467
481
479
469
451
462
472
465
462
470
479
484
478
471
466
475
470
482
489
489
486
469
453
489
505
481
472
477
488
498
494
477
459
466
479
480
487
495
526
550
539
522
519
539
544
552
553
541
507
514
533
534
531
523
509
509
512
530
526
520
522
525
527
527
548
545
534
535
544
526
525
531
534
535
543
540
528
527
533
549
563
564
578
568
551
550
558
564
569
571
582
592
581
560
548
550
562
585
600
610
605
613
604
602
612
597
572
567
575
586
587
582
585
579
595
587
571
570
575
548
532
538
550
584
617
599
574
566
575
574
564
556
546
528
540
571
568
549
524
521
533
556
555
535
527
522
544
533
529
526
514
499
488
488
493
497
490
485
482
485
468
465
451
468
471
459
460
444
417
391
407
421
427
429
422
412
415
418
415
416
409
381
353
358
370
409
448
444
420
415
403
391
388
400
407
413
404
408
405
395
395
407
397
390
385
388
409
419
419
416
417
405
406
405
399
411
414
398
391
404
402
421
439
458
465
436
432
441
436
432
440
441
433
415
407
412
425
422
406
417
428
443
454
441
444
455
470
466
474
457
436
421
417
422
427
434
430
437
424
441
462
453
453
454
446
425
423
435
438
431
426
433
440
451
470
468
445
434
444
462
465
455
444
436
440
447
457
449
428
415
411
424
444
453
457
464
451
444
430
435
435
432
432
454
463
449
447
444
445
438
429
437
465
482
480
472
469
482
457
426
422
442
476
493
468
438
435
448
438
418
412
453
494
495
454
447
448
437
450
466
471
467
460
463
465
462
461
454
449
459
468
458
439
445
450
457
444
439
465
502
491
470
468
478
479
477
495
492
481
467
467
461
461
451
442
450
448
440
446
461
474
468
470
494
491
476
483
490
480
453
441
437
441
459
467
465
471
482
500
505
471
454
477
480
488
470
476
494
500
509
518
519
502
479
472
482
480
473
472
472
472
472
481
498
493
493
499
504
513
489
464
453
470
489
501
501
505
497
490
464
442
450
482
506
523
529
528
522
516
527
528
532
530
501
500
509
505
519
507
490
483
481
489
494
480
461
463
462
465
491
490
494
496
477
460
467
464
461
465
483
476
457
455
457
461
454
454
434
425
420
430
464
484
479
470
473
463
451
433
437
465
508
493
471
449
433
440
453
470
476
470
460
453
450
430
425
429
440
450
444
447
455
455
457
462
451
448
449
460
463
476
518
547
515
492
510
539
569
608
664
709
750
791
816
808
819
856
879
901
923
944
957
974
990
989
989
989
966
930
893
857
822
789
756
720
697
661
616
580
542
473
397
337
274
233
197
168
156
135
140
164
176
195
209
207
206
234
265
265
282
314
328
328
337
353
373
381
382
380
406
424
416
397
390
389
410
420
419
434
432
432
440
447
476
449
412
406
422
425
436
452
469
460
455
458
445
443
435
432
434
436
449
457
447
434
435
437
451
468
461
446
444
449
462
474
470
470
481
477
480
465
463
468
472
491
497
492
481
480
477
474
470
472
478
485
493
488
469
476
494
511
497
473
478
467
482
494
494
527
547
514
480
473
501
511
517
516
499
486
506
497
497
497
500
509
502
495
494
499
511
521
513
517
523
529
537
536
531
529
525
518
514
515
513
504
510
517
527
536
529
492
490
513
541
545
537
526
522
531
552
560
552
557
559
546
557
571
571
580
578
553
568
586
588
578
571
574
583
611
651
656
633
603
576
567
573
581
585
577
571
569
570
581
585
609
605
600
599
598
592
585
566
533
538
559
591
606
609
588
588
583
570
549
541
531
512
519
549
558
546
549
544
516
510
490
502
529
541
537
534
548
536
519
506
490
467
468
472
463
446
441
441
444
447
454
450
439
432
412
404
415
422
432
444
440
425
424
428
425
417
407
407
410
406
388
381
383
384
407
422
404
390
400
405
396
389
400
408
394
394
392
389
394
415
433
430
416
408
412
409
400
398
397
409
408
425
460
468
455
437
415
406
415
412
423
433
438
430
416
418
413
423
433
440
447
441
448
449
450
433
425
421
417
413
419
423
406
415
427
432
444
441
440
448
449
447
452
454
454
471
465
455
449
431
398
409
423
453
457
457
458
453
448
462
466
473
469
464
462
469
468
449
429
432
436
443
447
450
435
431
446
453
446
447
463
457
458
475
466
430
401
413
439
446
443
470
479
450
414
404
419
450
469
476
488
492
472
461
447
436
442
441
437
454
459
460
464
469
496
496
460
460
467
450
428
427
450
453
438
453
473
466
451
448
445
448
438
434
445
456
469
470
470
475
470
448
445
456
471
480
468
457
466
469
444
442
429
425
438
463
473
482
481
478
485
476
456
465
470
466
461
459
456
471
481
478
464
479
489
468
464
459
464
474
457
439
448
454
459
469
467
453
443
448
461
489
499
504
498
479
464
474
463
472
462
460
475
463
460
455
479
494
502
504
502
500
493
499
497
488
500
518
513
499
479
469
472
469
474
499
513
496
488
490
500
509
517
518
518
504
505
529
521
510
501
485
506
504
503
524
543
546
534
512
501
511
510
502
490
490
486
474
486
490
490
482
486
484
478
447
409
412
445
468
463
458
445
422
426
444
447
434
416
417
446
474
487
491
493
471
466
473
480
493
477
460
437
439
446
479
493
482
475
456
462
467
462
451
444
439
430
437
452
456
445
431
426
428
454
471
439
427
414
433
467
480
480
478
494
509
520
551
583
593
609
646
687
739
781
817
846
877
924
963
989
990
989
984
973
990
989
989
989
989
990
945
888
859
828
792
764
714
642
591
551
491
424
373
322
263
205
177
145
131
161
211
214
210
212
211
228
243
261
270
285
309
323
337
353
366
373
377
376
374
381
395
398
394
393
393
403
400
405
406
409
422
425
409
405
420
433
433
436
440
439
427
409
407
414
438
436
439
442
449
445
447
456
457
478
479
466
434
414
424
459
489
456
435
433
442
471
466
465
449
449
456
480
491
481
463
456
453
452
455
459
474
495
498
501
506
509
495
490
483
454
441
469
480
477
492
490
502
497
485
479
490
485
476
461
466
477
479
478
477
471
478
504
539
537
508
501
476
487
512
508
513
518
522
532
535
525
499
486
507
520
521
519
521
518
524
527
528
527
527
503
504
513
539
553
566
569
570
551
527
529
533
533
521
523
548
571
587
588
582
583
588
580
573
572
563
564
564
591
614
615
592
593
595
572
562
581
596
606
589
561
548
560
574
562
553
567
569
582
599
608
591
597
601
566
542
535
546
570
583
569
563
551
559
558
550
541
537
552
546
546
528
521
517
516
508
499
501
500
492
480
483
488
503
507
514
508
498
495
500
509
479
459
464
468
460
455
462
456
452
424
400
406
418
417
421
434
451
439
411
386
383
427
443
408
400
406
421
402
386
383
374
371
377
386
400
397
405
415
434
449
429
417
418
426
433
419
384
386
400
397
384
378
381
409
430
430
420
415
406
403
403
408
411
417
417
423
432
436
441
429
431
433
425
418
426
430
434
438
438
430
412
419
435
433
436
438
423
421
433
449
459
450
443
432
437
444
454
463
461
465
456
452
436
425
435
401
381
388
410
430
451
445
428
417
419
461
462
463
466
456
437
424
427
432
442
450
456
452
465
481
486
464
442
444
453
461
456
447
444
438
458
461
458
456
456
447
438
438
441
463
469
463
450
446
454
451
440
430
434
430
438
478
484
461
458
492
497
476
448
444
457
472
465
458
455
450
452
447
428
426
437
448
450
446
471
501
486
474
484
480
469
451
445
457
467
470
481
499
490
466
439
439
435
443
444
452
467
455
466
455
465
461
448
455
471
475
477
443
459
486
483
469
464
484
496
494
498
470
455
456
454
455
452
442
440
469
479
466
465
469
467
466
464
471
484
495
493
488
499
482
471
479
466
473
497
513
539
510
475
459
459
479
492
485
476
477
467
455
477
487
491
472
468
478
492
494
491
495
494
494
500
509
518
527
505
495
499
525
538
521
509
499
497
499
513
514
525
537
535
519
505
496
488
488
488
482
492
488
479
481
475
462
492
484
449
438
456
475
464
467
481
476
459
446
451
464
467
451
437
445
468
480
482
465
448
441
451
451
444
453
467
465
461
459
451
435
428
444
444
441
450
456
463
478
481
465
459
460
467
489
496
461
434
452
456
458
469
452
422
419
423
417
426
445
461
471
496
516
519
514
526
549
566
614
665
703
747
781
822
856
879
895
901
913
947
990
989
989
989
989
989
988
989
989
989
959
919
892
866
822
785
735
678
605
520
459
403
355
289
215
180
165
153
168
177
180
165
161
192
202
208
233
252
264
275
277
302
340
370
366
354
356
363
371
388
398
400
391
369
399
446
442
426
422
415
420
425
421
419
419
409
415
421
425
438
453
433
412
400
397
413
414
412
410
418
420
428
431
432
432
418
426
448
473
466
462
459
462
455
450
466
457
453
446
432
429
444
452
460
455
459
467
463
473
464
453
456
463
470
475
483
473
463
465
474
459
435
421
434
455
490
506
495
492
504
513
504
495
489
495
496
477
484
492
497
506
503
501
518
511
495
508
510
505
504
495
476
485
499
503
527
553
558
549
529
502
486
499
508
524
520
538
533
523
539
560
553
549
547
552
556
548
548
536
535
530
523
538
549
561
575
577
573
567
598
597
565
542
556
584
572
578
593
594
588
593
601
591
582
572
577
575
576
577
586
588
592
583
562
571
588
579
567
550
538
546
579
582
577
571
579
590
593
587
576
559
550
537
521
523
548
567
550
537
537
538
551
582
561
538
520
521
524
526
514
513
512
502
497
499
499
479
456
437
454
459
459
442
433
460
457
452
443
439
441
447
434
427
427
441
449
434
422
390
364
372
395
396
377
383
401
418
406
410
415
417
412
400
377
373
381
387
410
421
416
414
411
402
379
382
394
421
438
427
416
430
454
440
400
390
413
430
428
406
403
401
401
413
427
429
408
410
422
425
412
406
398
395
398
405
422
437
449
437
429
437
443
439
427
431
427
430
438
439
453
483
472
436
428
419
439
440
467
473
449
437
421
428
423
432
440
454
447
441
430
431
422
417
427
461
469
460
455
441
453
458
456
458
456
442
436
459
481
479
451
443
447
457
471
469
448
435
438
456
443
435
417
414
456
476
501
503
499
493
453
425
433
450
455
448
425
420
433
445
442
444
444
456
469
475
468
474
488
513
489
478
474
488
483
475
473
458
431
423
431
440
436
428
438
454
456
469
457
443
425
450
467
457
471
484
495
496
506
494
480
464
456
448
440
446
458
471
468
467
454
440
429
430
443
466
482
485
460
451
460
477
480
480
489
468
447
449
467
464
459
471
467
470
463
458
469
475
469
462
457
456
460
460
450
446
444
458
491
521
501
466
444
468
485
486
491
472
457
438
442
456
454
456
471
488
476
476
487
484
482
492
500
483
478
482
491
481
468
464
469
482
501
484
463
452
442
462
465
496
485
463
457
462
473
474
480
484
482
474
478
501
506
509
514
478
440
442
445
457
475
507
543
539
515
501
512
509
489
461
469
488
482
474
480
498
503
513
522
518
514
530
523
511
480
471
482
482
491
506
525
520
513
516
518
519
508
492
481
485
500
507
506
498
498
504
512
517
498
497
507
506
492
464
477
507
507
490
467
436
445
453
457
465
468
477
477
470
461
463
469
462
462
481
485
477
464
476
482
486
488
484
481
481
484
482
467
436
438
436
435
436
448
459
459
452
466
488
481
475
471
470
470
462
451
457
465
460
439
417
415
427
440
453
472
483
483
482
470
458
452
476
517
542
567
605
659
688
723
758
783
802
848
895
927
968
989
989
988
988
988
988
988
988
988
988
989
989
990
956
918
890
864
799
707
643
594
536
466
412
358
289
218
162
129
123
149
165
166
181
188
184
227
257
261
285
284
280
304
341
350
341
354
368
367
383
394
398
392
399
400
387
398
400
397
409
409
405
394
399
396
389
397
414
436
424
412
406
420
411
401
406
442
446
431
436
433
439
443
449
437
425
416
417
428
437
447
438
432
425
457
485
465
443
438
427
417
420
424
445
467
479
492
476
457
450
465
493
504
491
466
449
449
477
483
489
474
470
458
450
466
474
487
499
512
497
492
505
523
527
491
468
481
496
494
478
472
486
498
505
497
485
481
483
503
525
540
512
511
520
517
512
519
518
495
488
508
532
532
527
521
519
518
524
538
551
568
564
541
535
541
543
545
552
549
554
571
574
568
570
567
535
527
536
555
568
571
551
553
560
572
587
588
585
586
605
603
606
600
611
608
582
562
557
570
580
588
582
576
589
615
616
588
578
585
594
592
600
597
604
596
577
561
569
573
571
555
558
546
550
571
591
589
574
565
552
552
560
560
542
545
554
545
532
522
509
519
515
511
502
478
458
448
445
482
500
503
501
489
483
480
475
479
469
474
479
487
474
450
419
404
418
429
427
401
376
369
393
402
394
400
414
419
424
426
414
403
398
391
373
370
370
405
429
431
429
415
421
428
423
391
382
388
386
387
395
402
390
393
416
421
412
436
431
426
438
442
444
432
426
415
395
389
403
403
412
416
406
411
415
431
443
439
436
434
425
427
443
439
428
429
434
434
431
440
428
428
427
426
420
422
422
442
452
450
439
439
449
456
461
466
487
465
442
416
411
419
429
444
460
447
441
445
444
437
473
465
448
446
439
434
436
432
429
434
457
471
466
451
462
467
462
445
437
437
447
459
468
464
433
418
426
444
465
473
467
463
455
454
464
468
465
467
462
457
459
471
486
462
437
435
442
446
444
453
454
464
469
461
428
425
444
437
457
476
476
463
460
451
451
458
450
452
455
466
457
459
470
491
443
416
431
439
438
443
478
490
486
469
475
469
464
468
472
472
468
471
461
449
441
432
446
460
487
509
501
474
464
465
467
463
481
463
447
454
463
467
469
453
451
452
471
507
508
489
482
473
476
493
489
477
475
471
454
447
459
470
464
476
473
462
434
444
492
502
485
447
459
466
486
485
468
462
454
458
482
488
479
464
477
483
482
492
502
497
483
455
458
456
460
470
473
472
484
476
453
463
466
478
496
504
487
451
441
459
470
485
482
469
473
477
469
463
464
464
450
458
463
473
480
477
473
476
478
476
468
456
473
479
473
476
492
488
500
504
496
506
493
479
472
474
465
464
475
495
513
539
548
533
504
477
465
469
467
469
486
511
513
513
505
503
505
501
504
496
499
505
511
502
495
481
475
473
481
499
520
514
493
490
500
499
499
509
522
543
534
514
550
574
567
565
551
538
540
552
553
543
499
475
481
478
495
502
496
500
504
500
494
478
482
480
479
472
455
432
433
442
432
441
462
472
477
481
470
460
450
447
457
468
486
473
488
480
476
479
472
451
425
429
445
471
500
523
517
513
506
489
498
494
503
475
456
460
479
484
480
473
457
464
471
445
418
418
426
424
427
431
434
437
452
458
480
488
487
497
526
564
585
601
625
648
678
730
781
808
845
873
942
964
959
978
989
989
989
989
989
988
988
988
989
988
989
989
970
922
894
852
784
710
649
584
526
470
411
345
286
237
194
172
144
132
150
192
201
210
223
224
231
234
243
253
272
259
278
308
342
356
375
401
400
407
403
382
394
406
393
398
408
414
424
439
449
429
429
414
385
368
377
398
416
429
436
423
407
406
418
427
439
447
445
428
423
451
461
460
473
483
466
443
426
420
420
445
452
465
487
476
451
441
444
449
448
450
457
462
463
458
454
473
491
495
470
444
436
468
483
474
475
483
483
477
474
480
486
477
461
453
462
479
472
470
483
488
497
500
508
499
480
463
459
459
472
491
516
532
537
540
539
531
530
540
535
517
513
523
525
529
534
523
510
505
506
486
480
504
557
586
563
551
530
524
533
537
544
542
551
532
521
531
538
540
556
576
585
570
564
562
568
566
551
556
559
561
577
574
573
569
562
563
592
605
602
603
609
605
600
601
602
605
604
589
600
604
592
585
593
576
564
571
603
596
565
569
606
615
594
565
552
545
532
548
559
544
548
556
557
547
552
551
545
547
541
532
527
518
503
498
492
499
522
531
541
546
536
525
515
508
489
482
484
485
488
488
476
469
468
469
464
451
448
434
417
412
438
436
420
414
418
409
400
422
453
448
431
422
401
419
435
448
460
465
443
400
379
401
425
431
418
409
385
377
380
387
397
390
385
387
390
401
404
410
409
428
436
427
413
417
425
425
416
417
410
401
404
402
401
408
402
414
415
417
422
424
419
407
413
414
424
438
469
493
485
458
442
431
423
423
425
445
452
451
456
449
432
427
440
439
445
464
478
462
449
445
430
438
448
461
456
453
454
458
465
450
455
470
454
445
472
478
455
432
428
423
426
436
451
470
458
448
453
461
473
481
469
461
470
463
446
432
426
450
474
484
462
439
432
439
435
435
436
430
427
439
445
428
435
461
480
494
503
480
461
451
440
444
449
459
474
467
446
425
437
459
470
478
494
494
478
452
447
445
445
457
469
457
443
451
479
486
477
475
464
468
468
466
462
449
460
464
466
451
461
473
467
471
465
466
478
480
478
466
446
435
458
481
479
474
484
495
502
495
461
430
439
460
466
461
454
463
478
484
460
439
453
467
467
459
461
462
469
473
488
487
486
470
455
459
453
458
462
465
456
454
458
477
485
475
467
458
456
466
486
487
492
488
470
457
459
462
467
482
488
480
471
453
440
451
468
474
485
485
464
471
486
504
514
512
500
500
502
488
483
484
489
488
479
472
474
479
500
517
494
449
448
453
466
475
469
481
487
487
478
467
469
485
510
497
496
498
486
460
450
464
471
472
467
490
488
495
508
485
453
437
455
475
478
458
452
464
510
521
508
485
470
466
471
486
503
503
504
496
495
507
521
526
499
480
498
498
498
493
500
500
503
513
500
503
507
499
497
501
507
504
508
535
526
500
533
531
519
505
504
509
507
504
517
529
516
502
503
502
509
500
509
501
492
492
502
520
520
510
501
481
478
487
485
478
474
470
465
450
438
462
476
459
478
486
497
483
467
464
449
435
439
481
505
503
497
489
485
499
494
484
482
476
471
459
460
487
506
480
457
453
467
472
463
455
443
445
451
467
467
444
431
434
452
470
457
447
454
452
452
448
441
446
450
463
473
491
539
570
590
622
653
687
727
769
788
820
868
902
914
922
938
964
990
989
989
989
989
989
989
989
989
963
936
896
839
799
749
687
614
563
538
494
450
414
331
269
204
184
160
144
144
169
194
207
218
232
236
237
248
267
285
296
294
310
334
354
350
343
356
392
409
408
401
386
392
417
433
432
426
405
407
423
433
436
427
425
439
460
467
443
442
459
450
422
429
439
440
435
438
438
437
439
452
457
453
459
445
434
459
450
443
451
475
498
500
497
475
485
494
471
472
469
463
471
488
488
480
473
468
470
468
472
479
476
475
473
467
476
476
462
461
470
477
484
477
473
497
515
502
499
485
488
488
490
487
481
480
494
501
487
477
486
486
514
507
505
499
500
517
529
528
535
534
512
494
499
519
532
540
506
473
462
467
514
560
570
564
561
546
528
534
549
544
541
550
565
561
560
565
550
556
564
569
583
575
560
573
572
566
558
569
574
570
587
603
597
607
587
572
568
555
558
581
599
597
592
599
597
590
582
586
584
581
590
614
615
591
586
589
605
597
567
553
562
564
552
563
584
575
574
567
558
556
549
560
564
556
553
540
525
523
502
501
534
550
543
539
543
533
518
506
500
485
489
513
517
505
507
509
474
464
458
451
465
472
461
467
464
450
455
455
451
442
422
418
430
438
423
389
388
412
411
398
391
402
413
420
436
432
405
399
385
384
405
417
426
439
436
436
437
399
375
381
384
388
411
445
456
426
401
404
397
389
394
404
395
400
413
410
393
392
402
412
413
423
420
413
416
410
421
430
435
447
448
442
441
450
442
432
429
419
416
426
437
443
442
443
439
464
466
460
457
452
442
444
455
456
450
452
462
459
441
429
447
456
458
459
464
474
480
463
442
440
449
464
458
465
463
455
452
443
435
431
443
449
448
448
455
456
471
486
494
488
481
453
408
395
405
424
448
470
458
446
453
466
473
476
468
453
452
453
460
452
446
453
451
435
439
450
452
438
440
463
470
467
467
475
483
476
454
444
450
459
453
450
462
481
474
452
442
453
451
454
471
474
462
458
468
482
478
471
466
475
470
459
457
451
440
459
461
440
447
466
474
457
452
446
461
459
463
460
477
486
467
453
466
481
475
471
451
437
445
462
475
462
467
478
478
483
483
482
478
475
475
474
476
473
468
478
475
469
466
452
446
445
457
462
473
471
472
480
480
479
470
457
440
439
441
437
436
477
491
479
481
486
491
504
502
491
477
450
452
448
445
469
482
477
464
455
456
471
488
497
488
470
469
471
470
467
469
474
470
468
455
473
485
487
487
479
477
463
456
493
504
495
492
490
493
476
464
458
474
489
490
480
480
496
514
518
523
505
487
493
508
509
499
492
493
495
496
483
476
480
473
477
476
482
477
481
490
495
501
504
520
513
499
502
511
527
533
510
480
492
526
525
513
520
510
498
493
491
502
525
529
512
500
477
474
478
479
493
505
507
486
470
469
476
482
483
469
477
475
475
478
478
501
506
505
493
495
502
495
477
454
450
467
474
456
448
451
448
441
433
422
430
436
446
476
518
498
486
503
510
497
497
488
478
465
462
459
472
482
469
454
447
457
460
461
465
458
444
438
428
410
443
473
477
460
454
451
464
474
481
497
499
492
521
565
595
612
646
681
701
731
772
818
849
870
887
900
922
950
976
989
989
989
989
989
989
988
966
923
858
825
796
780
738
669
609
560
534
493
442
393
327
257
207
201
196
192
191
202
206
212
227
242
245
257
258
254
263
275
308
354
340
333
340
344
371
386
397
404
391
391
412
403
409
420
424
426
428
431
427
442
443
428
424
427
447
441
436
438
438
436
425
425
442
443
441
452
467
477
496
496
455
431
430
431
445
455
459
457
443
434
454
464
466
462
458
455
449
444
459
478
474
469
465
462
468
456
468
467
469
478
490
485
503
521
525
504
477
475
467
480
489
480
487
494
502
500
500
490
494
489
492
492
490
489
499
505
516
508
498
510
508
496
499
512
517
518
498
484
485
482
515
522
525
524
514
492
476
476
487
510
529
536
542
549
530
531
528
523
544
552
556
561
558
561
572
567
538
530
534
556
569
578
586
591
586
562
564
587
602
603
616
607
590
584
587
586
578
586
602
620
598
582
590
580
580
579
581
583
582
572
569
562
564
567
573
581
593
593
594
605
610
591
559
545
557
558
537
531
543
556
568
566
558
548
534
535
554
547
527
506
493
494
501
501
499
497
506
506
496
487
505
514
502
503
505
500
493
457
431
435
448
457
453
449
453
447
458
438
406
391
400
406
411
423
420
412
422
428
419
416
409
406
399
393
394
395
402
413
403
389
389
393
387
387
400
412
429
433
422
425
414
392
379
367
358
363
395
409
409
428
438
430
427
427
418
421
425
435
442
460
447
422
400
401
406
411
426
431
432
435
443
431
418
407
411
428
432
434
445
455
457
453
438
442
446
454
460
465
463
430
426
434
433
428
435
462
455
433
433
431
445
453
454
454
460
458
458
457
464
455
447
444
442
439
446
464
470
464
451
461
460
441
413
430
453
463
462
458
464
479
481
480
484
483
478
443
395
385
423
445
460
492
493
480
466
460
452
452
447
460
478
480
465
456
467
476
465
444
450
468
457
419
407
415
452
477
479
470
470
485
496
486
472
454
448
445
442
417
428
436
432
434
451
474
480
474
481
474
467
475
479
470
468
457
446
444
458
478
472
467
478
490
481
464
460
456
460
479
489
471
466
472
465
457
459
454
457
466
474
469
482
499
511
507
490
478
464
463
474
478
476
483
460
435
428
437
450
460
462
472
462
447
455
471
501
501
485
472
454
443
453
469
483
487
496
499
471
453
475
477
473
491
494
485
480
488
490
483
467
460
455
453
472
477
471
479
484
480
473
474
483
472
463
462
474
476
470
455
461
469
473
488
496
487
470
472
475
481
490
493
480
459
460
471
469
480
492
481
473
482
485
499
507
494
480
467
475
475
475
483
498
511
517
531
521
519
517
506
497
496
496
496
510
511
499
488
476
477
478
505
511
511
511
490
481
485
504
516
518
520
523
505
514
522
521
519
517
516
511
518
518
498
478
481
508
519
514
522
518
496
491
505
519
532
524
517
493
458
443
456
451
446
436
435
446
444
439
460
454
467
484
495
468
450
461
472
467
467
470
471
482
496
498
492
478
476
487
493
478
466
463
460
456
445
437
425
438
473
481
478
483
487
469
465
479
477
478
470
442
432
422
413
428
428
423
417
428
439
454
473
482
500
517
537
539
530
541
589
648
710
760
789
807
830
847
875
898
934
962
986
990
989
989
989
989
988
989
989
989
961
931
889
843
801
747
700
668
622
558
493
437
382
323
264
215
183
166
171
182
207
225
205
200
226
251
271
269
259
244
270
297
333
346
352
368
375
374
384
400
393
387
388
388
381
390
391
390
381
411
467
470
452
438
429
417
421
437
467
459
450
458
435
397
395
422
436
433
433
438
446
416
413
429
440
444
454
461
452
434
430
423
415
454
482
479
473
470
473
467
468
464
470
477
469
466
464
473
471
463
471
483
465
464
478
475
467
477
488
480
462
448
458
469
472
471
474
491
495
486
481
482
480
481
468
474
479
482
479
482
491
474
473
483
491
505
522
511
505
488
500
520
524
529
509
519
542
533
526
510
515
510
523
535
526
510
523
544
532
509
496
494
494
514
544
557
575
557
548
551
563
567
581
589
585
576
571
562
551
568
585
576
562
568
597
591
590
583
574
580
585
593
607
618
617
609
601
589
575
575
596
613
597
599
599
598
586
582
572
567
577
593
587
550
520
521
538
532
540
557
562
564
558
542
539
534
540
543
541
534
528
508
508
519
519
521
518
516
500
499
496
490
486
479
497
503
468
441
467
467
475
469
428
396
407
437
466
502
487
443
418
416
434
443
434
431
436
432
428
419
412
409
411
412
417
410
405
409
415
414
408
422
418
415
401
409
405
385
359
348
361
364
374
421
451
457
434
403
404
423
415
396
394
404
413
418
418
410
424
427
428
431
428
434
426
395
386
384
393
405
408
422
438
448
442
421
403
405
418
432
445
439
441
432
416
417
435
435
430
426
434
453
448
437
433
431
444
437
431
435
442
448
451
430
447
461
451
442
448
464
463
468
460
436
434
439
441
436
434
434
438
433
421
432
447
435
432
467
482
479
470
471
480
475
440
435
470
483
478
480
479
468
460
457
453
444
450
467
475
474
428
432
456
478
469
451
442
437
452
464
475
459
458
455
458
451
442
451
450
448
443
473
467
441
430
441
451
472
492
492
480
484
457
449
460
446
440
447
464
461
453
435
437
449
469
479
463
444
457
474
473
467
465
450
448
465
474
473
464
465
468
481
480
467
455
455
467
481
479
468
461
459
467
459
447
446
462
470
471
463
450
466
488
481
470
466
469
483
473
459
465
465
470
454
455
464
478
492
476
479
479
504
512
492
493
501
498
479
458
445
453
449
465
488
499
489
479
479
483
486
468
466
481
484
478
483
479
471
472
491
491
476
451
440
447
458
455
447
460
470
467
471
469
476
486
478
470
457
469
477
476
469
481
484
479
478
485
486
488
490
491
485
464
467
480
492
494
485
489
481
468
476
489
499
491
496
503
499
499
507
503
476
476
487
492
482
489
477
469
490
506
508
513
496
471
475
484
502
513
507
503
512
509
515
514
507
506
509
520
524
536
522
514
530
521
510
515
514
492
477
492
518
517
513
500
489
495
490
495
482
472
464
482
514
501
493
491
489
474
479
484
484
478
486
488
480
476
462
451
458
473
474
455
450
459
483
490
456
436
439
452
454
442
449
465
472
461
464
450
442
447
441
442
462
481
481
479
469
461
455
460
468
477
492
489
454
425
407
397
391
400
414
421
436
448
465
477
497
512
521
533
562
602
629
657
681
716
770
798
827
852
854
876
920
964
989
989
989
989
989
988
989
989
989
989
990
958
938
900
849
792
727
689
652
580
520
466
414
361
302
241
198
161
153
168
169
163
191
215
234
260
262
262
260
277
299
330
356
373
374
358
361
374
371
375
381
385
377
379
380
388
382
382
392
400
402
418
429
431
437
432
432
418
409
406
403
394
384
390
410
439
452
459
463
452
439
430
423
422
431
464
456
431
430
438
447
447
443
451
450
455
442
434
444
448
444
451
463
475
487
483
469
460
461
465
471
480
484
473
451
443
476
476
482
485
501
498
486
478
468
455
450
453
472
494
515
515
520
516
497
495
497
504
506
490
479
481
477
460
474
500
498
491
495
487
480
494
499
509
507
504
493
495
506
534
548
532
511
511
516
524
522
510
511
523
529
533
528
538
576
578
565
565
562
556
558
557
551
551
554
541
556
591
587
570
573
582
582
584
587
585
570
576
600
590
587
593
591
596
588
582
614
627
617
607
601
608
593
564
555
571
575
579
599
602
590
572
569
574
569
571
572
554
553
558
558
563
557
556
556
562
559
555
557
534
511
513
513
515
505
504
516
525
519
512
495
477
471
469
462
460
482
499
485
477
463
440
424
423
451
462
462
454
449
438
410
416
421
425
424
425
416
407
403
400
391
393
393
403
403
402
429
430
403
385
374
363
366
394
429
447
420
394
393
386
392
396
399
398
400
396
395
416
441
444
427
406
403
404
407
415
422
413
411
400
405
423
409
408
414
408
410
421
431
420
403
401
410
403
404
433
454
467
440
431
426
426
419
415
413
420
430
434
422
423
427
432
431
448
447
451
445
424
420
410
426
465
478
455
425
400
404
430
434
443
449
462
461
451
457
460
443
434
438
437
420
433
435
444
439
454
463
457
456
458
459
461
443
415
416
463
488
485
487
490
490
480
468
452
453
453
439
436
469
473
463
446
443
441
436
440
440
450
455
450
459
466
473
472
455
456
470
481
455
440
444
445
446
453
453
455
464
482
481
464
456
436
429
450
478
478
471
469
459
456
459
465
458
448
456
471
464
455
455
460
456
474
481
457
422
449
469
457
461
455
461
481
477
476
474
472
456
443
454
461
461
478
499
511
486
467
473
472
464
458
457
469
492
509
496
466
449
430
430
431
461
475
478
471
478
483
482
473
474
471
466
464
461
471
483
483
472
466
470
470
457
479
476
453
463
466
461
480
482
454
445
463
476
460
440
453
482
504
510
493
480
465
460
474
476
470
476
498
492
471
458
459
453
448
450
455
454
461
477
484
477
486
500
515
512
510
505
479
445
436
465
483
458
438
444
460
455
465
482
496
497
493
498
480
467
469
464
473
482
469
455
478
496
503
506
501
494
498
497
495
484
493
495
523
518
502
513
510
498
508
504
486
485
492
485
485
469
455
461
473
472
486
510
518
519
519
523
516
510
517
508
507
499
502
502
510
523
515
518
529
531
521
497
496
514
514
496
479
480
490
491
492
478
479
487
478
466
473
507
519
515
500
487
473
466
459
450
449
460
490
508
501
478
457
461
477
469
455
486
490
484
500
478
473
476
470
471
465
458
454
453
444
445
452
441
436
440
453
458
464
443
465
487
495
496
502
498
483
487
479
486
480
467
469
479
479
460
446
445
437
432
435
432
437
432
440
446
448
454
464
476
485
509
553
578
593
621
668
727
744
783
821
873
925
943
957
980
989
989
989
988
988
988
988
989
989
989
989
989
939
909
866
821
800
768
698
625
541
484
453
386
318
254
180
130
128
131
160
178
167
165
192
217
213
215
241
261
301
349
371
381
382
369
366
366
365
359
353
364
378
391
398
403
410
409
400
388
391
392
396
398
397
402
410
406
401
407
429
444
432
421
428
428
427
431
419
407
424
442
442
438
433
437
442
438
442
454
455
440
426
431
456
451
439
434
428
432
436
459
464
454
451
459
472
459
458
472
454
453
476
485
471
475
476
470
473
485
480
487
497
500
486
477
466
478
482
474
477
476
460
471
488
481
483
480
476
468
474
478
500
502
506
518
521
506
487
496
497
501
507
507
499
500
507
519
531
529
527
530
529
533
521
503
499
506
515
512
502
517
531
531
531
546
569
585
603
602
589
576
577
577
581
602
599
583
560
548
569
581
576
577
575
589
600
593
586
596
605
600
592
605
626
627
598
577
577
593
574
572
587
596
610
608
605
599
599
588
584
586
582
569
558
560
580
580
577
567
573
560
547
551
536
548
574
586
567
545
537
533
533
524
508
504
498
496
509
518
511
506
502
497
489
477
469
476
463
448
453
456
460
468
454
432
419
425
429
419
431
427
401
418
430
403
397
429
453
440
435
438
406
394
394
394
394
401
395
373
378
407
427
438
450
431
398
372
370
382
382
378
378
375
379
387
388
391
412
423
412
407
401
394
395
390
394
398
404
410
416
401
391
404
422
417
400
410
417
422
435
439
413
408
412
401
399
404
413
434
427
401
394
408
425
443
444
447
452
427
423
431
434
441
426
415
422
423
428
444
455
456
447
426
413
398
395
425
454
465
457
438
459
471
466
472
486
491
459
442
439
447
464
464
454
455
460
473
480
480
460
432
430
430
438
436
424
439
458
463
444
440
462
483
493
461
442
424
422
430
452
461
463
455
449
444
440
440
447
454
462
452
449
465
464
452
449
460
450
445
455
471
479
478
481
467
464
474
476
467
454
432
434
439
436
438
440
457
462
449
448
460
483
483
466
465
467
469
451
452
461
449
453
468
460
448
458
471
469
479
484
475
460
464
466
468
464
459
458
497
512
486
446
436
439
427
432
441
452
461
448
458
472
478
477
481
476
473
467
466
479
473
470
460
452
469
471
451
452
459
455
453
448
457
464
475
479
475
482
476
480
484
475
454
448
447
478
496
491
471
453
441
435
416
431
453
469
471
475
515
530
515
487
478
478
476
469
458
457
460
464
461
464
462
463
463
468
488
502
498
485
471
473
473
463
466
469
460
456
453
471
490
491
486
492
496
491
492
494
501
502
492
469
459
456
452
460
461
465
475
480
481
481
484
491
490
509
505
469
477
499
508
499
493
489
490
493
508
521
501
478
483
496
499
501
491
481
470
471
484
481
487
500
495
487
494
494
496
504
497
478
495
531
552
555
526
502
501
514
527
532
531
530
534
526
514
515
501
479
478
498
509
506
497
495
486
486
494
490
475
482
484
490
506
488
470
454
455
448
443
464
474
471
469
473
475
473
470
463
464
470
479
462
451
469
478
452
437
459
457
469
474
482
480
476
473
486
482
478
480
475
472
476
482
476
467
462
471
478
468
463
471
470
462
441
428
431
433
434
439
439
452
454
465
475
481
478
482
499
513
535
585
639
663
686
731
789
845
866
880
911
940
965
990
989
989
988
988
988
988
988
988
988
988
989
989
989
952
905
837
767
705
673
623
524
422
357
295
258
219
177
151
133
133
153
145
147
154
179
192
188
222
291
319
320
331
346
360
364
357
353
369
393
403
392
387
385
388
392
397
381
383
394
394
382
376
395
412
421
410
400
381
375
388
393
383
400
411
423
433
433
428
424
427
430
437
448
460
451
439
437
438
445
451
443
420
412
428
442
449
444
459
463
453
457
454
462
489
498
486
460
436
433
470
475
451
429
421
420
425
454
478
488
469
468
473
468
448
439
430
444
465
497
534
536
524
522
516
512
518
522
516
510
485
477
483
495
480
480
487
489
466
481
515
528
529
522
519
507
508
502
484
489
518
537
545
547
541
536
534
529
536
545
542
539
547
547
548
563
595
567
548
552
550
546
550
557
561
567
586
585
575
575
577
591
590
587
589
590
603
589
600
603
590
588
588
594
594
594
598
590
574
579
588
587
577
566
568
583
592
596
603
602
610
611
601
579
561
559
551
561
584
602
578
566
573
578
577
572
571
569
552
547
539
525
512
506
515
523
513
500
516
533
521
510
493
470
454
460
470
474
465
450
448
449
479
491
459
439
420
410
409
409
421
431
453
477
483
466
433
401
393
402
401
397
381
390
397
398
427
424
415
408
422
411
396
391
388
384
398
405
395
395
401
396
387
383
380
396
403
397
391
399
407
401
400
401
401
399
400
388
398
419
416
415
402
397
405
418
424
405
397
414
442
445
430
412
423
442
423
414
397
401
409
422
420
418
425
420
412
415
435
443
445
450
447
445
445
437
424
411
431
446
434
433
432
426
429
448
449
440
441
446
456
467
464
459
446
443
446
444
447
446
451
453
454
458
447
447
456
461
460
448
446
453
448
459
467
480
498
498
465
446
446
448
450
448
439
438
437
452
449
450
470
464
461
468
482
480
466
453
455
469
484
471
454
453
466
462
441
441
443
442
446
456
484
494
479
463
451
446
438
443
453
454
443
448
484
502
492
483
475
468
479
482
482
480
461
443
444
455
465
450
445
452
453
448
465
463
477
481
463
454
463
464
466
469
472
475
473
453
427
432
444
471
488
481
472
490
498
490
478
484
493
494
488
477
466
450
453
456
455
463
461
446
438
443
452
443
439
444
474
503
488
469
469
467
463
472
478
478
469
461
472
464
444
445
470
493
489
484
497
529
547
499
461
459
452
462
478
470
467
476
475
467
471
470
471
478
472
462
463
472
473
470
482
488
483
491
506
501
486
483
488
496
478
477
485
498
498
498
494
482
482
481
476
458
480
503
517
511
480
455
448
480
523
549
534
524
517
504
503
498
495
509
521
517
516
512
521
532
547
552
539
525
519
517
509
499
501
497
512
519
514
510
499
500
497
492
487
477
475
485
483
473
459
454
437
424
417
423
454
468
458
464
473
487
497
486
471
458
461
469
471
462
461
467
506
504
508
516
482
458
456
460
473
465
464
452
443
447
459
465
456
458
476
481
470
462
469
475
484
480
464
461
460
456
454
451
441
433
441
448
443
445
457
464
461
466
480
492
507
513
527
538
554
584
621
659
703
760
809
864
896
901
914
948
982
989
989
989
988
988
988
988
988
989
984
937
909
881
843
810
782
722
635
565
522
475
424
360
303
248
194
160
147
162
148
157
181
189
206
226
227
231
242
258
277
293
297
307
328
339
352
366
377
379
384
384
385
394
412
428
426
417
413
414
413
418
423
428
427
420
432
441
440
421
419
425
455
452
432
427
411
401
435
462
464
460
446
454
478
474
451
450
443
460
479
476
467
464
461
468
474
467
466
455
451
451
446
439
439
440
438
463
488
500
496
492
474
467
463
470
464
464
491
477
463
461
466
462
460
480
485
479
488
504
509
502
494
492
484
496
505
504
487
492
513
507
511
519
493
499
502
503
522
538
532
516
499
483
487
495
502
519
528
518
513
515
529
543
536
533
547
566
581
574
564
567
558
538
547
554
562
559
555
540
553
560
569
587
597
587
567
552
551
565
581
593
599
592
597
600
603
587
570
578
574
569
589
594
595
594
592
588
596
617
621
615
617
607
598
597
598
594
596
604
591
585
581
564
555
567
574
576
560
542
538
533
525
537
540
542
531
530
535
545
545
545
539
531
531
515
514
521
513
514
515
504
494
475
455
434
441
457
457
464
476
461
436
434
447
438
422
427
439
441
423
418
417
414
420
417
411
397
392
397
407
420
423
446
436
428
416
382
370
376
380
380
395
410
410
410
390
368
380
385
381
388
407
409
402
396
403
402
405
425
440
430
421
421
421
409
402
409
400
399
404
410
428
428
431
418
418
428
432
446
456
454
446
414
383
396
404
410
415
426
422
422
427
423
424
430
433
419
413
449
477
484
458
432
438
443
434
424
430
430
445
443
456
462
453
460
465
453
453
470
464
454
447
456
460
448
442
443
440
437
445
449
450
450
449
452
464
470
467
471
460
449
445
447
459
453
435
429
428
452
467
471
466
463
467
467
450
438
446
452
451
449
445
447
437
440
452
454
455
451
464
484
480
473
477
489
494
478
463
460
456
462
471
458
443
458
455
447
478
501
506
487
480
473
466
449
451
462
454
465
486
478
462
451
456
445
444
459
452
455
464
463
459
467
472
467
467
461
461
457
460
471
474
479
467
464
475
486
479
471
475
470
455
459
472
456
440
438
453
470
476
487
483
470
470
462
451
444
471
491
477
470
479
488
480
474
460
455
460
478
477
464
467
477
476
474
478
491
480
470
469
477
470
461
460
470
470
476
487
493
488
483
483
490
483
473
459
462
471
491
516
507
507
513
502
495
494
485
487
492
489
480
481
483
473
472
489
492
486
473
476
488
491
496
496
498
515
529
532
531
518
523
525
525
527
532
529
523
519
512
504
526
524
524
525
524
516
496
489
496
505
518
504
495
487
480
486
487
475
496
499
471
442
418
429
449
454
454
458
470
482
488
492
485
472
454
446
446
466
473
468
462
457
449
444
451
458
469
467
465
463
458
455
460
465
463
450
457
454
462
476
490
480
465
455
448
441
460
467
459
450
446
446
441
433
436
426
426
429
444
475
512
526
515
505
507
530
543
569
603
614
649
696
760
806
838
874
896
882
892
921
943
971
986
990
989
989
989
989
956
906
866
838
830
820
777
732
672
593
536
526
510
471
423
352
278
213
175
164
156
156
175
198
204
212
218
240
249
247
269
296
294
276
293
338
353
371
397
402
399
396
407
416
417
412
404
408
414
406
412
430
457
454
436
431
437
443
442
423
436
431
408
414
438
470
473
455
448
434
404
399
422
434
462
475
486
472
452
443
446
456
465
473
481
470
462
453
463
480
485
474
463
450
453
456
449
446
464
484
502
497
492
487
479
485
478
478
500
493
490
505
527
526
500
489
482
503
505
490
488
482
490
484
468
476
495
500
489
498
503
503
489
483
490
512
521
499
494
514
514
522
541
548
531
511
514
528
527
509
485
501
526
530
528
519
541
552
529
534
548
557
555
555
556
576
572
562
556
555
554
557
564
560
562
565
559
559
556
557
557
564
583
611
614
594
580
582
593
580
552
559
571
575
563
618
645
620
605
588
572
587
612
609
608
593
575
574
571
571
567
568
571
570
556
557
579
593
589
577
575
564
555
546
549
546
552
558
556
546
542
534
517
521
525
532
537
512
500
503
493
467
461
459
457
446
436
446
464
470
463
465
457
444
450
453
443
432
420
427
428
420
424
413
404
403
410
423
414
398
388
397
414
404
388
385
404
428
423
423
402
392
387
388
376
363
377
383
390
404
410
407
410
430
418
389
369
360
401
430
430
409
404
397
391
392
393
396
397
395
398
413
424
412
403
422
424
431
433
426
420
403
420
444
440
428
423
406
405
425
447
466
471
459
440
434
425
436
460
469
478
462
458
467
464
443
433
435
443
443
448
454
455
456
456
461
454
452
451
448
432
430
448
450
447
428
445
458
452
449
463
484
474
458
439
452
476
492
479
444
428
438
444
452
438
437
444
457
458
455
456
457
456
435
420
426
450
452
452
472
465
451
452
459
459
460
453
431
435
449
460
458
444
441
448
459
452
450
440
450
479
494
493
488
485
471
459
453
453
453
453
447
438
438
470
489
484
487
484
494
490
474
467
462
464
465
463
464
465
463
470
476
462
459
461
467
474
484
480
470
440
415
431
459
470
469
454
457
461
458
454
460
451
460
475
488
478
465
468
479
482
450
439
447
459
467
469
478
474
463
474
474
446
436
446
461
477
495
492
470
469
486
508
506
488
491
506
514
524
514
476
466
459
452
445
462
465
476
476
464
464
491
491
478
488
510
523
514
510
514
517
513
505
513
509
513
522
512
501
511
518
513
517
517
516
514
520
525
510
484
501
529
534
535
521
517
514
496
478
475
477
479
486
469
459
459
462
454
474
484
485
504
480
436
433
447
448
463
467
473
482
464
443
438
443
450
450
445
452
481
480
464
450
445
433
436
441
447
451
444
463
468
462
450
454
448
443
464
483
484
471
454
465
476
471
448
467
482
470
459
442
424
427
421
420
434
457
484
511
519
535
551
547
546
558
596
645
692
730
808
856
874
901
927
937
951
982
989
989
989
989
989
989
990
989
956
922
904
878
828
798
746
682
624
567
525
478
429
382
327
269
238
210
182
161
166
166
159
163
166
191
232
260
283
287
288
304
313
313
317
332
346
371
396
411
413
414
421
421
427
425
406
406
408
416
417
414
404
395
397
416
434
423
428
428
448
472
478
460
439
433
442
446
459
465
468
464
430
431
438
431
437
446
452
430
434
442
425
448
471
481
474
480
499
502
485
464
451
428
420
443
480
484
481
479
483
479
467
464
478
478
470
485
492
497
510
495
467
461
469
447
451
471
489
497
492
476
477
483
489
467
466
486
475
489
503
519
530
524
528
528
526
501
482
471
479
508
509
497
493
510
502
529
565
569
550
530
511
508
516
501
496
522
540
558
560
548
555
563
559
561
564
566
551
540
543
538
538
553
564
561
565
568
573
571
590
601
604
604
585
574
594
607
603
601
599
582
573
570
574
576
593
602
601
591
599
603
598
601
606
604
604
599
597
580
573
572
566
548
536
531
522
521
554
582
577
562
575
571
552
527
534
556
542
519
495
502
543
539
525
505
492
490
486
484
476
477
486
473
473
476
462
440
452
459
452
454
451
433
439
441
437
428
418
416
416
423
422
415
408
420
411
391
377
380
394
394
379
378
380
384
396
405
416
412
399
380
399
417
417
428
428
431
422
412
373
400
446
425
385
387
403
393
387
388
405
414
392
385
399
415
429
436
434
429
427
403
398
413
419
419
430
423
423
432
430
416
432
452
445
423
413
429
429
416
413
422
422
424
419
431
445
441
451
444
439
442
456
440
437
445
438
439
443
444
441
448
450
445
441
445
444
433
433
441
449
451
441
448
455
456
462
477
489
479
460
447
431
420
441
442
437
429
430
455
468
475
479
462
459
473
476
463
434
446
466
461
453
447
447
449
443
438
454
464
453
455
462
449
451
453
453
466
470
469
459
455
449
457
454
442
455
471
464
443
449
467
477
471
444
424
417
410
440
500
515
495
473
475
473
475
486
474
460
462
469
489
492
481
478
476
477
482
472
470
468
467
455
444
446
455
487
485
478
480
475
470
455
447
449
461
468
486
481
463
463
460
475
469
451
450
472
460
457
486
514
514
498
476
462
444
434
445
459
459
464
458
459
463
455
440
422
422
430
449
483
505
502
497
492
476
472
490
490
474
470
456
447
459
470
471
476
481
495
520
518
516
500
473
456
457
457
483
522
515
492
495
504
496
493
493
498
500
496
491
494
486
484
494
501
507
500
497
507
511
507
496
486
492
498
502
519
537
526
519
519
544
550
534
520
503
497
503
497
497
510
512
509
507
491
460
460
467
447
432
444
447
470
486
487
461
471
470
430
427
448
452
449
432
418
431
455
449
445
462
471
482
491
486
463
443
439
444
466
487
477
467
446
453
467
458
448
442
459
479
486
474
472
468
460
470
474
473
468
471
462
442
440
431
419
406
411
411
408
423
441
447
481
509
522
531
539
563
594
625
643
668
686
731
785
827
837
885
939
966
989
989
989
989
989
989
988
988
989
989
962
914
878
848
847
858
831
761
667
592
529
476
431
380
330
277
223
174
168
184
191
191
187
190
217
225
228
232
239
255
272
283
305
324
337
344
345
368
382
387
394
397
391
397
403
407
410
400
395
410
420
424
426
419
421
418
408
418
426
427
414
402
419
424
426
423
436
442
433
416
439
484
483
446
431
437
438
445
445
462
479
465
455
473
450
408
420
416
423
439
483
502
503
485
479
470
458
479
469
488
468
452
449
448
457
466
482
489
486
472
453
456
464
468
483
502
496
487
489
484
480
463
444
465
486
510
504
485
476
467
480
492
498
494
505
519
511
496
500
511
514
514
513
513
516
508
524
533
537
537
530
523
514
513
517
532
541
529
515
521
510
511
558
582
565
554
538
516
520
530
557
572
562
564
564
576
569
566
560
555
583
614
598
578
579
590
597
607
599
589
601
602
585
578
565
573
591
587
593
597
582
556
550
579
588
580
579
587
597
611
609
599
595
592
572
563
563
553
537
543
564
570
567
552
532
524
514
497
504
512
514
510
521
525
523
531
517
503
496
490
489
492
471
465
482
483
463
447
428
423
428
435
444
452
441
433
432
443
440
427
425
403
380
368
361
382
418
449
445
413
394
385
363
382
404
422
431
437
411
389
371
390
422
424
421
422
403
391
400
401
413
430
430
415
390
379
386
409
416
414
415
415
409
404
414
402
404
404
413
426
428
421
418
418
415
414
402
396
390
396
423
438
437
433
430
441
449
456
486
451
416
410
414
419
434
449
444
442
440
441
435
431
447
468
462
432
426
423
440
445
432
439
447
462
459
444
431
431
423
414
401
412
439
457
472
480
493
483
475
463
468
465
456
462
477
492
477
460
469
467
453
451
447
458
468
478
462
433
433
462
480
481
469
461
471
487
467
446
444
447
453
450
456
455
455
462
444
432
444
464
467
461
460
453
449
453
449
452
452
453
454
459
447
449
467
476
468
450
435
441
450
454
468
470
482
498
487
481
458
456
450
444
440
462
480
492
496
485
477
462
458
464
456
455
454
463
466
468
457
446
446
443
449
445
438
445
466
484
483
485
490
515
504
485
469
491
504
479
451
444
449
462
473
475
458
456
458
457
464
471
471
477
479
482
498
497
485
470
452
441
435
455
479
480
460
469
488
489
481
460
475
477
472
475
486
485
479
470
458
462
469
464
460
465
463
454
456
468
490
508
480
454
463
488
498
494
492
494
493
490
452
452
493
507
493
483
495
501
505
498
480
463
465
485
492
483
473
470
474
488
500
485
484
497
530
515
477
476
489
505
500
493
511
513
500
523
530
521
523
517
499
496
481
466
489
520
543
543
546
544
537
517
517
539
532
517
503
494
489
478
458
468
492
486
463
457
449
439
459
489
490
483
470
471
469
449
444
455
476
464
453
444
452
475
455
450
460
457
452
449
450
465
487
462
459
462
441
434
447
454
432
443
471
490
486
468
461
470
465
458
468
472
454
443
465
453
454
480
462
442
425
435
441
437
456
466
464
467
476
502
507
518
539
562
595
631
678
733
767
788
809
832
880
905
931
971
990
989
989
989
989
988
988
988
989
989
972
952
953
911
857
827
785
734
686
605
516
454
396
337
285
222
173
163
157
162
190
214
227
202
185
202
212
241
263
272
293
299
309
329
356
378
383
373
376
389
388
392
393
394
389
385
400
416
412
416
408
398
408
419
417
420
424
422
424
426
418
409
400
393
404
415
419
428
415
413
421
446
458
451
445
436
435
430
452
496
488
458
453
440
426
437
450
456
456
435
437
475
503
496
479
465
453
456
468
476
476
474
462
459
458
449
449
461
451
461
500
509
510
525
505
471
458
459
479
486
483
470
466
463
460
457
463
466
481
494
508
509
486
463
463
481
497
501
510
504
509
498
520
523
515
516
512
505
510
508
514
515
514
520
544
547
539
537
551
547
537
541
562
557
553
540
519
520
516
520
539
550
557
560
570
583
589
596
590
576
573
586
594
594
581
571
575
592
614
627
618
607
604
617
600
590
592
594
602
607
611
602
592
599
591
559
534
526
573
595
588
581
580
566
541
522
524
528
552
562
569
577
577
550
536
529
530
515
507
517
512
517
523
522
527
515
508
513
511
500
477
452
444
455
451
468
463
436
435
440
440
426
423
444
466
473
447
420
432
466
448
436
427
417
441
462
440
430
399
394
398
391
382
375
393
405
402
403
405
396
391
387
396
400
395
391
380
382
396
408
406
398
401
407
402
410
404
401
396
377
386
404
412
411
412
419
410
409
416
413
402
415
439
441
426
425
416
430
442
427
415
418
439
441
435
416
417
432
428
420
419
420
431
440
445
442
439
457
452
440
423
425
428
433
434
437
434
420
412
422
419
449
452
445
452
467
482
465
435
436
456
449
456
459
454
440
434
452
465
467
459
455
449
447
441
448
456
438
432
449
474
491
466
442
426
434
437
448
467
469
470
477
453
452
461
464
458
452
453
456
459
469
478
476
470
469
453
436
435
445
456
458
464
463
469
476
481
487
467
450
467
477
472
473
466
452
447
453
449
464
462
452
454
467
475
472
461
462
467
453
444
420
407
411
423
459
496
485
458
450
449
454
462
469
478
492
499
488
469
450
458
484
483
463
455
462
478
483
474
463
463
462
463
463
472
482
503
505
483
474
467
456
465
467
455
456
458
462
451
459
463
452
464
473
461
467
463
463
460
453
465
475
464
466
494
497
479
466
481
491
489
471
448
435
458
490
506
492
476
482
487
470
464
461
467
475
480
476
481
484
485
491
471
449
436
432
443
456
470
486
486
472
475
469
462
450
451
450
447
460
479
493
505
508
505
511
504
492
495
495
501
501
498
487
489
479
481
516
515
499
482
499
485
483
480
482
488
483
488
499
499
478
470
471
466
486
500
498
511
521
538
522
508
497
487
500
507
505
509
496
501
504
504
527
537
521
512
517
507
506
495
491
496
501
483
469
485
496
513
503
510
515
495
483
464
435
427
440
446
448
427
425
438
443
448
471
474
473
487
480
488
474
441
453
473
480
493
491
493
514
508
475
443
445
457
473
485
479
472
453
444
454
472
477
475
466
463
470
465
458
453
463
459
447
443
444
441
448
436
429
421
412
414
426
444
449
456
458
457
476
493
528
567
589
602
618
657
707
748
770
801
821
866
911
959
989
989
989
989
988
988
988
988
989
989
989
989
987
943
906
879
848
788
731
649
597
530
452
390
332
276
229
187
140
120
126
163
188
202
213
242
260
278
283
285
275
266
274
287
327
341
348
348
357
375
385
386
399
419
433
434
439
423
402
399
398
406
402
393
409
436
443
410
389
400
414
427
427
420
398
402
418
427
438
427
415
409
417
427
436
426
415
419
419
422
448
468
455
455
463
467
457
452
460
466
465
458
442
441
437
446
446
438
440
446
471
493
489
477
463
471
483
483
477
470
465
456
448
435
448
454
482
492
492
492
487
491
511
511
496
485
485
494
494
493
485
489
481
473
483
506
516
529
542
536
541
524
509
508
512
531
540
548
533
509
487
479
494
522
527
505
495
515
513
516
535
547
549
539
532
547
551
561
562
572
564
547
554
554
561
556
550
568
579
581
588
600
612
602
591
596
589
576
563
584
599
610
606
605
598
580
574
583
576
585
589
586
590
593
585
580
575
581
589
573
575
586
594
594
593
581
575
563
552
547
534
537
536
551
552
548
575
557
553
549
528
521
527
516
500
486
509
537
543
542
539
509
500
513
490
484
467
454
443
442
442
428
426
422
444
438
420
419
419
414
409
417
418
396
390
398
396
427
427
407
398
390
384
388
401
402
404
396
399
413
423
427
435
435
401
381
385
388
381
362
360
379
389
392
404
406
411
415
419
421
406
384
373
376
391
413
417
425
433
466
475
451
445
447
422
409
409
396
399
401
434
451
453
437
411
426
427
431
437
435
429
430
433
425
402
410
437
481
490
483
434
416
431
450
441
431
414
422
454
460
441
432
430
439
432
429
439
460
464
459
464
460
453
447
438
445
446
448
445
450
453
454
454
451
447
426
423
444
438
438
451
459
453
448
442
450
445
449
453
453
473
465
450
450
455
460
470
469
456
457
473
486
467
476
460
451
455
463
449
426
434
450
458
441
442
441
441
455
473
485
483
487
475
457
454
478
486
488
483
479
479
485
478
461
453
444
452
469
470
452
462
475
476
483
475
465
455
452
447
442
466
489
496
468
451
439
446
456
458
445
459
478
468
458
453
460
474
479
469
467
473
473
476
462
450
466
467
470
478
488
480
471
460
468
460
468
469
460
464
465
462
459
462
464
462
460
460
463
460
455
449
450
449
448
450
465
476
497
512
509
502
497
493
501
516
511
505
488
468
466
471
478
474
467
458
455
454
453
455
460
466
468
455
454
464
478
497
501
495
483
480
470
456
448
447
470
477
498
491
486
486
494
488
481
486
485
494
500
491
488
493
507
509
514
507
516
502
491
483
496
510
500
491
472
462
451
470
488
501
482
470
475
497
507
506
508
509
496
483
492
522
523
497
501
521
522
518
530
535
538
530
521
513
521
523
495
464
472
487
504
523
516
507
511
504
498
508
492
473
468
465
466
464
455
458
469
467
443
437
476
505
498
484
464
439
451
465
458
474
482
472
473
478
481
470
452
443
463
471
470
457
462
459
466
483
476
475
479
469
458
451
467
479
494
477
454
442
456
459
445
432
437
431
436
438
436
456
472
478
460
427
430
444
447
441
463
499
495
513
548
584
606
638
683
727
758
797
844
882
913
948
987
989
989
989
988
988
988
988
988
988
988
988
989
989
966
933
908
866
789
714
638
567
512
471
416
362
303
245
197
152
138
147
155
174
179
197
214
236
246
247
247
247
255
266
279
305
330
347
360
374
397
389
380
404
432
427
411
408
412
405
392
405
409
403
405
402
404
411
414
413
404
394
397
423
431
427
413
407
416
419
437
440
453
454
451
435
411
411
435
440
427
439
446
443
443
442
427
411
414
455
467
467
489
488
466
462
463
468
478
495
496
495
479
467
470
458
446
444
445
475
498
506
495
451
444
471
492
493
472
468
464
469
484
495
481
478
486
498
491
481
478
489
503
513
510
498
486
483
488
504
517
504
516
535
534
500
502
522
523
489
493
535
532
525
531
528
523
520
527
536
547
543
536
542
526
533
524
539
559
557
578
589
596
582
558
564
591
601
592
569
555
551
570
591
587
591
580
564
555
565
580
589
613
624
624
616
615
613
615
620
617
607
592
605
613
609
616
624
602
588
581
576
565
549
566
590
592
595
574
546
542
553
565
575
575
545
535
535
517
503
513
532
531
525
508
519
544
543
529
510
493
470
466
476
468
473
487
474
457
454
466
466
454
449
454
460
442
427
421
404
394
387
369
383
408
453
461
456
435
413
390
392
414
404
395
403
408
405
387
389
399
406
404
394
389
374
382
394
388
402
396
396
406
418
417
414
420
409
401
409
411
405
400
381
381
398
421
428
435
425
406
413
423
404
397
403
409
409
416
422
421
406
422
464
466
447
416
414
434
430
422
414
414
414
427
435
436
446
453
454
437
431
439
426
439
448
446
428
437
438
436
431
419
419
423
427
435
453
490
481
467
464
468
469
459
455
452
458
467
457
449
446
453
458
462
457
452
450
451
452
444
449
450
448
439
464
491
483
453
436
455
458
440
443
459
471
477
459
455
456
433
420
421
436
453
460
457
467
489
489
486
473
461
482
494
476
446
428
432
448
468
486
476
473
468
464
467
468
476
466
463
481
475
444
435
444
454
466
465
465
460
451
451
457
461
467
466
459
458
452
454
455
453
453
452
463
455
458
474
469
480
486
489
484
478
474
468
461
473
480
465
456
473
470
467
469
467
463
464
474
473
455
443
451
463
468
485
498
486
468
444
429
432
457
474
484
465
478
484
463
466
485
496
504
497
483
480
503
515
487
470
458
444
433
437
463
483
504
506
485
473
478
492
486
470
463
462
458
465
470
477
478
489
493
481
468
457
455
459
470
466
470
481
489
499
481
459
458
464
469
469
464
474
481
491
486
473
468
472
488
491
495
487
464
467
483
495
501
497
499
498
497
495
506
517
513
504
485
464
471
473
464
487
511
497
498
506
500
493
504
493
479
460
450
470
530
544
506
479
487
511
514
513
519
524
526
523
521
522
527
526
520
532
543
518
508
510
527
507
490
487
482
462
454
465
481
494
505
505
498
473
462
463
463
464
469
472
474
472
472
479
480
476
458
451
457
467
467
472
470
466
476
479
472
471
460
442
451
446
449
470
477
481
492
494
476
476
473
473
474
482
476
482
496
486
467
445
437
452
458
462
466
464
457
446
438
442
432
429
434
420
428
455
479
489
488
495
503
516
528
554
602
636
666
685
706
752
813
850
860
880
933
990
989
989
989
989
989
989
989
989
989
989
989
978
971
963
904
831
784
732
675
612
555
492
424
374
320
251
200
173
132
129
146
172
189
204
219
236
239
256
258
263
279
314
318
313
330
346
346
368
366
387
395
401
410
405
390
392
404
407
387
376
385
396
406
398
388
375
374
381
399
429
441
421
406
413
412
408
406
423
462
479
456
427
430
445
444
444
451
453
451
445
441
448
454
457
461
461
455
445
436
441
448
480
480
454
442
446
467
473
484
488
480
474
457
457
464
468
479
482
492
494
476
465
467
468
474
485
487
480
477
482
484
487
487
494
495
490
482
510
534
523
517
520
528
512
498
502
515
520
510
499
473
471
480
486
509
522
514
499
495
496
512
527
549
567
557
542
533
533
513
510
514
529
545
551
541
549
564
566
551
552
570
558
560
568
571
572
568
579
592
600
597
596
605
623
599
575
579
595
597
590
602
619
615
593
578
574
570
579
598
611
598
602
595
603
597
580
584
589
592
582
577
576
576
561
558
576
591
579
551
561
560
556
542
551
548
543
551
543
541
558
548
512
501
540
552
515
477
481
491
493
489
496
512
521
503
480
465
458
437
431
429
428
448
445
424
413
397
396
389
395
405
419
436
433
416
416
409
403
401
399
395
409
426
421
424
413
393
385
389
396
381
385
400
398
383
409
425
423
425
403
394
408
429
427
422
414
394
395
394
402
381
377
378
388
405
424
419
408
407
416
415
408
415
414
421
433
432
424
416
428
437
431
409
394
421
428
434
455
455
446
466
447
424
419
425
438
464
467
458
465
464
463
465
457
445
441
434
438
431
414
409
441
459
463
453
447
446
456
455
454
447
437
447
458
444
423
416
434
450
447
461
477
478
462
443
444
456
457
441
434
443
452
451
450
449
458
459
437
420
422
438
