398
416
460
477
458
419
419
428
415
410
410
428
402
359
330
345
359
377
406
430
447
451
419
390
369
356
349
347
354
364
376
392
399
406
402
389
392
375
355
354
384
398
414
406
390
391
401
398
394
386
380
372
370
377
401
431
434
416
391
396
410
424
439
431
409
395
404
420
414
431
467
466
419
399
398
388
386
395
410
398
416
426
435
417
419
448
457
449
433
413
411
426
425
422
419
422
423
443
453
447
445
471
486
466
454
462
459
453
441
439
443
447
449
455
459
447
437
432
433
446
456
454
447
418
410
426
428
427
422
423
425
424
429
443
452
436
410
421
448
460
450
448
449
447
464
477
505
515
507
495
486
486
479
475
483
485
497
500
490
465
438
428
432
460
471
480
508
527
521
509
514
520
478
463
476
481
466
459
450
448
454
455
455
465
477
474
465
461
458
454
455
455
453
456
457
455
455
456
453
454
462
466
460
458
460
454
452
457
455
445
455
468
474
460
445
450
459
454
436
425
415
417
429
478
512
516
510
507
506
497
485
478
476
477
484
484
481
483
479
468
458
474
483
473
470
488
473
457
479
512
512
482
467
464
458
460
463
472
480
473
458
456
465
464
457
449
437
428
432
434
437
445
453
469
472
465
467
478
489
496
472
467
474
458
459
482
492
485
467
461
460
455
461
471
473
471
465
466
454
454
462
463
466
465
461
463
466
466
468
480
490
490
479
479
490
489
477
476
488
484
479
486
485
485
490
486
484
487
494
494
489
492
502
501
495
486
491
492
486
489
492
488
493
496
495
497
493
490
492
489
492
489
489
493
515
539
543
532
530
555
584
581
570
554
547
548
544
554
565
550
541
540
535
530
525
518
514
505
500
491
491
505
490
472
482
476
466
468
472
471
475
469
441
423
418
403
384
428
481
485
479
495
489
484
485
491
498
494
493
486
480
490
489
470
466
466
456
451
443
437
448
459
461
456
457
459
457
453
449
452
463
477
474
484
488
465
451
449
450
440
440
448
441
432
438
459
466
453
454
461
479
479
491
509
534
566
583
575
586
624
668
729
792
849
896
922
940
971
989
989
988
988
988
987
987
987
987
988
988
988
988
989
989
989
924
850
780
711
645
585
522
456
368
277
206
155
130
136
146
154
172
175
182
189
188
187
196
220
239
248
275
292
299
329
341
354
368
365
368
379
387
403
391
360
352
353
366
371
369
369
375
383
400
417
413
400
425
428
424
408
396
407
403
397
399
405
410
414
407
392
390
385
373
377
405
424
425
427
414
425
448
451
437
437
450
449
439
439
451
451
457
464
458
445
426
421
426
422
419
441
449
442
433
435
435
438
458
473
480
493
487
477
467
455
444
446
476
504
502
483
482
487
481
470
469
466
461
455
456
466
485
499
498
496
489
477
474
483
502
520
530
541
520
487
476
479
495
511
540
542
502
490
496
493
485
480
494
511
539
557
578
601
590
567
533
531
542
531
528
536
534
553
573
567
553
573
591
598
582
561
553
551
565
582
599
633
647
646
617
595
602
617
630
643
642
620
609
600
587
567
576
581
554
539
553
584
600
594
601
594
591
581
565
547
549
567
591
592
572
564
559
569
574
569
563
561
539
508
517
555
544
520
491
480
485
508
516
513
518
520
518
525
509
502
487
462
448
450
420
402
411
405
392
380
393
411
424
428
446
451
448
446
455
458
448
440
425
430
426
397
382
384
378
367
373
390
400
372
344
374
407
428
437
433
429
428
439
450
443
420
408
411
386
364
356
364
376
387
391
396
404
418
415
409
408
405
407
418
408
388
380
372
368
381
398
413
423
393
389
413
429
438
445
457
448
430
419
411
406
412
422
418
415
420
420
409
407
418
435
445
435
437
433
422
409
422
451
461
462
479
497
482
455
435
433
457
477
459
445
462
461
448
450
447
448
458
475
489
478
457
455
452
449
453
448
457
462
459
474
484
505
497
465
459
456
454
431
392
395
405
389
372
372
380
423
499
519
493
470
462
471
486
465
466
514
549
541
494
438
423
441
451
468
476
490
494
484
476
476
487
493
487
477
469
465
466
468
463
465
468
465
459
457
456
468
477
472
467
452
443
447
462
476
496
499
480
462
455
447
452
473
477
490
489
487
466
447
437
436
460
474
472
455
441
431
432
436
443
452
467
467
460
462
456
455
473
485
487
487
484
481
481
459
438
442
453
447
450
460
463
465
459
462
461
441
440
451
454
451
442
440
448
460
464
448
439
443
448
451
507
537
527
522
509
508
518
520
511
500
489
465
441
437
441
455
459
456
459
468
485
484
468
468
470
471
484
496
516
536
530
536
532
491
457
489
525
531
536
524
506
493
473
475
479
473
483
496
485
477
490
492
489
479
473
483
496
500
486
488
521
545
533
519
515
520
532
546
540
510
479
469
489
489
488
491
494
494
507
506
506
499
488
490
496
504
490
472
459
465
465
460
466
470
473
460
459
473
478
483
486
489
477
474
478
487
480
495
491
490
481
441
427
443
441
446
460
456
436
427
429
440
444
444
437
446
465
467
458
453
452
453
451
443
444
449
454
463
464
462
463
480
491
492
494
494
480
456
438
436
432
439
449
451
450
441
431
447
483
510
523
523
523
563
593
635
656
682
728
767
814
848
869
889
918
955
990
989
989
989
989
989
989
989
988
988
988
989
989
949
887
841
807
752
700
649
615
565
508
438
367
293
246
228
208
178
133
127
147
160
169
184
194
204
238
254
259
269
283
306
318
341
377
382
391
416
431
441
430
432
421
418
417
406
401
398
391
395
401
406
406
414
414
417
428
438
430
423
422
424
428
417
412
404
424
443
450
450
452
455
452
439
426
436
440
440
446
449
439
416
423
438
434
423
414
410
404
429
449
455
466
507
522
515
494
483
467
445
424
433
462
486
499
489
486
496
484
481
482
481
487
512
525
526
518
497
478
468
456
436
446
459
443
427
423
428
439
434
432
443
457
463
466
484
516
535
497
476
466
451
442
432
444
472
512
543
535
531
518
504
498
508
524
529
524
523
535
545
545
554
551
543
526
510
511
500
486
475
498
517
552
561
545
542
547
564
564
575
591
582
558
553
569
583
619
639
636
620
616
614
591
561
524
514
543
572
608
615
622
628
616
590
583
598
605
585
549
524
533
570
600
610
588
605
638
635
606
578
545
534
534
540
546
560
569
571
553
548
543
532
522
491
456
441
459
507
518
500
490
498
495
490
482
466
461
453
451
450
442
429
415
402
408
412
405
398
400
399
396
392
402
401
397
388
386
387
390
393
377
371
373
380
382
398
405
396
387
389
388
379
360
345
350
347
367
380
391
420
447
468
466
460
466
448
436
441
454
429
396
384
369
358
360
385
419
413
405
403
425
430
433
413
413
401
402
408
403
397
386
394
403
410
417
422
440
463
448
428
419
426
434
429
429
429
425
425
424
427
437
442
451
463
454
433
420
415
404
405
417
425
438
458
463
452
440
433
423
430
439
440
434
428
401
416
436
437
458
468
448
451
452
460
452
448
439
438
460
492
489
482
467
460
464
467
485
483
462
451
440
422
424
435
412
410
430
438
441
468
488
496
481
479
481
466
472
490
489
511
520
532
544
524
508
506
490
477
476
482
481
468
468
485
519
527
504
470
449
447
455
434
428
438
449
451
466
483
480
455
435
436
431
464
499
494
478
474
464
455
458
469
469
472
472
462
455
467
455
442
451
446
433
434
444
450
483
516
514
485
462
453
444
442
451
449
450
457
468
468
467
480
485
484
483
480
475
475
468
479
484
480
465
475
480
494
500
500
488
464
465
488
492
481
483
495
489
482
477
484
487
488
519
527
516
516
522
499
492
491
503
509
493
464
448
449
467
501
515
517
505
513
502
493
499
498
480
474
472
475
478
491
497
478
471
465
460
460
504
543
549
525
500
471
451
491
507
505
538
532
502
470
476
495
482
471
476
487
488
476
482
481
476
471
494
515
514
487
478
478
478
472
462
460
460
450
462
490
484
475
465
475
495
491
493
505
506
495
499
508
491
469
464
472
476
463
464
469
479
480
476
467
461
458
456
457
450
440
461
464
449
437
438
450
466
476
462
453
453
450
462
495
527
531
533
579
627
666
710
748
796
823
852
904
917
926
972
989
989
989
989
989
989
989
989
970
947
910
888
839
783
766
766
769
711
638
571
556
537
463
389
325
267
231
176
129
150
183
201
212
219
228
254
302
311
295
286
284
291
312
315
339
372
397
419
406
405
411
405
403
382
367
386
391
388
377
370
393
435
464
476
456
439
434
419
399
386
387
414
440
445
428
421
445
451
454
459
468
457
451
465
487
472
450
444
447
434
423
441
444
441
444
444
448
451
459
455
453
454
460
464
455
457
462
476
476
476
460
461
485
500
511
507
516
518
513
505
501
485
486
496
493
499
492
498
492
503
513
504
497
497
496
497
503
508
494
481
492
493
495
499
504
510
497
500
489
475
482
488
497
501
519
529
531
511
506
509
510
510
506
518
552
566
560
560
544
522
518
526
546
529
541
548
547
561
566
573
569
571
532
528
533
537
556
553
551
554
540
526
535
564
566
572
588
579
566
559
555
556
583
624
643
644
628
605
593
589
580
577
574
567
575
599
609
602
587
570
578
580
584
580
567
572
556
550
576
598
571
564
569
575
591
598
587
575
585
588
516
451
452
488
509
516
489
483
484
491
476
453
429
429
470
481
490
476
466
469
457
446
448
461
480
467
460
471
451
418
411
407
390
386
385
376
375
377
381
389
406
423
434
414
395
394
387
394
401
393
410
412
396
376
368
371
379
390
414
417
411
427
426
425
411
400
385
385
385
375
375
381
397
405
419
419
420
424
421
395
394
427
455
455
449
433
390
385
406
414
437
452
449
401
357
368
410
409
414
430
439
438
458
466
460
446
441
438
407
395
412
448
451
443
445
433
427
433
443
451
457
462
456
463
471
474
456
444
441
455
449
437
432
444
455
477
494
480
419
383
388
423
459
472
443
425
435
461
479
468
459
440
434
423
430
467
478
463
453
455
472
479
469
472
473
482
477
483
473
467
495
490
498
504
503
496
480
456
452
441
442
442
469
485
486
488
463
468
483
485
473
492
506
487
457
448
451
448
454
469
496
493
460
450
448
467
462
449
453
475
491
519
515
500
500
502
506
505
503
495
485
480
480
495
498
491
482
491
477
489
495
472
474
501
488
459
463
477
454
437
431
451
465
480
474
461
468
478
498
533
559
537
508
507
516
519
546
527
513
527
541
532
506
481
487
489
464
466
473
466
463
474
472
485
476
466
460
446
450
459
458
481
499
511
509
470
456
458
488
505
498
499
492
484
479
472
466
468
474
486
471
468
464
466
446
457
479
488
462
461
473
475
492
498
497
491
481
488
488
488
490
481
465
448
452
461
462
480
491
497
494
489
478
473
477
482
498
503
489
488
470
458
468
487
490
455
443
460
482
493
510
539
544
546
551
564
583
636
694
744
785
790
781
803
840
867
903
957
976
960
949
965
985
987
980
964
949
924
885
840
782
738
709
669
627
589
562
524
469
424
359
300
251
224
4
435
463
460
441
439
431
412
404
398
3
469
448
435
428
429
438
427
415
411
422
438
461
455
434
420
417
435
463
460
441
439
431
412
404
398
405
9
448
435
428
429
438
427
415
411
422
438
461
455
434
420
417
435
463
460
441
439
431
412
404
398
405
404
419
442
459
467
461
456
447
441
448
450
435
435
434
429
430
441
461
454
441
434
425
417
423
448
464
467
466
467
455
458
455
453
445
446
444
421
440
462
468
478
500
496
474
470
476
470
471
464
455
440
452
447
447
453
451
476
491
489
486
477
486
472
459
452
432
414
410
441
475
482
476
472
462
460
452
447
458
482
501
501
481
483
480
479
477
476
470
454
435
425
422
405
431
479
513
527
512
477
446
428
420
423
428
472
496
488
488
509
512
506
484
458
450
470
487
490
480
459
442
429
418
458
502
512
509
507
502
485
480
486
483
475
461
480
523
519
497
461
452
464
477
485
465
450
444
437
448
478
505
510
506
512
510
500
515
537
535
526
512
491
490
492
491
488
499
531
522
503
506
505
508
488
479
462
435
404
382
400
461
512
523
510
500
501
494
469
445
443
437
456
484
484
471
462
454
458
478
469
460
449
435
421
418
469
503
474
445
444
465
490
502
501
493
468
461
470
474
477
480
462
446
444
449
442
479
474
481
490
485
481
476
459
455
455
447
448
449
445
439
436
428
411
397
377
375
376
395
414
410
420
456
501
543
540
515
521
553
585
605
622
647
689
729
756
770
787
816
845
907
945
961
956
955
969
982
990
990
985
963
944
930
908
880
866
824
771
752
706
642
586
542
511
459
391
329
278
243
214
200
182
179
211
236
250
268
289
286
287
291
304
308
317
347
380
397
398
397
387
378
386
390
394
399
405
408
402
420
438
428
398
388
391
395
409
410
395
375
365
361
371
398
413
421
423
408
424
442
443
447
452
445
428
422
409
394
400
416
462
484
481
465
436
428
458
465
481
493
482
470
464
457
460
474
478
472
461
446
431
426
424
417
418
417
432
434
427
462
482
494
525
532
511
490
478
474
475
470
470
473
465
464
476
479
472
464
467
478
476
474
471
469
468
473
444
431
443
469
484
495
493
492
500
498
493
485
494
512
509
504
516
505
490
482
476
460
444
472
509
537
526
538
556
551
540
546
550
538
521
520
534
553
554
539
518
521
531
543
551
556
555
546
535
524
516
504
492
514
511
509
512
534
561
584
567
549
543
538
528
526
520
515
506
523
544
537
528
528
532
521
505
501
493
494
503
517
536
534
501
470
472
498
516
512
509
522
516
535
525
483
472
483
482
469
483
523
507
468
460
485
477
480
474
444
441
479
510
514
517
515
498
471
455
444
438
427
427
428
414
432
441
437
451
456
456
461
451
433
431
437
432
416
412
407
412
424
430
419
432
422
424
451
454
440
431
425
416
432
449
441
449
472
487
473
458
449
449
457
440
418
404
417
460
479
469
445
429
430
454
474
464
465
451
443
429
418
425
447
457
453
452
465
468
451
437
422
414
407
412
415
449
486
519
509
500
491
452
426
413
410
429
442
450
440
425
417
427
424
402
419
437
437
434
435
415
427
459
479
514
527
503
466
440
426
433
457
486
502
525
513
492
478
470
471
478
478
482
482
472
455
442
441
448
478
486
495
484
465
466
475
486
481
469
454
454
471
461
445
443
437
427
423
441
453
446
433
434
460
474
462
464
476
500
501
476
453
451
456
464
471
459
456
458
460
454
440
437
450
472
471
477
486
486
479
459
432
416
421
435
476
534
549
518
502
508
493
472
472
504
515
495
478
464
455
447
463
477
464
455
455
466
484
489
501
504
492
496
495
485
475
464
457
459
449
441
441
456
485
472
445
455
480
498
487
490
492
519
519
507
494
494
484
485
501
488
481
479
470
460
451
438
430
453
466
461
450
466
505
500
482
481
473
435
425
482
524
532
565
581
583
579
566
543
522
511
499
485
472
465
467
468
491
510
516
504
486
491
499
523
532
490
460
455
455
472
488
482
472
466
469
459
455
484
497
460
451
448
446
449
442
433
426
415
409
420
422
427
468
497
511
500
497
502
503
488
478
458
444
452
454
438
449
472
481
483
481
472
456
433
437
452
473
474
459
459
473
489
501
491
473
464
455
445
432
445
443
422
414
415
422
458
511
533
514
498
502
507
528
548
562
585
637
687
719
759
784
807
825
847
854
873
903
921
949
969
982
989
989
989
989
989
984
949
909
874
829
794
760
707
651
590
523
491
444
397
361
313
262
232
210
194
184
178
182
201
240
268
278
292
306
306
306
303
354
389
381
386
392
406
408
405
401
397
387
388
399
410
400
386
388
406
435
444
436
414
403
425
462
459
460
475
473
457
447
427
410
397
396
402
396
390
402
429
456
492
479
455
436
447
473
484
478
452
441
445
436
435
441
452
457
458
448
448
450
438
442
435
437
450
453
453
446
444
442
442
436
440
455
472
489
508
498
482
480
458
458
471
485
493
494
481
468
470
491
487
466
476
488
490
467
447
434
446
480
510
522
516
501
499
521
515
493
491
514
531
504
502
523
530
536
540
531
520
514
493
480
485
492
505
479
480
488
492
503
517
502
492
508
534
541
531
518
532
535
521
512
515
515
513
505
504
509
526
529
516
500
502
535
547
521
507
505
502
506
524
539
551
570
581
568
565
561
555
542
546
530
534
543
518
498
488
493
495
518
533
545
547
525
500
510
535
542
521
508
516
512
505
494
481
472
478
486
491
483
462
443
448
471
497
517
532
529
514
497
490
498
499
484
462
440
429
439
464
486
480
475
468
455
443
438
431
435
442
466
494
464
429
418
420
427
433
436
425
429
430
455
466
443
429
428
437
439
415
402
403
401
385
380
417
444
460
449
442
440
432
444
435
402
384
396
406
415
418
438
457
435
405
398
407
434
463
473
461
447
422
417
419
417
411
429
474
498
488
479
489
484
477
469
466
475
476
469
461
459
456
471
457
441
433
432
432
423
425
426
442
436
462
476
479
461
444
453
499
496
463
459
439
437
429
457
466
450
451
450
451
454
465
485
484
469
463
473
476
464
453
447
444
439
433
447
455
458
454
442
425
407
409
423
459
481
478
487
488
497
500
499
487
467
456
452
462
473
480
490
488
475
469
457
453
464
461
450
459
475
489
485
482
495
495
479
446
430
421
401
416
452
456
435
431
425
434
467
488
480
471
474
490
505
498
493
480
473
470
485
490
464
456
469
476
464
480
487
489
481
468
465
469
469
467
458
448
440
440
450
458
460
454
460
465
465
460
454
453
457
449
448
447
452
451
482
497
493
493
485
481
487
504
477
456
459
464
474
480
487
481
479
472
463
460
473
494
481
445
436
423
407
448
530
549
527
494
492
519
534
528
538
542
535
514
487
473
464
452
455
478
498
512
525
508
494
502
503
502
510
507
515
506
516
513
504
498
492
487
496
506
491
480
480
487
497
503
492
480
475
467
468
465
468
461
459
452
452
462
459
479
478
459
460
465
459
459
455
440
429
432
439
466
492
493
480
466
455
449
457
459
469
482
479
470
465
469
457
462
467
462
464
466
459
446
429
446
466
461
444
435
454
491
516
509
475
466
490
499
490
501
511
500
482
466
455
454
453
465
466
460
455
464
475
488
495
508
517
535
558
579
623
674
716
742
767
791
819
836
857
916
960
983
990
985
980
985
989
989
989
990
969
929
882
876
882
876
821
752
682
617
560
511
462
413
360
311
257
219
195
180
183
190
181
191
209
221
248
260
263
297
327
348
364
357
352
349
359
378
378
376
365
366
362
385
423
463
470
462
451
449
451
463
478
479
454
431
419
411
411
418
440
435
426
425
427
434
459
471
460
461
469
452
442
444
430
425
436
450
467
447
434
443
443
436
443
458
459
451
448
438
415
427
435
432
430
430
434
440
462
493
505
486
472
458
447
456
493
511
494
474
468
456
444
467
502
504
505
486
463
465
488
500
502
507
501
483
465
442
421
432
458
493
546
580
567
535
516
520
534
528
508
488
482
485
483
481
476
469
471
487
499
504
517
517
513
520
505
502
493
485
473
487
498
502
511
524
536
538
532
534
530
528
526
527
522
523
519
518
516
520
528
536
542
538
535
533
536
539
543
541
522
513
511
518
528
540
548
544
544
537
543
535
527
532
539
539
530
518
508
498
481
479
484
487
517
571
590
578
568
562
546
517
504
491
513
531
524
514
499
498
504
489
492
515
519
501
503
505
496
494
485
475
455
436
447
428
413
421
448
509
543
538
526
513
495
477
468
459
466
454
451
438
434
431
430
432
431
422
412
420
428
416
414
429
446
453
442
435
431
441
442
424
412
413
420
420
414
404
405
408
412
428
457
463
443
428
417
423
425
428
422
418
414
417
428
427
407
398
394
386
405
436
437
464
488
472
453
443
434
432
462
469
457
454
448
451
439
428
427
439
459
452
455
456
443
434
421
412
401
406
439
465
462
453
455
457
467
485
499
494
475
453
449
466
491
490
472
461
451
453
458
452
458
464
469
494
500
495
474
474
483
474
470
459
452
452
462
474
456
434
426
420
423
459
491
504
488
468
467
460
464
480
475
466
472
475
482
471
458
458
459
466
469
497
498
475
457
451
451
449
451
459
449
434
452
466
478
497
483
458
448
450
460
480
494
490
475
455
463
479
484
478
472
459
449
450
446
454
477
482
474
481
482
479
499
512
497
469
448
446
437
417
433
433
448
482
490
495
502
499
496
500
483
465
465
457
444
449
458
467
487
496
487
484
476
467
448
436
430
432
446
469
511
531
506
496
494
483
488
513
535
517
507
510
506
487
466
467
475
484
496
502
506
499
476
465
471
476
469
467
472
463
453
469
473
461
458
458
462
468
475
489
477
474
477
484
480
480
485
492
491
505
522
526
514
502
513
510
504
500
518
529
528
513
502
494
480
463
454
454
450
462
483
476
460
459
464
488
494
478
470
458
472
495
500
502
504
501
500
491
480
500
514
499
476
462
456
446
465
479
494
502
493
479
472
477
493
475
456
445
449
458
458
451
446
441
436
434
438
446
458
467
475
486
486
499
504
516
538
575
619
663
717
752
779
822
844
851
888
920
930
964
988
990
989
989
989
989
989
989
989
948
896
864
826
786
788
759
700
622
552
487
438
395
336
293
247
189
172
181
191
208
227
240
247
251
269
302
313
305
304
306
304
304
316
332
351
379
420
435
444
448
438
412
400
401
400
408
407
431
449
441
440
433
417
411
413
421
434
426
409
415
425
419
419
412
414
426
432
434
427
426
429
433
432
432
437
436
427
408
428
468
472
451
440
436
428
428
437
442
451
467
472
472
472
468
465
465
470
467
462
466
464
476
483
468
454
454
455
463
472
457
431
445
461
467
480
476
490
508
508
505
511
516
503
492
485
476
468
477
499
526
541
525
495
473
482
496
505
510
514
505
493
486
493
513
528
518
516
515
515
530
516
505
501
505
507
512
526
529
530
526
530
533
528
526
523
520
516
512
523
526
515
531
544
539
537
549
552
558
551
539
541
546
546
545
552
552
545
543
538
531
525
531
544
535
523
525
513
522
532
536
537
537
538
540
544
543
543
564
563
537
516
532
577
577
571
564
558
548
528
502
502
514
520
528
527
524
506
496
496
521
540
537
522
510
500
487
486
487
492
480
474
453
453
465
477
487
489
482
458
462
478
472
460
448
434
414
435
442
442
444
438
425
430
440
442
426
419
418
425
427
427
415
396
391
403
415
435
446
447
438
429
423
424
420
418
412
402
404
403
409
415
418
408
398
396
415
443
444
433
434
432
442
446
441
432
432
427
423
416
423
436
446
438
413
416
438
460
448
441
435
434
466
460
456
458
439
436
455
468
462
448
433
435
444
442
435
437
441
446
449
442
451
449
437
432
455
458
471
493
491
464
460
462
452
464
465
488
501
476
446
446
439
425
407
421
458
487
505
524
507
470
452
448
451
460
485
489
464
449
433
423
423
444
476
474
472
469
469
462
463
455
457
460
453
448
448
448
448
458
468
471
466
456
449
449
448
437
445
462
458
443
437
453
462
466
469
474
468
464
445
432
456
476
472
451
419
407
432
449
442
458
493
518
524
507
490
485
480
476
463
460
470
478
486
480
469
466
481
489
481
472
474
466
461
454
452
454
452
451
469
470
453
474
474
456
457
446
459
479
515
517
490
476
476
474
474
478
473
471
453
439
448
474
502
505
505
488
477
477
480
472
466
465
466
471
479
484
479
470
455
442
433
441
474
487
464
460
480
501
512
511
492
489
489
486
486
500
509
498
489
491
478
479
501
536
543
520
502
501
507
498
488
485
473
461
460
457
463
453
448
445
481
518
519
498
478
459
433
426
454
511
529
513
496
485
472
468
476
496
500
489
478
472
460
458
470
472
476
477
476
474
454
435
435
442
447
460
473
479
476
464
442
444
444
452
460
456
450
454
447
435
426
440
485
504
477
452
447
443
440
444
455
481
496
504
537
558
575
592
620
649
682
713
749
784
822
850
855
873
914
972
990
989
989
989
981
989
989
989
989
989
972
933
885
841
802
743
664
608
573
541
479
418
371
295
214
153
141
159
167
187
198
201
203
204
212
202
206
249
313
356
364
363
365
369
378
388
400
413
409
411
416
426
424
411
410
402
409
415
415
416
409
401
390
386
392
411
436
434
419
407
396
428
479
482
465
453
443
441
433
430
430
434
440
446
442
438
443
444
443
438
424
409
396
381
409
440
464
468
451
434
447
464
477
481
483
500
509
514
520
521
520
515
508
501
497
502
495
477
461
456
449
470
510
533
525
504
500
503
499
490
470
462
460
475
492
494
485
483
479
473
480
503
501
497
497
486
469
451
443
450
466
493
519
536
537
536
527
522
521
520
519
515
514
517
517
509
503
496
490
501
497
500
497
497
516
523
522
516
513
550
564
566
574
570
556
554
550
547
552
548
538
534
529
528
522
512
501
521
560
564
562
543
535
539
547
538
536
551
571
588
584
575
577
584
579
572
566
566
562
559
547
536
528
533
534
514
513
515
525
530
529
529
522
515
509
517
507
493
505
514
510
503
508
513
505
491
485
467
439
415
411
433
492
524
523
509
489
475
479
479
473
460
444
432
432
425
420
421
432
441
459
445
421
409
403
401
416
421
418
416
419
420
401
380
361
364
414
464
479
466
438
414
410
410
445
462
442
424
429
430
428
431
415
412
429
428
426
424
436
442
433
423
411
398
390
394
392
403
432
439
421
405
391
386
411
462
487
497
485
464
455
457
474
486
471
461
464
468
473
461
454
460
456
447
460
462
464
473
455
441
435
433
438
444
463
473
460
449
437
424
414
410
423
455
477
483
485
481
482
478
475
455
437
435
434
432
417
414
430
434
433
448
474
481
465
432
439
470
486
488
480
477
462
459
466
466
465
466
462
461
467
474
473
468
461
453
459
480
468
449
444
457
481
471
460
459
451
464
475
456
448
448
454
455
457
464
486
491
478
468
458
457
476
495
485
474
472
463
452
444
446
472
498
493
484
483
473
467
438
415
425
464
509
523
516
511
494
489
495
495
500
498
478
457
448
446
461
498
518
511
500
494
497
492
482
472
455
490
536
537
514
496
501
494
481
483
489
506
520
523
516
508
500
490
487
486
467
469
471
465
467
463
448
440
438
443
463
464
459
483
479
466
462
464
458
454
451
450
450
445
440
430
425
437
423
413
412
407
418
451
485
502
524
525
510
506
486
461
439
429
421
467
514
533
523
502
510
517
503
497
502
498
492
470
460
458
450
437
419
429
467
496
490
471
461
470
513
558
593
607
602
607
631
665
709
757
789
822
853
871
873
887
915
938
977
990
989
989
989
989
986
941
907
872
841
816
791
758
714
649
591
547
497
454
405
335
251
179
137
127
151
170
182
187
193
203
209
217
231
257
281
302
320
335
341
354
372
385
388
389
393
398
398
392
395
392
384
380
403
433
449
437
433
438
430
423
430
446
452
440
444
431
415
407
423
481
541
529
493
475
469
473
475
464
452
436
442
463
471
470
463
452
440
444
446
471
471
461
449
440
432
433
458
480
486
487
487
497
497
481
463
459
466
485
493
485
470
448
448
465
483
496
496
495
492
486
489
488
483
479
471
466
462
472
481
481
477
496
501
498
506
523
526
515
495
483
482
467
469
477
489
497
512
539
544
526
522
515
497
488
477
483
507
517
523
524
530
544
543
544
539
535
542
544
537
535
532
532
532
536
542
541
540
545
538
536
539
535
528
524
521
534
542
537
540
562
576
564
557
571
566
566
557
548
541
540
539
538
554
560
550
537
546
538
543
555
561
566
554
546
543
539
532
532
528
500
492
497
490
501
536
587
596
561
550
545
538
542
538
534
525
516
514
526
525
539
538
524
508
495
481
471
473
467
467
478
486
478
459
439
411
416
450
462
470
448
453
476
496
498
492
482
473
457
460
451
438
430
427
428
433
433
437
437
435
428
413
413
421
423
415
409
407
405
415
420
415
413
419
420
424
428
423
406
398
400
404
390
372
382
402
426
432
412
396
392
400
389
395
431
430
426
427
418
417
433
458
462
442
430
430
455
487
493
481
460
452
444
444
449
456
477
479
463
448
447
441
445
456
463
449
429
416
430
453
466
461
435
431
435
442
458
463
463
459
466
479
469
456
454
452
451
450
450
451
449
450
447
445
444
446
447
451
445
429
428
423
425
426
433
441
451
474
482
477
470
466
463
463
460
455
455
452
453
449
453
455
455
449
449
445
446
447
448
452
449
445
437
449
457
458
448
440
439
439
447
447
449
452
459
466
464
471
475
471
467
470
468
468
471
478
479
469
467
468
471
461
449
442
430
419
424
446
469
487
487
480
497
509
509
500
499
497
502
508
519
520
523
518
507
496
490
490
505
536
537
514
503
492
489
506
526
528
534
519
496
481
471
458
448
454
463
461
469
485
472
470
477
487
477
454
449
447
455
449
448
442
426
424
464
482
492
500
500
477
456
460
466
476
482
483
477
475
474
458
441
435
432
425
426
435
443
448
444
464
483
501
489
467
470
477
504
514
504
482
473
459
440
432
440
451
468
516
519
514
508
481
450
460
499
555
590
599
624
647
676
727
779
813
838
859
869
879
920
951
970
989
990
989
989
989
989
979
943
907
871
821
772
743
722
685
639
571
502
454
425
392
341
295
237
190
142
133
140
168
195
208
220
229
241
239
241
258
272
297
304
324
374
406
419
422
424
421
423
420
421
421
434
441
438
422
422
411
405
430
467
464
453
460
455
447
439
433
432
425
419
417
425
439
444
460
459
455
441
426
415
417
448
472
466
450
438
438
451
459
466
473
483
487
476
466
455
451
477
475
469
480
483
482
481
469
452
454
449
447
466
471
469
467
481
475
467
474
474
470
468
477
472
473
475
491
490
489
516
541
552
529
515
505
498
498
505
504
497
499
506
503
507
508
504
502
499
495
499
491
492
487
480
473
481
505
510
515
510
502
492
494
489
474
483
516
553
558
536
515
542
581
593
569
544
540
561
574
546
543
541
545
542
538
548
546
545
549
547
537
545
542
533
523
521
525
543
563
577
586
576
561
543
533
526
521
527
550
568
571
567
548
537
526
518
517
532
549
559
559
534
510
484
496
535
540
555
576
569
594
611
600
581
558
541
532
519
510
507
514
518
526
542
538
522
513
511
506
501
491
490
485
481
472
467
469
475
476
471
455
440
428
419
407
423
460
461
439
423
412
418
417
428
434
434
432
420
405
393
400
418
428
428
436
432
398
389
395
399
400
416
428
425
416
414
425
435
433
425
417
412
428
450
452
467
457
438
438
442
440
428
427
424
404
394
387
393
422
454
471
456
438
424
418
427
432
433
428
412
415
445
474
495
475
464
454
453
457
447
453
454
445
441
453
456
464
459
456
455
451
446
429
427
428
428
416
408
414
431
430
424
439
448
441
446
459
481
487
473
460
453
439
432
438
454
477
489
484
468
473
482
473
470
480
475
460
452
449
450
437
433
436
439
454
463
451
441
437
435
443
432
427
418
422
430
477
499
493
477
472
488
485
466
449
432
443
482
491
484
490
495
482
470
466
462
445
435
440
478
507
502
483
472
463
452
462
465
455
455
475
484
471
449
435
435
448
482
505
507
495
507
524
534
523
507
489
484
491
507
523
513
492
481
492
488
493
494
482
483
489
488
494
487
468
451
433
430
437
457
479
486
482
461
442
433
424
420
428
446
447
442
466
465
456
465
474
480
475
462
454
450
468
466
451
459
473
479
496
497
483
472
475
466
449
431
428
434
449
471
492
478
466
465
451
461
476
482
462
461
476
503
505
471
452
482
503
489
485
482
483
476
474
480
488
499
523
545
560
588
603
628
664
704
739
762
781
788
806
851
896
911
945
969
975
975
979
989
977
959
908
876
853
814
769
749
734
686
631
587
549
503
454
409
355
293
227
173
135
140
212
246
242
247
264
268
271
263
246
246
245
253
309
377
414
415
412
395
396
408
422
437
441
428
424
422
417
416
414
414
417
405
400
399
413
425
426
415
426
444
456
483
479
476
449
417
400
373
346
354
363
387
472
505
515
522
518
497
477
478
489
486
495
522
520
495
466
468
480
481
505
506
494
491
492
490
492
487
474
465
475
482
474
467
462
458
454
446
418
395
427
479
538
569
541
528
536
537
522
500
484
493
500
495
489
494
490
486
485
496
499
508
514
503
494
479
488
494
479
476
487
500
536
532
500
466
449
448
480
538
549
524
517
512
494
483
512
536
537
525
518
540
541
534
543
528
503
487
466
480
518
542
572
608
614
589
592
583
570
554
538
530
535
535
528
523
510
489
498
518
538
556
581
592
574
567
580
586
567
549
537
546
560
564
562
557
549
537
533
540
553
557
561
553
541
520
497
488
484
497
534
553
548
536
531
557
576
561
548
541
536
532
525
514
494
475
484
496
476
479
487
474
471
496
516
502
488
474
481
481
484
457
451
440
444
450
448
447
440
424
431
443
454
450
432
413
405
401
405
404
387
372
403
415
422
424
423
415
402
405
420
433
430
428
424
411
416
407
381
378
384
388
415
438
448
441
432
420
412
407
416
423
412
408
413
408
426
441
431
423
412
406
416
429
446
462
448
439
430
415
403
408
412
412
396
401
436
457
475
493
484
472
455
441
445
434
427
443
447
440
438
432
425
422
434
451
464
479
468
460
455
433
426
444
441
435
461
479
488
489
473
450
439
440
436
440
443
452
464
452
443
434
428
425
428
430
441
457
486
498
486
474
467
460
452
448
445
451
444
439
433
426
416
419
442
456
455
445
454
473
476
475
471
458
455
463
481
483
480
486
482
473
473
462
467
473
470
460
449
447
452
470
481
488
489
463
450
443
437
454
478
486
475
474
491
504
511
512
513
504
498
489
482
490
482
467
467
472
501
500
493
484
479
482
468
442
442
444
436
461
471
478
473
463
471
481
473
475
470
469
460
455
462
463
460
461
457
453
451
437
429
431
429
429
433
429
410
399
413
442
483
528
542
545
544
531
506
488
475
468
469
481
480
457
454
454
451
452
455
454
445
442
450
458
456
450
449
446
436
431
433
433
442
443
443
487
536
555
558
568
584
615
682
727
743
756
781
806
851
888
900
928
963
978
970
958
952
962
980
962
938
907
872
844
809
772
734
692
632
573
521
460
414
377
355
338
278
214
154
125
145
169
192
215
236
258
278
260
263
279
301
328
330
325
331
350
362
384
404
428
433
415
414
430
435
433
435
440
443
437
429
419
421
425
432
439
428
422
419
413
407
399
395
401
427
464
467
466
454
448
453
462
463
457
453
455
456
458
458
458
455
453
455
447
425
431
454
478
470
462
468
470
469
477
479
475
483
488
472
478
482
473
462
452
458
467
460
466
500
510
508
486
486
485
476
475
466
448
459
484
494
495
494
484
488
485
476
467
476
485
498
494
485
472
457
446
452
496
549
580
577
563
541
514
511
513
509
526
537
536
529
526
516
511
514
513
499
492
518
545
574
588
564
537
524
519
533
555
552
549
549
539
526
528
536
540
546
552
549
551
543
532
546
551
555
552
552
554
559
558
560
558
551
551
549
539
531
529
526
529
531
537
518
508
528
556
564
577
579
572
572
561
557
552
526
512
518
547
541
519
498
511
517
520
522
547
566
561
558
534
510
498
499
506
498
495
503
499
477
457
449
472
524
531
506
494
492
488
490
474
470
463
451
443
437
418
417
468
498
500
480
463
442
432
433
441
438
437
431
419
431
433
427
409
409
412
405
400
408
421
411
408
412
404
385
395
407
396
377
384
414
457
477
450
426
422
420
415
417
418
413
405
405
414
415
413
419
425
421
419
426
419
403
392
393
411
426
414
423
443
446
446
449
439
442
435
437
454
458
454
456
432
388
353
353
376
450
531
533
508
479
465
459
459
474
494
492
483
472
460
460
452
446
440
444
438
438
429
405
370
359
388
436
470
481
506
524
508
484
475
483
479
456
467
470
459
447
442
447
461
473
478
477
473
462
433
417
423
439
462
471
461
463
468
462
449
442
440
434
465
484
485
470
456
439
427
417
402
395
400
423
433
449
479
508
516
552
555
518
504
497
495
510
518
528
525
524
526
509
507
508
499
481
467
481
483
482
487
486
475
464
452
446
463
475
465
464
463
440
409
394
397
409
429
448
460
451
460
479
500
491
480
482
482
482
478
479
467
460
450
448
448
465
467
466
457
465
476
474
467
452
453
456
464
468
465
448
445
444
439
451
452
450
457
466
468
460
449
455
463
453
424
417
416
419
422
428
433
434
422
430
439
441
462
500
533
559
573
602
656
689
750
796
834
857
879
907
924
935
944
962
973
983
990
990
989
973
942
918
903
869
826
794
750
700
640
583
519
463
405
359
330
297
236
179
147
133
142
159
184
196
205
215
231
251
279
306
315
324
333
348
361
373
373
366
373
388
392
405
427
436
430
425
421
417
424
421
413
408
408
425
438
444
444
440
432
428
434
432
444
435
421
423
432
438
441
452
435
442
454
459
455
450
443
428
416
419
440
469
473
443
432
432
454
495
506
506
506
492
476
467
472
490
487
480
470
462
444
438
464
483
492
498
500
481
479
500
520
511
498
502
492
464
467
481
492
495
497
492
496
499
485
475
469
467
491
500
502
504
496
505
508
502
500
499
504
506
506
502
504
501
497
500
500
514
523
530
516
499
495
504
515
534
534
521
505
496
498
497
484
475
511
548
539
546
560
554
542
533
507
510
568
624
621
604
592
580
575
569
560
554
550
549
534
526
519
524
537
544
540
558
562
561
559
553
542
531
538
526
520
534
551
574
585
577
578
576
564
553
548
544
548
561
556
538
523
512
492
479
487
515
526
540
548
541
538
535
535
529
511
500
508
521
526
519
505
503
500
485
473
460
441
438
451
475
488
467
478
471
443
439
454
470
456
449
447
437
431
422
425
434
428
414
409
415
430
430
437
441
435
425
415
407
409
409
399
413
423
422
414
404
401
396
380
370
388
411
432
430
407
419
421
410
410
426
446
459
449
443
454
462
455
449
429
422
431
442
453
458
453
454
446
426
422
419
432
456
454
457
455
437
417
415
427
450
458
449
447
453
452
454
466
468
447
430
425
428
416
415
407
386
372
389
429
479
511
543
529
500
474
469
462
460
457
461
471
480
483
465
464
469
454
449
458
440
425
414
400
418
443
480
501
491
470
461
469
492
499
498
490
483
473
476
476
478
458
443
453
457
452
476
481
466
474
486
488
474
472
473
476
474
469
472
478
471
463
465
466
471
496
498
495
489
481
477
483
481
459
446
452
476
498
500
487
489
498
477
452
434
443
447
461
473
473
465
476
480
480
476
471
474
478
474
461
448
441
446
457
465
460
459
471
465
463
457
448
438
430
434
462
465
438
411
400
410
423
448
494
512
518
515
490
484
475
466
464
466
464
469
465
455
442
445
448
434
426
433
426
409
414
440
455
459
485
493
494
501
494
499
515
548
584
615
651
691
728
765
798
823
834
851
879
902
926
930
943
947
960
971
960
961
924
878
848
823
804
792
769
726
663
612
557
498
432
361
301
239
213
186
168
165
185
216
230
221
217
221
215
223
260
325
359
351
362
386
394
399
393
390
393
405
407
405
433
452
462
459
461
457
446
442
440
439
441
436
429
441
443
450
458
457
444
434
416
404
404
410
433
449
438
459
490
484
472
458
446
440
439
447
447
453
453
450
447
441
452
463
468
456
451
452
447
431
425
418
462
514
510
489
478
473
478
497
500
509
503
470
451
452
470
501
507
497
495
489
494
490
484
489
489
482
472
477
472
452
453
463
476
490
519
534
516
510
517
518
501
508
526
543
546
538
538
541
518
507
513
522
526
537
539
529
520
516
531
536
526
510
498
496
510
536
556
565
553
548
536
530
539
544
538
524
523
536
556
557
550
543
535
532
527
535
535
526
531
536
547
564
589
573
559
556
554
552
544
534
522
512
517
541
557
554
546
544
538
528
526
557
565
553
539
545
531
527
539
523
505
521
551
586
585
563
552
556
565
561
548
533
525
511
507
509
499
487
473
485
498
498
481
487
495
501
495
490
489
476
467
464
458
459
482
471
439
406
396
400
432
461
489
508
497
473
459
454
446
431
419
418
437
467
456
441
439
448
433
407
396
398
402
409
404
399
401
406
411
412
406
385
386
399
421
441
445
433
443
426
419
421
435
449
446
442
447
456
451
431
412
412
415
408
411
398
393
403
417
433
433
436
439
457
468
467
472
468
464
463
451
457
463
452
452
439
431
435
442
440
427
419
414
424
433
440
431
443
454
460
467
477
475
459
450
436
419
405
425
434
460
487
485
478
487
484
467
462
467
467
470
454
440
442
456
473
492
488
455
449
467
495
506
484
463
461
455
449
466
468
461
459
460
463
465
465
464
471
470
463
465
475
495
502
492
484
482
484
479
448
414
401
418
460
519
553
553
531
507
499
492
475
453
464
475
476
479
477
466
460
464
465
458
445
456
468
460
458
466
461
443
447
458
459
460
454
445
447
448
451
436
418
405
386
417
444
464
482
485
472
452
436
444
461
474
473
466
465
466
462
451
437
429
422
450
486
477
451
449
460
453
438
434
441
444
447
448
441
422
432
428
437
459
477
498
505
509
514
537
569
605
630
651
694
757
828
851
851
872
904
918
931
934
941
953
962
972
977
959
927
899
869
837
817
780
726
681
633
583
534
491
433
371
312
263
209
151
103
77
89
131
186
238
269
257
247
257
284
323
337
351
352
352
349
354
357
377
411
447
462
445
433
425
415
406
400
400
429
445
447
446
434
412
413
433
447
439
446
462
484
473
468
469
455
430
426
440
445
442
428
425
434
442
451
454
443
427
422
426
432
445
449
469
500
493
478
469
472
473
462
454
454
465
458
469
478
471
470
471
457
456
457
453
459
453
454
460
473
464
448
439
436
441
458
463
452
434
462
502
526
524
511
495
502
505
506
508
507
493
488
494
488
471
468
496
503
489
480
469
456
472
529
584
601
583
559
541
537
536
530
526
525
532
534
539
537
534
530
523
526
529
528
518
529
533
532
531
538
546
556
556
546
524
504
506
514
534
574
583
578
570
553
556
571
550
534
521
507
507
520
554
555
549
531
535
551
564
566
573
571
568
567
562
562
554
544
548
544
549
556
530
500
524
537
543
547
563
573
565
545
526
528
522
515
500
492
508
513
518
517
499
500
499
496
510
518
517
509
494
490
483
481
468
452
435
440
453
449
447
444
471
476
472
450
448
441
434
420
424
436
454
439
421
423
402
385
417
444
450
456
451
425
432
446
453
452
452
457
440
416
417
425
405
386
403
425
426
427
445
455
453
442
428
415
415
414
408
405
405
416
429
433
439
441
433
421
412
415
418
414
410
415
411
431
467
473
468
453
432
420
426
426
419
413
391
361
372
419
468
494
480
453
443
448
451
451
455
447
435
436
445
436
436
438
431
445
464
453
438
428
427
437
443
435
468
502
514
496
481
460
438
435
468
485
483
486
488
476
491
485
465
464
467
459
456
448
433
421
417
431
458
465
463
468
467
468
461
467
474
471
478
465
480
483
486
505
489
465
448
448
475
494
488
469
445
433
442
466
482
485
484
466
447
457
462
453
447
451
457
446
430
439
445
447
443
445
439
421
407
409
421
447
479
483
458
432
429
416
442
461
471
463
451
459
453
461
467
455
440
431
418
413
426
437
453
469
474
478
477
479
476
468
460
465
452
439
424
415
412
415
438
429
421
419
432
436
434
436
434
432
433
436
439
464
488
530
568
596
626
698
744
768
784
803
828
850
878
902
926
947
958
959
962
960
946
938
939
944
927
878
828
800
771
743
700
646
586
526
449
382
321
263
202
142
102
97
135
153
182
220
238
243
249
256
272
288
282
274
280
270
278
340
402
428
429
406
418
426
430
423
419
437
459
471
462
444
425
423
428
444
459
454
445
427
417
418
439
448
452
457
447
440
450
445
439
437
425
424
427
441
464
461
473
464
425
399
399
410
460
501
490
471
460
453
450
447
452
461
452
448
454
449
443
464
471
464
468
480
487
474
450
453
449
438
444
457
475
494
489
484
476
464
476
492
473
470
483
483
502
496
479
469
498
524
525
531
539
554
547
527
529
527
522
518
508
482
459
453
510
582
593
575
558
548
541
519
479
473
483
506
536
549
554
563
567
556
545
553
539
531
516
501
480
462
466
506
561
584
570
571
597
615
595
593
574
582
617
625
614
597
585
571
557
567
559
552
542
546
560
563
557
551
570
578
585
580
563
546
538
539
547
543
538
535
531
526
519
521
527
524
509
507
523
516
517
536
545
533
504
492
503
527
518
527
535
510
498
521
525
509
495
495
465
420
399
442
475
503
517
514
511
514
507
503
496
492
485
480
466
459
459
450
438
419
423
442
444
420
397
394
410
433
447
438
418
406
414
418
428
459
465
447
426
418
426
440
430
415
410
411
420
420
410
422
429
418
421
440
425
398
387
378
377
380
392
411
431
435
440
427
421
423
398
392
417
429
452
467
459
460
480
482
460
432
443
412
375
380
413
454
492
483
464
466
477
481
491
484
488
497
481
458
454
451
446
428
445
481
478
451
448
458
471
480
469
450
452
475
471
460
454
447
459
481
478
448
435
435
438
438
440
448
458
473
472
456
447
445
457
467
476
483
485
463
440
445
446
459
471
485
479
451
437
445
470
493
480
450
424
401
419
472
512
515
522
508
477
459
476
507
536
571
562
532
526
558
544
512
495
483
468
468
471
467
476
476
477
465
449
466
464
462
478
490
486
479
470
457
451
447
442
436
439
433
446
459
459
454
459
471
473
468
462
464
455
444
435
440
461
469
469
461
471
458
446
448
451
458
459
445
447
447
437
438
439
416
422
411
395
420
421
416
435
461
477
492
494
464
442
436
460
485
511
533
540
563
583
614
644
691
747
797
836
849
855
860
887
914
962
989
989
989
989
989
989
989
989
978
961
925
903
888
865
791
713
650
602
550
503
441
374
317
251
217
181
168
153
154
169
187
218
242
253
241
230
241
270
309
350
377
366
360
360
370
388
399
396
384
383
391
403
413
424
426
412
411
418
415
411
414
415
414
407
413
410
407
411
429
429
434
442
439
429
407
393
401
405
416
464
484
468
446
430
432
431
456
486
463
415
413
400
421
480
524
514
472
460
478
514
506
492
471
446
440
441
468
487
494
503
491
496
493
475
468
480
496
503
507
503
498
501
481
466
482
495
522
536
548
538
519
496
484
495
492
487
493
497
510
512
502
503
500
492
485
480
487
495
502
503
499
516
522
513
497
483
482
476
472
491
533
555
545
539
547
574
573
554
550
538
530
518
505
515
514
532
550
575
570
558
552
553
550
546
561
556
542
548
545
535
521
536
555
578
583
578
573
573
564
560
559
559
559
558
561
558
551
533
514
499
493
523
543
566
584
585
582
569
560
561
564
564
554
533
518
514
503
527
541
522
501
505
530
576
576
558
545
535
529
527
530
528
522
505
492
482
489
490
469
463
496
518
516
500
465
451
459
451
433
425
429
420
419
462
466
439
437
421
413
418
419
435
462
462
442
444
459
454
439
420
427
453
464
459
453
440
435
429
418
423
430
424
418
415
410
413
436
436
423
417
423
422
413
428
448
424
411
418
430
440
462
463
439
431
423
431
459
465
449
447
449
447
430
421
422
416
421
443
442
431
428
448
444
443
432
413
398
422
464
487
484
468
468
474
486
491
483
483
472
459
458
471
489
487
464
455
455
452
438
424
415
438
470
476
474
464
454
464
462
465
458
453
478
510
503
486
464
431
420
433
425
427
445
457
471
483
487
497
493
468
446
444
450
452
457
448
447
477
505
488
473
477
476
468
466
465
462
468
476
483
494
498
492
485
474
471
469
465
475
479
475
478
480
480
496
488
479
484
476
468
458
442
430
433
428
435
462
465
458
458
446
449
459
456
468
458
461
491
507
495
478
464
449
431
414
416
461
497
486
459
442
422
418
452
485
499
497
493
480
469
444
426
444
470
488
493
483
483
480
475
483
489
479
462
453
442
432
422
412
419
424
415
421
444
449
442
434
436
444
456
465
471
470
485
515
568
622
685
745
787
804
811
843
872
905
947
990
989
989
989
989
989
989
989
989
989
981
960
919
875
833
784
754
700
642
601
558
509
455
387
311
252
190
146
136
130
146
154
165
190
221
260
286
303
284
282
295
298
322
363
373
384
407
397
398
404
403
392
372
373
388
413
422
432
443
435
407
394
399
407
437
472
464
454
459
448
419
395
396
410
413
427
440
432
431
432
429
424
436
452
436
424
411
387
390
404
424
461
492
496
477
464
459
466
464
454
443
437
450
453
442
458
471
475
467
460
455
459
458
452
449
456
453
432
432
451
476
481
478
482
492
506
498
489
461
429
423
440
472
502
526
545
545
515
496
487
487
497
520
532
542
544
551
538
517
514
513
526
530
519
505
497
499
498
499
496
492
496
510
528
533
518
507
511
512
527
547
569
560
539
530
529
527
535
564
556
535
533
535
521
530
559
551
567
582
573
558
548
550
543
545
540
534
527
521
516
532
551
558
550
569
573
571
581
578
560
552
544
536
524
519
528
534
536
544
549
556
545
523
500
502
515
514
519
549
573
571
566
551
528
503
506
510
491
503
535
585
582
556
547
540
522
504
516
510
485
469
462
479
492
482
477
477
461
455
447
446
448
443
424
428
426
448
459
443
436
432
441
440
434
427
423
422
420
422
428
434
427
409
399
402
414
404
400
401
407
405
403
409
412
408
412
432
451
456
442
432
423
412
416
417
419
413
414
411
404
386
380
387
405
414
463
500
488
464
440
424
428
431
450
473
495
489
462
434
429
444
453
439
426
423
430
424
423
446
474
483
481
482
472
464
464
464
459
462
447
426
420
443
471
464
455
464
466
451
436
439
435
422
419
435
471
486
484
473
466
462
452
447
451
448
457
466
457
450
453
456
457
448
464
477
470
454
455
438
434
425
434
470
467
459
460
467
454
441
436
437
453
460
452
450
469
461
432
424
467
516
527
513
494
484
485
489
481
483
485
484
498
515
521
515
509
506
504
496
487
492
502
495
487
483
480
479
473
472
471
467
467
464
463
451
435
425
444
460
459
466
465
465
456
442
436
434
432
466
474
475
467
464
473
475
464
459
463
462
445
446
444
443
434
432
446
463
483
493
481
475
463
454
454
458
458
456
461
462
455
451
440
431
427
430
428
436
459
444
425
428
445
448
442
434
425
432
436
446
458
486
537
579
619
678
754
782
786
806
839
894
967
989
989
989
988
988
988
988
988
988
989
989
989
989
990
946
889
845
813
776
714
642
577
519
455
374
325
272
224
188
152
144
155
166
168
188
196
202
207
230
259
281
306
320
317
326
348
363
369
372
376
372
395
419
407
411
416
412
412
406
396
397
408
417
418
414
408
403
403
401
403
423
427
420
420
417
404
407
404
391
397
425
424
439
472
478
477
449
448
455
445
442
470
477
469
482
486
471
481
465
456
456
469
482
482
469
459
458
448
463
478
472
461
473
493
499
500
495
475
469
496
497
491
488
489
481
496
501
487
487
494
499
474
450
452
471
480
489
490
489
494
494
482
472
476
475
488
483
489
500
514
521
514
505
496
490
480
475
505
524
511
506
506
499
515
527
551
549
536
518
496
485
497
524
565
588
596
590
569
572
576
568
553
545
552
549
555
563
556
545
532
534
556
575
571
566
561
557
576
589
591
570
556
589
596
581
575
566
564
549
543
545
549
555
562
561
552
535
524
536
570
580
584
558
534
509
510
543
564
568
547
528
524
518
528
536
530
515
522
522
520
512
518
518
518
527
529
522
510
497
480
467
452
443
451
466
478
475
465
458
449
457
453
473
492
487
472
448
426
417
415
404
413
440
459
455
453
452
459
466
468
461
445
421
411
400
398
401
421
444
445
446
455
445
440
427
416
417
422
423
424
422
417
413
423
447
449
436
430
430
424
422
422
421
413
410
421
438
439
431
440
444
441
446
442
436
439
451
449
447
434
429
432
434
440
430
420
423
431
440
445
441
443
441
431
428
428
428
422
418
426
428
445
457
452
465
454
448
442
434
437
439
451
460
459
459
463
462
453
447
454
450
436
424
425
426
442
464
480
480
464
451
440
440
457
480
484
483
491
493
476
458
452
467
490
500
487
473
485
502
501
509
528
524
514
494
479
477
469
455
449
455
459
458
459
462
455
453
448
437
425
439
464
502
511
510
514
516
502
493
491
501
485
467
475
481
503
506
486
467
457
456
446
466
502
519
531
485
450
439
433
460
467
451
444
454
467
458
456
467
473
468
462
469
473
459
454
459
456
444
440
448
468
482
481
467
447
439
442
437
439
459
474
463
449
442
431
440
468
484
482
474
472
472
459
447
470
469
469
446
439
428
415
436
456
472
472
472
464
456
455
455
447
447
475
521
539
541
544
575
616
650
693
735
775
804
830
881
922
958
989
989
989
989
989
989
989
989
989
989
974
945
907
874
836
807
768
724
665
601
555
510
437
361
302
231
167
126
113
113
140
170
199
218
222
239
265
289
294
302
305
314
312
303
305
329
354
384
396
398
400
393
403
416
426
435
422
417
411
413
418
431
430
411
401
398
409
423
439
449
457
452
439
439
435
435
425
416
400
387
379
401
449
482
506
483
467
464
464
461
452
440
449
481
481
478
469
464
462
456
452
448
443
437
442
442
454
457
468
487
500
494
482
482
480
502
504
487
475
474
478
482
484
475
471
455
453
457
466
475
486
501
506
501
495
510
532
500
465
458
485
479
465
477
513
520
525
521
515
512
506
497
488
490
492
508
534
544
547
548
544
550
556
549
546
533
523
517
500
504
546
588
575
560
547
549
555
560
554
542
542
541
544
546
557
562
551
537
542
545
559
567
562
551
540
545
559
576
573
570
560
550
533
519
525
526
555
583
588
577
562
570
585
590
592
592
604
588
566
559
557
553
541
531
527
521
512
559
577
562
561
559
553
557
538
520
499
489
481
483
499
500
491
489
495
490
481
493
490
480
492
505
500
507
488
465
460
465
440
411
399
420
464
469
458
464
461
453
444
437
437
433
423
407
402
412
426
432
435
423
426
438
420
408
411
395
382
410
445
455
443
433
435
430
436
437
423
409
406
412
408
405
406
405
397
391
380
389
423
462
452
428
418
418
421
423
418
426
438
439
435
430
433
444
462
462
442
428
429
434
432
432
444
437
411
428
447
442
436
439
440
454
446
449
456
454
438
421
409
397
392
407
449
478
471
464
460
484
486
468
454
451
450
441
450
459
443
426
405
412
447
484
501
494
468
462
473
466
472
480
468
461
455
475
488
479
474
468
471
475
466
452
457
461
462
475
465
458
452
451
450
445
451
466
462
442
427
421
408
401
438
471
487
484
485
482
477
477
471
466
468
473
480
480
476
470
467
470
471
473
468
475
483
479
487
506
485
477
473
478
478
467
468
482
509
534
522
487
461
449
459
467
470
485
471
445
429
428
431
439
459
466
455
464
499
511
500
488
474
461
461
460
461
460
463
485
467
443
444
448
434
434
453
461
452
447
447
462
481
481
472
462
458
455
465
469
463
449
441
442
434
438
449
452
451
433
428
427
417
414
431
432
430
437
444
488
519
519
526
537
559
578
600
638
710
773
813
843
862
886
907
920
935
957
989
989
988
988
988
988
989
989
989
977
940
900
861
818
759
688
625
563
508
477
433
381
329
267
214
161
126
128
146
161
177
185
203
230
238
244
255
272
286
297
304
314
321
327
345
364
360
365
387
395
396
385
378
378
395
410
408
407
401
389
392
404
422
421
423
437
449
439
437
425
421
423
419
415
421
430
414
399
403
422
411
405
435
459
470
473
463
453
452
439
434
424
405
414
440
460
466
465
465
465
458
458
462
463
459
456
452
453
455
459
463
461
458
459
457
464
461
459
458
458
455
468
485
467
436
417
418
490
522
489
464
441
438
476
503
506
508
504
502
488
490
496
500
494
494
506
519
507
490
508
490
470
494
511
510
505
533
555
571
590
587
573
571
561
557
553
549
554
550
534
517
523
527
523
519
519
531
547
543
540
537
539
540
522
522
535
535
523
525
552
557
555
568
574
568
566
570
561
549
538
544
562
577
546
537
551
546
545
556
557
545
537
533
523
507
510
512
504
506
522
538
534
515
487
466
493
562
581
585
579
570
555
542
531
512
497
500
515
528
531
545
559
542
517
520
515
499
480
466
461
476
487
483
474
469
457
450
464
479
468
459
447
444
447
438
421
412
409
412
419
432
432
413
403
403
401
394
400
403
395
402
408
408
410
407
392
371
371
368
390
415
425
421
413
412
407
396
403
407
385
383
408
417
428
447
455
465
461
440
430
412
412
415
418
422
436
458
446
439
430
430
429
426
432
420
417
421
421
424
427
415
411
418
432
441
441
432
429
443
442
430
421
417
417
424
434
435
438
450
454
444
436
431
436
431
434
458
466
460
443
437
430
435
441
450
456
457
453
449
452
446
448
457
451
431
428
430
434
419
418
449
475
481
478
461
449
440
435
440
446
422
412
439
484
476
461
473
479
484
485
490
483
479
472
474
477
467
454
433
430
456
485
498
501
503
508
506
501
495
480
478
473
467
454
455
471
489
491
485
485
475
474
479
481
479
471
474
488
492
467
465
469
475
478
469
472
499
510
513
505
476
479
486
482
481
483
470
468
473
478
489
505
501
492
494
488
474
466
461
465
456
454
452
464
466
446
433
435
440
461
472
464
465
468
459
451
455
447
442
449
441
442
454
467
455
473
473
466
467
455
448
439
431
413
426
422
409
404
399
424
449
514
556
533
499
487
488
486
474
459
458
450
444
439
449
466
469
460
457
455
461
477
495
512
533
545
560
582
628
669
708
755
779
810
849
875
902
934
973
989
989
989
988
988
988
988
989
989
989
989
980
923
882
846
791
772
755
711
637
570
516
457
384
301
230
183
145
124
106
108
138
141
154
169
177
196
212
231
235
262
290
293
303
310
317
344
370
379
368
358
360
371
392
402
392
385
373
355
372
404
446
451
445
435
423
405
397
398
394
411
449
471
464
446
429
426
431
426
434
431
416
405
414
441
449
449
457
455
449
436
435
446
459
459
455
452
460
483
493
496
488
482
466
468
468
449
444
462
464
462
467
460
453
454
468
468
464
467
458
464
464
464
470
472
472
463
450
440
443
457
490
503
508
507
510
499
501
500
490
492
464
448
451
484
509
517
527
514
506
504
503
501
511
523
508
516
522
516
511
506
501
514
533
537
540
530
536
536
530
527
534
543
551
541
524
528
540
547
540
525
502
493
495
523
554
586
601
574
545
530
550
584
601
609
610
589
575
575
575
584
577
574
570
571
569
566
564
561
563
554
546
548
561
564
550
558
576
566
541
524
525
523
535
537
529
530
542
567
576
553
534
542
529
503
504
500
513
541
556
545
534
535
532
527
521
520
527
515
513
498
492
485
474
466
458
455
444
447
464
473
463
447
442
442
448
438
430
434
428
425
429
423
414
408
403
402
407
403
401
404
409
414
422
420
417
399
402
388
378
371
395
411
409
400
402
422
439
448
431
413
405
408
419
429
429
423
411
401
387
373
387
391
385
405
414
440
453
456
443
448
468
480
476
484
486
464
452
448
445
428
420
419
456
483
463
450
457
463
463
461
466
462
449
450
457
463
449
444
447
443
436
423
436
443
437
432
430
435
446
438
433
435
436
436
436
433
450
467
461
439
444
448
442
448
456
452
445
428
412
408
407
420
439
457
460
454
436
437
459
486
482
471
478
469
457
464
476
466
463
461
464
460
460
458
461
459
459
462
468
472
473
475
464
455
445
429
427
431
447
498
526
508
494
490
484
473
474
482
476
470
467
465
456
448
450
451
462
488
498
476
458
452
448
465
484
488
498
505
501
482
484
511
525
541
534
519
510
492
486
476
466
462
495
522
524
511
509
502
495
497
488
478
459
438
424
422
438
449
467
491
499
501
481
468
467
458
463
455
452
441
413
400
437
481
481
502
503
489
487
483
471
473
481
471
466
467
473
470
446
448
452
450
454
467
467
453
452
459
451
451
437
417
411
423
458
479
490
483
466
465
469
472
474
479
485
504
527
533
533
539
559
586
618
650
700
759
806
840
870
906
934
961
989
989
989
989
988
988
988
988
989
989
989
989
989
974
924
882
837
790
711
648
594
550
483
407
341
280
223
164
123
100
95
110
144
172
188
200
209
208
232
262
268
271
279
296
316
336
355
360
367
380
384
387
398
412
420
405
389
397
400
394
389
395
409
399
386
411
425
422
418
414
421
435
439
434
425
406
402
417
432
445
472
468
440
437
442
441
443
437
429
452
481
487
477
468
464
462
460
454
439
429
447
478
472
455
445
457
474
466
464
463
462
446
447
471
485
494
479
456
456
476
484
492
491
485
479
478
487
483
482
480
486
481
472
470
477
482
488
501
494
501
523
522
520
527
524
509
497
492
490
490
499
496
482
463
484
487
504
531
539
539
537
531
524
529
537
554
568
567
563
558
564
564
546
530
529
538
545
552
553
551
552
555
556
551
552
555
556
547
557
564
574
569
572
569
568
572
571
577
574
562
544
538
532
538
554
562
576
568
557
558
560
558
553
554
562
566
549
548
548
547
546
541
546
552
563
564
555
546
533
519
515
529
542
534
516
503
501
510
518
522
529
530
527
527
528
517
515
522
526
526
535
545
520
500
483
480
469
474
474
453
455
461
445
437
424
420
432
435
437
445
446
464
477
458
448
437
422
434
421
415
421
443
441
421
416
438
436
425
427
426
422
416
418
413
415
412
392
397
402
397
401
411
425
430
422
432
435
427
424
420
407
398
393
390
379
391
408
417
435
454
462
455
436
432
448
454
451
440
438
435
432
454
476
467
447
424
408
422
430
442
463
469
465
452
436
439
452
447
432
423
408
395
422
482
507
493
480
489
498
489
474
463
443
428
432
439
454
456
451
447
457
460
461
463
459
451
442
431
433
439
436
445
445
445
440
431
435
442
451
458
465
469
476
473
461
459
458
459
461
462
456
449
447
454
455
452
457
452
448
446
435
440
458
459
458
464
462
451
448
439
436
437
444
471
478
468
464
454
456
459
457
442
426
408
422
462
487
495
474
466
483
496
505
493
470
462
470
474
476
484
494
492
490
483
472
456
447
468
480
462
465
473
466
467
463
460
468
469
464
467
475
478
483
483
490
489
479
476
480
505
513
510
507
509
508
506
509
509
501
496
497
496
496
499
504
498
482
479
486
480
486
482
471
473
468
463
461
458
464
469
476
484
478
470
463
451
436
452
459
470
471
470
463
465
474
477
468
468
479
477
475
462
444
446
453
454
448
461
482
484
480
482
478
477
473
469
474
468
457
468
477
473
469
471
463
451
444
446
440
434
439
440
436
442
444
461
485
495
507
516
524
537
556
587
621
654
694
753
796
816
853
884
914
950
974
989
989
989
988
988
988
988
988
988
988
989
989
928
886
848
829
803
757
685
630
568
495
416
354
301
241
173
131
117
125
136
150
175
191
198
212
220
232
244
254
263
288
310
318
323
336
355
372
376
381
384
388
405
405
400
394
399
406
401
406
404
417
420
415
429
428
423
423
425
420
411
412
427
428
429
427
431
434
435
437
441
444
441
451
448
433
431
441
446
448
442
444
450
421
417
453
475
481
485
472
457
473
474
456
447
450
454
452
448
447
449
465
464
452
466
488
494
485
490
482
495
501
495
501
493
498
497
502
502
500
504
508
509
498
492
489
491
490
490
494
492
490
490
483
489
517
523
516
500
507
510
508
497
495
509
520
520
518
515
522
535
526
510
498
505
525
545
542
538
528
536
535
533
527
538
552
546
540
549
558
572
559
549
543
545
557
574
551
554
560
554
555
551
553
569
574
570
570
560
553
556
560
560
561
565
563
565
567
559
558
561
562
562
560
557
550
542
540
561
557
548
551
541
543
548
543
550
558
548
538
537
530
528
534
533
519
517
518
514
504
516
521
511
495
498
506
509
518
508
504
502
505
491
479
476
485
477
463
463
466
474
456
444
434
433
436
445
457
453
452
437
429
418
431
444
429
425
426
427
430
436
425
424
423
418
415
405
422
428
436
437
430
435
442
426
413
414
425
416
400
404
414
417
417
411
420
429
425
419
420
422
435
413
393
411
435
442
443
442
442
440
429
428
418
429
440
444
435
431
438
443
453
452
433
440
443
441
440
433
427
437
439
450
443
430
427
427
428
443
456
457
452
444
459
462
456
450
460
448
440
453
451
444
438
445
436
459
481
482
484
464
462
477
496
483
463
430
429
420
412
426
464
462
454
454
464
477
475
449
452
453
452
446
439
435
464
475
457
447
446
445
447
455
464
466
455
459
465
463
462
451
460
466
466
460
467
475
465
467
466
472
470
471
469
460
453
461
464
467
473
474
475
475
469
467
479
480
471
457
456
464
453
457
461
466
471
463
476
491
490
486
506
510
503
499
502
498
499
502
503
500
493
492
497
501
510
510
499
485
472
472
474
466
467
471
467
458
458
454
455
465
469
471
474
469
472
459
452
456
460
464
464
463
463
463
453
456
457
457
464
480
479
480
473
456
454
451
451
457
461
459
466
467
465
467
465
465
461
459
453
457
445
463
477
470
465
474
465
446
447
448
450
440
445
454
472
464
462
496
513
495
492
487
502
517
532
563
589
626
658
682
712
751
804
833
863
881
898
926
953
987
989
989
989
989
989
989
984
963
931
884
841
805
783
763
721
657
605
557
513
480
435
374
307
248
202
169
146
144
144
150
180
191
204
209
228
247
259
266
268
278
292
319
334
341
353
367
379
390
397
405
409
408
425
418
408
414
419
427
427
428
426
440
453
450
433
415
422
435
443
446
442
441
443
458
464
454
439
447
450
453
452
436
431
438
443
443
442
446
454
463
480
487
491
492
491
490
484
463
464
471
481
475
475
464
473
483
495
486
481
475
476
491
494
491
494
492
480
486
482
494
497
491
483
488
493
491
487
495
504
513
512
500
484
485
488
494
490
487
505
517
505
505
510
508
497
504
508
513
518
521
535
540
541
531
519
528
541
539
524
528
531
534
534
532
530
539
537
538
529
532
531
544
536
513
532
564
576
573
569
571
559
571
571
559
556
556
561
565
573
575
572
580
591
594
579
577
570
567
558
552
555
559
562
569
570
557
542
535
547
561
564
568
572
549
536
554
549
545
551
557
548
543
549
548
550
542
536
533
525
512
508
512
539
553
546
538
541
524
518
503
522
530
512
499
486
489
488
474
475
480
480
471
471
477
466
453
456
468
469
445
430
432
447
461
442
430
429
419
426
429
431
436
438
427
415
414
418
424
437
413
401
415
408
400
400
399
402
416
409
426
432
431
427
418
417
411
413
416
419
431
425
422
419
421
422
425
437
441
429
427
426
430
437
427
418
417
426
431
425
420
426
428
426
428
437
453
457
454
454
454
438
439
442
439
433
423
444
466
456
454
453
452
450
451
467
471
471
455
430
423
423
440
471
464
466
471
452
435
439
449
452
468
466
466
464
454
446
448
470
479
473
464
445
432
441
444
447
443
458
468
454
460
469
457
460
464
459
457
451
452
459
456
444
448
448
448
447
444
457
472
474
474
458
453
458
453
453
468
478
472
467
471
465
467
484
484
472
475
474
475
469
456
455
458
459
496
500
495
478
460
493
504
471
456
450
464
476
493
482
468
466
469
480
490
498
499
500
504
502
506
509
501
497
497
485
480
479
487
495
475
469
483
484
490
479
478
477
470
460
459
455
456
461
462
449
450
462
464
464
461
463
462
467
471
474
480
480
483
465
455
448
447
448
461
459
452
448
439
442
447
462
458
453
469
471
466
468
478
468
463
462
468
468
476
458
452
446
450
470
464
464
470
464
450
448
451
451
445
445
457
466
464
478
481
487
501
507
512
525
534
552
577
620
654
692
729
748
776
838
877
893
913
933
952
977
989
989
989
990
990
979
949
914
871
831
806
801
783
715
661
612
561
518
495
460
408
343
276
233
194
171
163
153
154
155
187
218
229
240
249
266
285
297
303
306
312
323
325
352
378
388
398
403
411
410
412
411
420
429
426
411
419
429
437
449
453
460
450
433
414
419
429
425
414
413
425
424
403
422
438
448
463
465
451
462
464
458
453
468
467
469
459
454
461
460
453
459
465
467
478
479
478
469
464
466
464
472
472
484
477
478
483
480
481
482
485
486
480
463
467
482
486
485
485
492
491
497
493
487
481
482
489
498
506
505
521
540
528
501
487
487
490
492
507
510
509
520
526
521
504
489
491
505
537
529
533
527
515
503
524
537
535
521
517
518
517
535
542
536
524
516
527
538
544
547
550
549
555
548
543
559
560
554
563
556
550
557
557
565
563
560
553
566
575
610
602
577
571
558
560
570
590
591
575
566
574
573
560
563
574
570
563
562
553
551
548
560
581
564
556
551
554
554
548
548
551
560
556
557
542
529
520
520
534
533
533
534
539
520
518
524
520
523
531
520
508
494
485
489
496
504
504
511
497
492
482
464
454
454
467
476
475
458
444
438
431
439
454
455
431
438
429
422
420
420
424
431
444
439
422
411
401
385
391
423
417
419
418
425
422
416
410
411
418
405
393
406
401
406
439
437
431
423
418
419
425
436
437
435
439
438
430
420
416
422
428
426
423
428
433
432
431
425
436
437
442
449
443
445
444
436
436
430
428
426
455
478
482
467
462
455
449
431
429
440
451
461
461
471
466
473
468
465
459
469
470
462
461
457
462
463
448
451
461
467
468
459
449
459
459
470
474
474
488
457
438
440
446
447
456
469
451
443
444
447
441
440
448
452
449
453
455
455
465
461
455
453
458
448
465
478
475
471
471
465
454
443
448
453
446
449
461
470
469
460
460
465
464
454
467
469
465
464
465
472
488
486
482
494
502
484
455
450
469
472
464
471
469
459
462
464
462
469
474
478
480
460
464
480
485
491
496
491
475
482
494
499
499
493
500
499
497
508
513
500
505
506
508
507
506
510
522
524
500
479
472
481
476
474
476
474
462
460
470
475
464
469
476
473
461
447
457
473
474
475
473
464
458
461
466
456
447
457
461
459
458
454
450
459
458
462
469
466
463
466
462
443
436
441
457
468
460
449
455
460
461
458
457
470
472
465
480
487
489
489
458
442
444
447
445
428
424
418
437
460
451
434
451
469
482
502
506
523
545
567
576
607
634
671
719
753
782
822
869
895
920
955
968
983
989
989
989
989
989
989
989
989
989
946
913
905
878
839
781
718
679
609
556
507
433
369
312
265
208
179
165
166
173
184
191
207
222
226
237
260
275
271
286
309
332
344
327
321
337
361
380
384
383
386
409
434
442
434
413
411
402
378
386
417
431
434
434
434
416
411
417
407
419
422
429
433
431
438
449
453
440
430
434
438
439
435
435
453
455
446
437
432
431
434
452
468
453
451
467
465
462
463
461
453
455
451
457
462
459
454
464
466
457
448
440
440
467
522
532
502
481
468
470
474
479
478
473
460
470
497
497
485
479
475
481
492
490
481
478
483
488
493
505
514
499
499
506
508
511
507
513
507
502
500
496
498
500
508
516
516
517
523
515
515
520
523
531
527
522
525
526
534
541
541
558
566
532
523
529
535
551
557
573
569
553
531
534
547
545
553
556
555
553
553
550
549
548
553
554
554
556
557
558
555
558
559
562
563
558
554
552
559
558
555
559
557
551
545
534
521
516
523
551
548
535
539
557
558
535
538
532
519
505
500
517
542
545
540
533
546
547
526
500
490
473
462
476
505
516
503
486
483
484
485
477
465
462
467
478
467
463
455
450
444
443
439
448
450
457
458
449
437
430
429
436
434
425
421
424
421
419
414
418
433
427
426
409
394
403
416
420
409
407
427
423
426
431
440
447
431
413
403
399
391
387
402
418
407
414
433
440
437
430
418
417
416
404
392
400
407
414
426
432
448
473
470
450
449
465
465
453
454
444
445
448
447
449
453
453
458
458
451
446
437
436
449
446
442
444
445
461
479
454
446
447
461
470
459
448
451
461
467
463
457
456
459
461
449
443
443
448
450
453
486
484
478
473
476
479
471
461
447
452
451
455
437
436
457
458
447
448
455
458
462
475
464
449
461
468
465
449
448
444
444
444
449
456
468
466
461
461
461
452
451
456
451
455
459
469
485
476
465
447
454
467
473
490
498
474
455
440
450
472
468
458
444
441
448
480
478
476
490
502
505
501
490
477
453
452
467
468
479
494
497
487
481
479
474
475
479
480
483
492
487
482
478
479
472
454
455
474
481
479
483
483
483
474
470
473
469
480
481
475
472
488
500
503
506
502
504
516
513
509
514
506
497
493
488
479
500
521
511
511
506
487
473
469
462
482
493
494
484
478
478
474
473
473
477
472
468
465
464
463
458
466
462
464
473
484
476
473
473
463
465
455
445
453
461
466
464
449
426
453
494
499
492
465
465
473
469
461
459
446
448
456
465
472
476
478
475
469
463
458
448
430
443
459
445
438
430
435
453
445
455
463
474
481
491
508
515
512
535
570
607
638
681
720
762
799
826
851
881
915
949
979
989
989
989
989
989
988
988
988
989
989
989
980
937
899
858
817
763
692
634
576
508
433
380
320
256
211
189
186
164
165
170
175
203
234
243
242
256
272
288
293
302
318
334
348
358
367
372
382
382
384
388
396
400
405
408
414
414
404
405
399
392
402
423
425
425
427
425
428
422
417
428
424
431
423
419
427
427
417
431
437
431
440
461
467
460
441
448
471
452
437
435
438
444
448
454
460
462
460
471
479
478
459
437
435
430
434
452
463
454
457
456
459
469
462
462
474
467
457
472
471
461
478
472
470
472
476
484
479
474
480
477
484
489
484
480
482
494
495
497
499
493
498
499
497
493
493
492
500
503
508
511
513
506
504
505
508
514
515
514
512
511
512
515
524
523
521
532
521
505
510
529
543
528
523
540
551
548
546
535
547
550
537
541
548
558
569
575
569
558
558
561
547
544
555
564
566
559
559
579
581
573
572
567
554
563
565
565
576
584
573
555
552
561
566
554
538
536
536
533
536
530
525
544
541
531
534
530
529
536
534
531
533
525
517
523
528
530
523
518
530
518
491
480
479
484
491
505
500
492
504
495
480
468
463
466
463
467
460
462
476
482
478
470
457
453
467
463
457
445
439
438
443
451
436
429
442
451
441
408
411
440
434
433
425
415
410
407
419
423
408
402
414
420
428
429
423
413
408
416
419
413
417
423
409
411
414
415
425
422
426
444
445
429
422
423
430
438
440
440
429
415
418
424
426
432
437
442
448
442
437
450
450
442
441
440
443
437
425
432
450
455
449
442
438
428
414
429
437
452
463
470
471
472
461
466
483
479
463
448
450
446
448
449
452
451
448
435
423
412
439
456
433
452
479
483
476
478
462
463
462
469
468
441
436
447
459
461
465
469
480
478
467
458
453
455
452
441
438
448
449
449
462
481
486
476
469
466
457
460
466
468
472
467
457
444
454
472
479
475
472
472
463
458
454
460
472
474
470
452
455
467
466
464
477
483
487
473
462
455
449
459
462
470
466
469
474
479
469
469
458
447
447
449
440
439
459
464
465
470
471
469
474
476
480
484
468
462
464
462
461
463
478
477
473
467
458
466
490
497
489
466
453
457
466
472
471
475
468
450
460
493
497
494
492
488
494
497
494
484
485
488
486
476
479
492
501
507
501
482
474
477
482
482
480
479
487
496
487
485
478
476
477
477
481
487
492
484
479
495
504
509
507
504
509
507
513
515
516
519
514
507
503
496
494
489
490
505
504
503
494
483
495
517
512
497
494
489
482
482
480
479
484
474
474
478
473
463
455
451
455
474
479
472
458
448
454
445
455
475
476
465
458
461
481
471
458
461
459
457
456
466
466
461
455
457
463
468
468
467
480
478
474
474
462
480
488
497
483
472
470
470
468
459
455
444
438
435
435
447
452
459
464
477
483
488
501
508
525
549
565
597
656
706
747
775
814
846
883
919
949
974
989
989
989
989
989
989
989
989
989
989
989
989
960
925
885
846
800
735
652
583
508
438
393
344
298
267
210
171
142
141
148
164
174
182
201
214
236
252
259
270
286
301
319
334
350
362
357
371
380
386
404
411
410
406
403
412
421
415
410
405
412
429
426
421
417
417
414
415
402
402
411
423
425
420
428
429
433
432
436
440
441
441
434
446
462
455
441
434
449
469
458
448
435
438
447
445
440
453
475
468
461
461
459
451
451
467
472
474
469
468
474
478
478
476
473
466
477
473
466
465
471
476
482
480
479
492
477
468
473
479
482
480
487
492
510
494
504
512
509
502
479
472
477
478
492
504
501
492
500
512
532
534
524
511
509
509
513
515
515
510
503
511
526
531
533
537
529
537
537
533
527
510
516
524
549
569
569
547
542
552
551
551
544
539
551
568
560
546
555
556
554
554
568
573
562
560
578
581
575
569
564
560
555
557
555
551
541
545
548
567
573
576
578
576
567
555
556
545
544
548
547
549
534
526
535
551
542
538
543
544
548
540
524
514
525
523
530
528
526
529
520
489
478
481
473
486
506
520
513
491
488
505
505
499
495
486
472
441
453
462
482
477
462
453
451
454
452
452
449
444
440
432
425
421
435
425
437
436
424
408
400
391
399
406
411
424
415
409
415
412
406
404
420
431
420
417
420
412
415
406
407
409
402
396
397
421
417
424
443
445
429
427
425
434
428
435
445
435
425
417
425
425
420
422
418
428
418
414
445
442
425
430
439
457
449
432
431
433
456
463
445
438
443
444
447
455
455
449
442
440
432
424
431
441
453
447
446
443
451
454
458
446
434
436
449
457
453
447
444
448
460
457
451
444
440
443
454
451
448
467
457
455
441
426
428
437
443
450
464
471
461
447
438
445
446
456
464
472
471
460
460
452
453
451
437
437
443
463
483
476
443
453
463
469
472
457
462
464
461
457
457
452
448
451
453
459
453
467
476
467
465
475
476
465
459
452
455
454
451
445
450
454
442
443
456
470
476
481
473
473
477
474
474
482
479
468
462
449
456
470
472
463
462
461
464
466
450
450
463
468
471
464
454
455
457
450
454
457
452
469
481
469
450
455
467
473
483
479
481
489
479
466
461
460
463
470
471
470
470
468
476
473
467
468
470
469
459
459
465
479
484
481
490
496
486
474
475
476
480
481
480
489
494
495
495
494
489
484
494
490
485
477
480
481
480
476
487
487
476
464
483
499
496
492
487
475
467
463
476
487
488
488
478
475
484
478
486
492
500
496
501
516
513
508
515
527
532
532
543
535
510
500
495
497
489
488
496
496
500
508
511
508
496
506
481
469
459
460
462
456
451
453
459
469
475
467
442
432
468
485
484
495
508
495
485
481
480
473
459
471
485
481
479
474
472
465
460
458
456
475
482
473
463
465
466
468
479
502
478
460
465
470
467
453
463
478
486
483
475
464
446
443
438
434
444
449
446
446
457
474
485
499
488
504
523
539
557
562
609
655
694
748
806
844
865
887
912
939
969
990
989
989
989
988
988
988
988
988
988
989
989
966
913
871
842
794
724
649
587
530
472
414
338
258
214
164
128
106
115
143
168
186
193
206
228
234
250
271
272
278
294
309
328
350
369
384
388
392
390
388
389
395
401
409
404
395
407
418
417
421
430
428
416
429
454
452
434
417
413
401
401
398
419
442
449
429
425
424
431
439
448
451
453
460
438
425
439
444
441
448
447
443
441
434
432
431
432
452
456
453
455
473
485
480
471
473
479
471
463
458
461
464
473
479
495
495
477
462
470
471
466
463
468
474
471
477
484
484
493
505
503
508
512
524
520
496
480
482
493
505
510
505
505
510
504
508
521
532
509
496
503
506
492
502
510
513
513
529
553
543
533
527
523
536
538
533
532
531
536
549
552
542
536
540
542
536
537
540
542
546
562
587
588
575
551
549
547
562
569
567
559
556
560
558
558
562
575
595
583
563
569
574
571
565
559
560
570
574
584
575
565
558
557
553
562
552
548
560
567
591
574
550
540
539
536
534
515
510
492
500
525
542
547
558
564
566
554
537
530
519
511
519
523
534
530
530
523
518
512
504
499
488
492
498
488
469
461
463
463
453
446
446
458
448
441
446
440
439
428
427
427
427
417
412
433
434
425
431
441
432
416
405
402
402
404
403
398
405
416
429
429
413
397
387
403
427
425
421
428
439
438
430
411
389
386
413
418
422
424
426
422
419
421
419
419
414
420
423
427
428
432
427
417
412
399
410
443
440
453
454
442
425
419
417
423
439
458
459
456
449
439
439
451
457
464
453
445
452
465
452
449
445
453
451
440
429
441
441
434
441
453
457
461
472
453
452
458
450
446
450
450
464
460
444
441
444
442
446
447
448
452
462
455
442
442
450
443
437
433
441
442
445
457
460
456
437
439
449
462
469
467
462
456
459
455
450
452
469
476
457
459
461
427
411
433
446
452
448
449
465
480
479
472
471
469
465
464
471
478
473
455
439
445
452
457
449
437
442
450
462
473
474
466
466
472
468
459
469
483
464
457
455
452
450
464
469
470
474
470
467
474
473
465
456
444
456
485
488
462
457
463
468
465
462
467
458
456
456
463
460
464
459
460
468
465
464
468
478
468
463
468
472
473
472
476
468
466
467
465
447
450
461
474
467
459
459
457
473
503
512
484
460
473
482
483
484
477
472
471
476
485
493
504
510
499
498
496
497
489
484
479
475
486
490
485
474
485
489
486
479
488
485
471
465
454
455
466
479
489
501
501
504
496
498
510
517
530
537
533
531
526
527
530
541
536
518
505
503
507
519
518
508
487
466
469
482
492
486
487
488
483
479
471
467
464
471
485
484
475
471
470
463
462
463
474
470
465
470
475
462
453
455
457
450
438
448
469
461
442
457
469
469
467
471
493
493
490
487
477
471
477
477
470
467
465
477
472
470
469
471
472
466
465
470
454
439
423
422
439
437
422
433
457
472
473
486
494
492
486
508
525
543
562
599
649
689
737
775
817
849
869
884
922
989
988
988
988
988
988
988
988
988
988
988
989
989
980
950
907
858
809
740
673
619
558
498
440
382
302
221
159
132
119
112
122
139
171
187
199
204
220
233
242
232
246
283
298
301
315
337
379
396
392
391
398
399
404
404
411
415
429
418
410
407
398
398
416
418
419
416
407
416
418
428
439
435
440
440
424
416
420
435
442
431
428
440
443
441
442
444
441
439
441
444
447
456
444
446
451
450
451
455
456
467
462
463
470
471
474
463
462
472
474
475
470
456
459
469
475
467
467
463
463
465
473
483
488
491
493
490
496
504
495
492
490
486
478
483
496
504
519
507
482
475
490
502
516
521
533
548
546
524
493
511
508
499
508
511
510
508
513
511
523
526
524
533
548
542
529
524
527
531
531
533
546
551
553
561
552
549
549
542
549
563
563
569
575
576
577
573
563
555
559
558
559
568
571
572
568
566
568
572
572
567
570
570
564
569
578
580
571
561
563
571
572
560
557
562
562
570
574
577
571
553
549
541
533
529
529
529
532
553
548
533
546
557
557
535
527
543
557
559
554
553
541
541
523
510
498
495
497
502
507
516
503
498
493
483
491
493
476
475
473
459
448
448
450
448
455
451
450
455
454
446
443
439
438
436
430
427
425
413
404
403
401
401
414
413
414
416
408
408
425
440
422
376
363
395
418
411
398
399
392
388
389
396
403
411
420
424
423
424
437
444
420
391
376
400
435
438
434
433
425
420
416
418
421
421
430
423
427
435
433
439
433
421
434
457
467
450
444
443
440
432
441
444
442
440
441
441
430
430
433
433
432
420
425
435
438
439
435
434
437
449
443
451
460
451
433
423
454
463
452
471
473
474
462
465
483
490
463
441
435
436
442
441
432
432
437
444
448
451
444
444
449
447
440
432
431
434
453
455
463
463
464
463
451
446
443
445
464
461
460
462
472
471
439
427
446
449
449
459
448
446
488
497
481
472
461
453
462
458
454
456
459
460
454
463
457
449
461
467
448
436
437
438
459
479
480
467
468
467
461
451
454
454
454
453
468
477
486
485
466
462
472
475
474
470
459
452
451
457
470
476
472
478
480
474
469
471
462
470
472
460
460
462
469
474
486
467
457
457
454
458
470
471
477
483
478
467
465
464
468
467
459
453
463
481
490
488
480
474
472
466
459
474
489
486
478
480
482
474
467
462
463
467
473
465
462
469
485
487
481
484
487
483
486
488
476
466
458
463
475
477
473
472
482
486
480
472
470
482
493
503
494
504
508
517
517
510
514
506
479
478
484
480
484
494
496
488
484
487
479
491
498
492
480
466
471
512
534
520
508
504
520
526
515
516
522
522
526
513
503
517
509
501
499
519
519
512
511
503
500
492
507
516
513
499
486
480
468
463
468
481
475
487
473
452
447
451
456
469
473
457
455
465
483
481
466
467
471
480
479
487
462
458
458
463
463
468
483
491
488
485
491
480
466
460
458
456
459
465
475
487
489
480
475
475
477
471
472
476
464
446
445
437
427
425
429
430
438
452
455
464
469
487
504
510
519
527
549
583
618
646
689
743
798
834
857
899
937
955
966
990
989
989
988
988
988
988
988
988
988
989
989
990
945
894
860
810
733
657
590
535
483
451
398
319
241
159
132
134
121
124
148
171
189
203
207
211
222
232
242
259
268
292
310
343
358
364
379
385
389
387
390
406
423
420
422
421
424
426
425
437
441
435
428
422
399
399
403
404
401
399
398
397
407
435
447
439
444
448
439
435
427
424
456
475
459
454
440
439
445
447
450
452
452
457
444
442
443
440
442
465
478
478
472
467
462
462
452
462
470
453
469
481
478
476
484
490
488
484
483
481
480
489
485
478
481
477
478
485
509
504
496
504
507
499
496
505
506
506
506
512
505
494
496
510
505
493
496
508
507
499
499
512
511
516
525
517
526
523
514
510
501
495
513
534
532
520
507
526
549
558
562
550
547
546
552
555
560
563
556
558
556
558
555
564
574
567
548
551
543
548
570
575
586
586
584
569
579
597
592
601
598
586
574
575
595
596
584
575
575
561
557
552
557
553
556
552
561
569
571
565
560
558
564
563
556
555
556
549
543
535
539
545
545
541
544
534
540
548
534
535
523
510
509
504
497
487
485
502
515
518
509
501
494
491
484
463
456
461
469
477
471
469
456
445
442
437
438
442
429
422
424
443
466
440
413
409
411
408
392
400
395
385
383
405
412
413
428
426
408
417
423
415
403
404
398
393
399
394
399
404
420
423
420
421
417
413
407
409
412
410
424
429
433
422
417
415
410
414
412
422
427
424
412
415
412
410
423
430
436
437
447
453
448
454
449
447
454
448
429
418
412
415
419
426
433
430
432
448
460
451
446
447
445
444
434
422
429
429
429
430
421
440
455
439
437
449
447
445
453
451
454
447
443
436
438
451
455
446
438
450
437
430
440
445
449
448
438
432
433
444
466
472
463
466
473
462
465
457
447
451
461
453
454
467
466
464
468
470
460
454
462
476
472
452
444
456
463
468
470
468
457
455
457
453
443
446
455
470
463
465
453
453
472
470
464
456
460
453
446
454
462
459
453
453
452
448
443
435
457
448
433
448
464
467
466
464
458
450
460
461
451
455
467
475
474
483
477
460
455
459
460
451
443
446
451
466
477
478
484
493
492
486
483
480
470
471
474
483
473
474
475
484
506
514
485
463
462
452
455
472
473
471
466
465
478
483
489
484
468
462
464
475
468
457
459
456
471
488
484
483
486
477
456
462
472
487
490
491
493
483
493
508
498
486
476
486
496
472
460
468
485
464
460
480
482
489
502
503
500
503
504
485
486
481
466
471
470
484
512
512
496
500
508
504
512
518
529
530
538
539
536
537
537
520
488
468
469
487
504
517
533
524
511
520
529
516
512
503
496
488
482
491
476
462
454
444
447
450
468
468
480
482
479
467
463
460
473
473
474
494
493
485
483
485
466
446
450
449
468
463
471
490
481
475
474
463
449
444
439
441
459
474
496
498
485
480
475
471
475
472
462
438
439
437
423
417
430
455
455
457
444
453
473
476
477
490
492
500
524
547
587
620
645
678
708
786
831
865
886
906
944
964
988
989
989
989
988
988
988
988
988
989
989
989
978
949
911
873
814
756
684
601
532
488
446
394
318
250
194
154
138
122
117
121
129
144
181
213
226
229
239
252
268
295
307
320
324
337
371
394
392
372
378
387
382
390
395
405
407
405
394
395
413
422
415
403
411
409
401
419
433
431
432
430
440
428
427
424
428
439
442
444
454
447
431
431
442
448
441
422
430
445
458
449
442
453
459
455
441
449
453
457
455
449
457
471
490
492
483
470
459
456
464
469
478
490
484
477
457
457
468
465
475
485
492
508
503
507
511
516
522
512
504
492
490
496
494
483
467
486
492
483
513
517
509
525
534
523
513
506
503
509
521
521
521
507
521
534
519
508
509
516
519
521
516
514
516
522
531
532
531
524
518
516
523
527
543
561
562
562
567
567
560
559
562
557
568
573
572
569
578
586
574
578
583
580
582
584
567
578
592
588
568
568
571
582
581
583
588
586
568
552
553
552
547
555
559
582
596
586
567
567
559
546
562
577
578
571
570
559
547
543
549
542
554
551
545
552
550
531
517
515
523
515
497
500
509
514
509
492
482
490
495
498
498
487
483
470
468
485
480
460
456
460
462
459
446
430
433
428
431
439
431
422
426
433
425
414
418
424
418
420
413
419
425
433
431
412
396
388
400
404
395
393
390
391
395
391
394
396
400
419
422
425
421
412
404
401
422
412
406
419
427
418
420
415
427
435
424
433
426
413
414
413
425
421
418
434
446
436
435
439
437
437
437
437
434
437
414
396
420
449
452
449
434
449
459
444
444
445
463
450
446
456
453
449
441
435
433
450
455
454
456
453
458
460
449
445
446
445
446
439
436
433
438
442
450
448
446
456
455
461
458
463
466
461
436
424
432
432
439
454
452
465
457
463
474
470
452
454
455
453
455
457
447
441
445
451
462
449
446
465
461
432
436
454
456
459
460
459
451
465
478
464
466
455
466
467
451
442
448
453
468
470
467
469
469
460
447
450
452
462
464
465
469
463
459
450
453
459
483
488
480
474
468
456
456
466
469
476
472
460
470
472
467
466
464
463
457
459
470
480
475
474
479
476
450
461
456
461
471
469
461
446
445
462
470
479
491
489
476
473
481
477
453
445
462
490
485
472
449
438
457
465
469
480
493
499
499
499
494
491
493
501
502
501
489
485
498
491
485
484
486
488
484
482
479
476
476
470
471
471
487
495
484
481
491
488
490
494
504
507
509
501
497
513
531
533
544
545
543
515
501
506
510
503
508
516
510
511
504
493
492
505
518
498
488
469
459
458
466
484
485
473
475
475
475
472
464
461
455
463
475
476
471
474
467
469
474
469
463
459
461
454
441
462
487
491
488
477
466
462
457
453
459
472
465
448
452
450
445
453
462
465
468
468
469
476
470
467
466
464
461
457
446
442
442
438
439
445
439
445
457
462
481
492
488
489
515
548
553
555
564
592
640
702
758
810
839
866
890
911
935
956
976
990
989
989
989
989
989
989
990
976
947
907
870
821
785
750
699
639
591
546
494
437
387
333
259
196
156
134
130
131
138
153
176
208
220
228
236
246
264
282
292
297
304
312
313
351
380
382
396
405
406
403
403
405
418
434
441
420
409
416
425
440
429
414
416
430
437
445
456
446
445
440
434
435
441
451
434
428
431
436
442
464
470
460
450
464
456
443
451
457
466
478
470
449
455
450
455
463
470
478
485
489
478
478
478
477
474
474
471
466
464
459
472
490
497
484
477
479
472
482
483
483
478
480
496
498
499
506
491
473
472
462
480
496
487
480
491
493
491
510
519
516
519
517
522
528
527
534
540
548
524
529
522
513
514
510
508
503
520
521
532
543
540
542
553
541
530
536
539
539
542
540
532
532
533
537
531
540
558
570
567
567
560
559
558
564
570
578
585
580
573
579
577
587
593
581
566
559
554
554
568
576
569
567
575
573
575
588
576
562
550
553
553
562
582
584
562
561
577
577
573
566
565
550
544
538
538
539
539
539
538
539
539
525
519
515
525
537
547
547
537
523
510
509
513
508
492
482
482
485
487
492
502
508
488
468
456
452
446
450
449
445
445
439
450
454
445
433
427
424
421
415
409
424
422
414
421
415
412
415
416
410
401
395
411
410
398
395
408
421
409
400
397
392
392
405
406
415
418
413
417
417
421
418
419
412
397
393
410
416
418
413
413
419
419
421
413
417
422
428
436
433
425
422
423
424
441
457
435
419
423
421
419
430
432
439
445
444
443
441
440
434
435
426
419
421
427
433
431
437
458
468
469
475
470
456
451
454
454
453
459
459
460
453
448
443
447
445
459
449
448
447
448
439
428
422
429
447
465
462
465
469
473
457
459
449
452
457
459
457
455
446
444
447
447
446
435
435
448
466
449
454
464
468
469
459
463
463
457
451
445
450
449
453
458
454
459
460
448
448
451
455
460
456
457
472
478
461
462
470
459
465
465
452
442
453
475
452
437
444
444
442
450
456
472
475
465
445
432
436
467
478
475
477
470
469
463
465
466
471
469
470
479
482
482
483
471
471
475
483
474
476
469
479
480
481
472
478
485
487
481
479
479
460
460
464
474
472
471
479
490
493
472
465
465
464
461
470
489
492
491
481
470
468
473
479
486
492
495
503
500
492
487
499
520
530
539
532
519
517
527
516
485
467
473
458
458
470
478
473
465
461
469
477
469
461
460
469
471
465
453
452
458
458
467
466
465
462
458
448
450
464
469
470
467
467
463
458
461
464
463
477
481
479
482
476
471
466
461
453
459
463
463
472
472
486
480
467
460
459
464
460
460
455
454
452
441
434
431
422
421
419
425
442
455
467
482
490
501
505
507
522
535
545
574
613
644
690
727
765
803
846
864
878
896
928
957
990
989
989
989
989
989
989
989
987
962
912
874
851
835
804
744
680
614
568
525
479
418
361
294
244
201
154
135
142
150
156
170
203
223
242
259
271
273
272
284
299
308
334
352
357
360
363
379
399
405
397
384
394
420
426
437
447
446
436
422
409
423
435
438
440
436
436
441
429
425
426
431
427
431
443
450
449
440
443
447
458
450
438
432
439
442
443
452
461
472
471
464
455
456
475
477
461
448
469
466
450
445
444
470
469
468
463
461
464
461
464
473
477
477
484
486
489
485
485
491
485
488
498
492
481
479
477
472
472
467
485
507
509
504
512
521
517
499
494
503
509
508
500
502
505
500
489
493
505
512
508
493
523
546
545
539
539
527
522
521
525
532
549
556
563
564
544
540
545
559
557
544
535
534
535
543
554
558
556
555
560
570
576
578
564
554
542
542
562
568
571
577
573
574
578
583
581
573
557
552
570
573
568
566
570
574
563
558
551
547
559
562
565
562
553
573
589
574
566
569
570
562
555
547
546
551
561
560
550
542
532
535
535
524
522
517
511
509
510
513
509
502
495
507
508
504
497
490
497
493
467
449
445
453
456
451
450
438
436
444
446
446
449
444
434
436
434
423
422
420
401
400
414
425
427
435
432
428
432
436
436
439
401
374
372
386
395
402
412
409
409
397
389
388
398
396
406
415
410
401
399
398
426
452
449
440
424
429
433
422
416
426
433
428
424
420
425
429
429
433
429
423
435
450
444
438
442
449
449
441
444
453
450
442
451
447
435
428
436
441
443
449
449
450
447
453
457
447
444
441
442
445
451
457
445
450
450
444
446
450
460
458
464
466
463
467
459
471
466
449
453
454
438
429
438
447
438
452
439
441
465
472
470
470
495
494
475
469
468
465
466
458
452
457
463
466
466
464
462
464
464
460
454
454
455
466
465
453
454
459
469
470
463
459
464
460
460
464
481
468
458
463
463
464
460
464
463
454
461
461
455
461
455
453
461
462
470
479
486
480
472
470
467
464
466
457
470
485
484
467
464
475
489
471
449
447
452
466
467
471
490
474
471
480
475
489
496
492
485
471
462
462
460
460
475
490
512
518
500
501
498
482
482
483
487
489
494
488
486
486
478
468
466
463
467
469
477
487
480
480
476
486
495
495
499
496
502
508
503
508
513
511
507
512
514
509
508
506
497
497
504
508
524
527
531
535
531
521
498
480
467
474
476
476
476
484
485
488
485
464
455
455
451
449
470
478
469
465
463
471
479
473
463
458
457
466
462
476
477
469
465
467
467
473
473
465
466
469
471
464
451
449
463
474
481
472
464
464
468
461
454
459
463
455
473
482
469
456
448
453
451
441
424
432
451
471
467
464
465
468
484
496
508
515
528
550
581
607
643
685
734
758
792
846
879
910
943
975
984
990
989
989
989
989
988
988
989
989
989
976
938
914
877
826
769
727
659
600
558
502
449
391
341
270
205
164
153
155
167
186
198
205
210
218
236
247
259
272
285
301
316
321
331
340
345
360
386
403
397
384
397
409
411
424
429
434
422
421
425
416
413
415
412
412
420
418
423
429
434
428
425
421
428
436
430
422
422
431
442
445
430
442
468
472
471
465
460
460
474
478
469
467
468
470
464
464
463
466
468
468
474
475
472
471
478
471
454
454
453
461
474
485
493
503
506
508
494
491
485
480
484
492
503
511
511
490
492
504
496
493
502
511
512
500
503
513
504
494
489
499
496
490
500
513
515
508
509
506
505
513
505
504
506
507
515
532
526
525
527
527
538
545
555
553
554
554
571
558
538
527
529
535
540
531
526
544
547
550
552
557
556
558
569
552
530
519
515
533
591
620
613
607
596
596
592
584
582
586
595
599
588
578
572
575
577
583
581
577
577
561
535
539
566
582
565
561
570
563
556
553
553
549
542
551
549
531
540
553
545
533
506
511
522
523
522
529
516
520
530
531
525
526
523
515
505
495
496
498
509
497
496
497
468
440
436
455
447
448
455
451
444
439
432
435
437
426
423
421
416
411
400
398
411
417
420
418
411
402
392
399
414
420
409
409
414
402
407
412
410
404
392
386
393
420
432
420
409
410
415
422
419
416
412
409
411
403
405
407
408
404
404
409
417
423
450
466
455
445
442
444
440
439
439
432
444
441
444
446
452
458
454
445
435
433
428
438
436
432
433
443
466
453
445
436
444
445
442
437
433
433
436
438
439
447
450
451
442
441
458
462
448
441
450
460
455
445
446
454
460
467
455
450
454
464
471
466
454
448
451
443
448
456
456
454
447
452
466
465
462
458
447
462
465
464
469
469
461
455
451
460
461
454
463
482
475
474
474
462
448
442
439
451
460
470
482
486
477
477
497
482
460
456
453
450
455
456
454
461
475
474
463
453
456
454
459
454
466
481
485
481
477
478
481
468
462
458
453
460
461
465
465
462
462
469
472
481
459
449
460
466
467
476
476
476
478
470
464
459
464
473
475
470
471
484
489
486
471
453
452
465
469
467
458
477
493
483
471
473
478
491
484
476
472
469
488
507
513
513
502
482
479
485
487
489
483
482
489
498
493
492
481
477
476
478
473
470
465
471
490
512
506
494
488
485
479
473
468
477
467
484
491
501
507
504
512
514
514
520
524
515
507
511
509
509
504
497
504
498
489
489
487
500
511
503
500
503
500
485
481
478
482
485
480
480
481
479
474
481
469
466
481
477
470
462
460
457
454
461
466
465
458
452
452
473
490
485
478
478
477
485
494
503
492
481
466
454
450
455
466
471
473
477
480
484
486
472
464
462
466
465
463
463
465
468
478
484
482
463
459
457
452
451
441
433
434
432
432
435
440
446
458
474
479
480
489
501
517
554
584
612
649
691
734
767
808
843
867
888
912
947
971
989
989
989
989
989
989
989
989
989
989
990
965
926
872
828
787
727
660
596
547
508
456
387
327
276
224
183
161
159
166
178
193
201
207
243
273
261
247
239
254
282
311
335
359
385
383
383
383
385
399
409
410
411
413
423
434
438
428
394
390
405
415
421
424
423
424
432
425
415
419
425
431
434
427
424
426
439
451
450
440
440
448
449
450
440
431
416
415
439
474
467
452
450
456
454
445
451
462
489
496
493
488
483
488
484
477
468
466
475
482
484
485
479
471
477
498
516
515
491
471
457
450
464
483
494
483
479
490
492
487
488
496
494
479
490
495
483
465
466
477
483
491
503
504
499
493
500
514
514
519
524
525
538
539
543
541
528
508
501
486
493
532
557
570
557
554
543
536
533
543
522
529
538
535
551
572
561
555
568
577
571
570
569
576
577
569
558
566
569
573
584
576
589
581
579
577
582
584
579
556
563
574
572
571
564
561
562
568
562
560
561
560
559
560
567
561
560
554
548
552
543
538
543
545
540
539
536
529
529
535
539
534
539
538
536
520
516
520
520
512
502
495
477
472
472
486
482
485
485
477
470
471
491
491
497
494
470
449
444
444
453
455
457
466
462
450
446
451
452
427
401
401
423
441
447
445
420
399
395
397
390
390
406
422
419
411
403
415
412
408
403
400
402
403
409
409
410
408
415
411
407
404
407
416
407
404
406
403
431
431
436
429
423
424
424
410
409
409
416
421
428
430
440
435
435
440
442
436
437
439
432
430
439
429
421
426
425
446
463
450
436
429
431
437
441
447
467
469
450
434
425
422
424
430
455
473
476
475
475
476
473
471
458
443
441
443
443
444
443
447
461
469
464
458
461
462
451
449
458
466
466
463
457
459
455
455
462
466
465
465
461
461
469
465
457
445
438
451
461
456
448
452
452
455
447
456
447
446
451
449
445
453
454
456
465
474
485
488
470
454
461
457
456
473
484
487
470
471
465
464
469
470
482
468
447
442
456
446
443
445
450
457
465
472
467
462
466
472
484
477
469
470
468
457
456
465
472
473
482
483
482
480
466
458
450
444
444
461
474
480
477
475
478
477
476
475
468
452
454
457
469
479
477
475
469
461
458
477
490
484
479
468
455
465
472
470
475
474
473
481
478
470
464
475
475
472
469
472
478
485
462
452
475
485
488
495
496
487
463
451
453
462
467
469
467
472
473
478
491
497
488
490
498
499
511
511
498
485
478
474
463
479
498
481
470
481
497
510
506
496
489
485
484
484
490
487
473
482
499
497
495
499
503
498
496
496
503
506
498
498
516
521
519
514
519
540
532
532
526
519
526
520
509
503
500
501
508
507
504
504
501
501
514
505
492
482
483
484
475
461
464
466
465
467
475
466
450
438
447
466
462
455
463
469
474
463
461
470
465
452
460
470
469
470
471
468
466
455
454
462
459
459
462
457
452
465
471
472
469
474
475
476
485
484
472
468
462
453
451
458
458
457
458
442
441
439
432
434
438
449
451
447
455
481
506
503
514
537
570
610
642
688
731
777
802
825
854
886
924
964
983
989
989
989
989
989
989
989
989
988
989
989
976
923
905
878
828
767
695
621
554
492
453
417
364
305
248
195
163
154
159
169
174
183
207
220
237
250
261
266
274
282
299
336
369
363
362
370
376
387
385
399
405
405
406
398
401
402
402
405
408
407
410
425
430
430
427
438
438
433
437
437
430
423
417
425
424
424
418
424
430
447
447
443
449
468
457
452
446
449
456
456
442
444
453
452
449
450
457
459
471
480
476
465
463
471
476
465
449
453
459
458
456
456
458
462
459
460
467
472
476
467
474
477
469
481
486
480
477
472
465
466
461
469
490
500
496
495
506
503
496
499
509
507
502
502
496
512
526
533
516
501
502
506
510
518
521
520
515
502
501
520
538
537
549
552
549
545
539
532
525
516
527
524
541
553
553
557
551
558
565
570
582
577
574
562
544
563
585
582
574
572
572
571
575
577
567
572
573
572
579
580
585
587
583
569
571
579
578
572
571
580
578
584
590
582
565
565
564
551
538
546
553
547
553
542
532
548
557
551
541
531
520
522
521
522
524
522
522
527
524
519
511
504
497
499
506
502
500
502
492
477
487
501
481
469
461
458
468
465
465
440
428
425
422
429
430
445
445
435
430
428
415
414
424
418
416
412
412
428
426
420
416
405
406
414
411
400
413
418
424
412
405
411
405
407
413
410
410
409
399
401
413
416
408
404
408
411
415
417
408
412
405
403
401
396
420
434
424
419
424
414
428
437
417
405
417
432
443
447
449
446
441
449
464
442
420
434
432
431
431
431
429
424
428
423
430
447
458
451
443
451
463
468
463
450
438
445
439
441
454
455
452
443
450
450
446
440
434
434
441
447
455
466
489
487
471
456
441
440
446
474
483
463
457
468
472
469
465
463
466
468
462
458
453
457
463
462
455
456
458
452
467
468
467
460
465
463
458
465
451
457
459
480
489
473
449
439
445
455
452
448
456
458
458
457
456
453
460
467
467
452
446
468
475
466
455
444
442
458
470
479
478
469
464
469
473
471
459
458
458
460
461
458
456
451
454
467
466
464
473
459
458
460
466
472
486
487
469
458
460
462
457
453
454
469
477
490
502
499
485
477
489
479
476
485
490
489
479
473
480
473
467
481
488
485
468
454
455
462
461
458
465
472
475
479
476
463
459
458
453
453
457
461
461
451
460
483
485
485
482
481
482
486
480
484
484
474
469
470
480
479
486
493
484
481
487
482
471
481
499
492
501
503
497
501
508
509
504
501
499
491
478
471
456
461
463
471
490
502
510
499
505
506
498
500
496
491
494
506
508
509
512
519
519
535
549
535
512
498
488
496
512
510
519
529
520
512
512
513
512
506
499
502
501
501
498
493
486
485
481
476
473
459
459
452
446
447
446
450
471
490
473
463
466
462
461
466
467
462
471
480
468
456
456
463
460
452
451
456
473
474
460
470
472
462
457
466
470
469
469
464
457
452
458
460
458
450
459
455
453
462
459
468
471
468
480
455
431
424
427
431
446
456
477
478
475
498
521
525
545
593
627
669
715
749
784
815
858
898
932
958
986
989
989
989
988
988
988
988
988
988
989
989
989
968
950
913
864
796
726
650
589
542
488
423
358
301
243
186
141
122
121
142
160
170
180
192
201
215
243
250
259
279
285
291
312
334
359
372
388
400
387
381
395
406
400
400
400
403
412
415
420
421
410
382
379
391
404
409
402
403
411
418
425
432
434
439
429
412
410
424
447
455
443
447
445
436
432
436
447
454
429
422
429
440
452
446
447
466
468
469
469
465
473
469
464
461
457
461
468
472
467
475
482
459
454
474
483
479
473
466
474
472
474
493
498
486
478
469
474
482
488
489
498
507
491
491
494
487
476
476
467
469
489
512
521
526
515
509
501
513
518
526
530
520
504
500
515
526
532
530
534
531
540
534
515
520
529
534
532
534
544
544
531
538
554
557
554
549
547
556
560
562
569
571
571
573
576
574
574
581
575
576
577
570
571
571
588
593
591
586
591
577
575
580
596
597
586
578
583
579
596
594
576
563
560
560
562
566
566
549
539
538
531
550
575
579
563
562
562
555
550
533
533
542
530
519
530
526
529
529
519
514
519
517
509
502
501
498
495
506
497
484
491
482
460
441
448
445
436
435
441
457
453
438
414
423
443
445
441
432
418
402
402
405
406
423
425
424
408
401
399
390
393
397
405
400
395
400
408
404
398
401
396
393
398
397
400
406
407
404
395
388
398
408
408
405
402
400
406
408
416
434
433
427
427
428
433
424
403
409
419
412
406
398
406
416
408
424
446
443
440
443
454
440
432
420
418
432
441
446
442
435
438
448
439
434
440
447
448
447
454
451
449
449
455
452
444
434
427
440
454
449
447
449
451
452
449
445
453
457
459
458
455
446
442
442
447
451
445
462
471
463
454
455
461
444
444
450
454
445
448
460
445
437
454
475
470
467
465
471
474
455
436
440
444
463
471
456
447
455
465
460
450
436
436
430
430
449
467
488
494
479
470
469
463
455
456
455
445
446
452
457
466
472
461
451
452
458
461
465
464
458
459
458
464
456
450
448
445
460
475
482
481
476
472
468
463
461
467
478
471
468
476
492
479
464
467
466
466
469
472
465
461
449
462
481
481
472
470
464
457
457
459
462
460
480
489
497
494
472
474
473
469
469
470
471
467
463
463
473
471
473
472
460
464
472
468
467
466
456
464
479
473
469
475
477
472
469
474
475
472
472
476
475
472
483
474
471
478
470
481
475
471
471
471
468
469
481
496
503
481
466
469
477
485
492
497
494
483
490
495
484
488
499
489
491
499
499
506
511
510
501
487
498
487
473
469
471
475
480
486
488
494
496
496
493
482
505
506
501
500
503
501
502
508
510
501
511
523
527
547
535
519
514
510
515
512
505
506
509
513
507
492
492
491
484
473
459
470
480
492
502
504
501
486
473
469
463
468
481
485
480
466
461
456
460
471
471
461
457
470
463
462
473
483
468
459
453
449
458
463
474
476
470
470
472
473
476
480
479
481
476
459
450
450
453
457
455
449
455
454
450
447
446
437
431
422
419
418
414
420
433
459
468
472
474
485
492
523
540
547
585
611
647
692
746
792
833
862
877
936
981
989
989
989
989
988
988
988
988
988
988
988
988
989
989
952
913
878
819
756
672
606
541
482
421
357
295
229
178
137
116
121
132
157
169
184
191
206
217
229
240
265
293
302
310
323
338
353
356
348
350
369
388
397
396
385
376
390
394
401
398
393
399
404
428
427
419
406
413
416
406
402
412
402
407
416
431
440
444
436
431
449
449
437
431
428
421
404
417
425
428
443
459
453
440
448
452
450
446
457
459
455
450
448
452
457
459
456
460
460
458
460
460
467
473
473
469
461
461
468
470
466
466
467
479
486
479
473
466
472
481
482
484
486
488
500
504
494
478
486
485
492
502
518
514
535
561
521
515
494
472
474
493
504
509
517
535
543
516
523
528
529
521
518
518
524
530
529
535
528
534
538
541
550
564
565
554
551
548
551
568
576
572
568
571
574
573
572
574
561
568
577
577
582
587
589
586
591
593
598
596
590
587
587
589
586
583
580
592
595
601
591
572
588
599
581
577
588
581
582
559
533
543
544
535
544
551
556
561
556
546
538
530
532
527
541
553
540
527
531
539
517
502
498
495
501
490
480
497
486
484
491
491
486
480
472
471
468
455
456
461
448
440
431
426
423
430
422
420
413
416
428
437
428
431
422
418
407
402
394
401
387
378
389
407
413
414
418
418
407
399
402
394
394
392
398
411
420
402
392
390
395
409
416
416
415
408
403
402
392
382
388
404
408
407
412
414
410
405
418
423
419
417
420
419
411
403
408
437
448
445
446
448
430
417
409
405
401
409
439
454
459
444
433
443
443
432
436
455
452
442
442
453
440
433
430
441
438
436
461
454
436
432
447
458
468
468
454
453
448
441
456
470
456
452
464
464
460
462
462
450
450
450
449
455
468
475
461
446
441
434
430
433
437
454
468
476
465
459
469
466
460
449
457
461
459
450
447
449
455
450
451
449
448
448
449
453
459
455
458
450
443
463
452
449
458
474
464
452
451
452
451
450
449
450
453
458
460
457
465
469
470
465
462
459
456
464
471
465
461
462
459
463
455
456
464
469
465
469
458
469
463
456
464
474
458
443
448
453
465
484
495
488
496
476
460
460
461
468
480
481
471
467
462
457
454
460
466
467
461
458
475
484
480
475
464
465
468
474
472
481
467
452
447
474
482
478
469
470
479
464
464
469
468
466
467
472
464
474
484
487
483
482
472
462
468
479
489
506
507
498
496
501
495
478
479
484
488
495
500
517
507
496
492
484
491
486
486
492
493
492
496
496
497
499
497
503
508
508
509
515
516
520
516
515
522
528
526
524
527
533
521
489
494
516
521
512
499
490
486
488
485
486
484
488
487
476
469
458
457
456
474
470
461
458
460
479
472
458
462
470
468
468
467
457
458
465
474
484
482
485
487
476
460
455
451
450
455
470
469
475
478
465
459
456
457
452
459
464
462
457
461
476
474
463
459
459
453
457
459
452
442
438
434
423
428
444
453
454
465
474
481
478
501
535
555
577
606
643
687
740
779
820
864
890
937
981
990
989
989
989
989
988
988
988
988
988
988
988
989
990
950
918
878
824
758
688
626
565
505
444
382
313
247
187
139
114
107
125
145
165
178
182
197
216
232
233
244
236
254
283
314
350
371
377
375
383
396
396
394
396
406
411
411
411
415
410
403
396
395
397
416
415
406
405
404
400
405
416
431
439
436
427
424
427
424
421
419
422
427
428
431
430
426
434
439
446
449
455
460
464
456
447
445
455
457
445
439
430
435
447
470
470
469
465
468
459
447
452
472
478
462
455
453
459
471
480
490
478
475
481
478
478
478
483
487
496
493
499
496
485
476
472
476
476
499
502
503
493
496
490
480
500
522
528
526
514
508
521
527
526
519
518
524
534
534
527
528
523
526
527
515
513
520
546
564
546
528
536
540
548
572
583
564
540
540
561
576
575
573
569
566
564
574
581
584
586
578
595
596
592
588
584
581
588
591
587
592
586
581
581
588
587
593
601
601
589
570
575
571
563
569
570
567
567
566
561
562
558
557
551
560
572
568
552
531
524
530
536
530
520
531
529
513
510
510
510
525
515
500
500
509
510
496
483
453
470
480
492
496
487
475
462
450
442
435
428
431
432
444
456
449
437
429
431
439
435
424
419
424
420
416
397
382
391
392
392
393
388
392
396
380
366
394
411
409
401
391
397
405
400
399
400
391
395
397
389
392
392
392
394
399
398
401
406
400
398
395
403
404
402
403
401
404
405
410
416
421
420
424
428
421
416
414
409
422
416
417
425
445
436
415
414
409
405
424
437
439
432
430
431
425
423
421
432
446
446
438
433
423
434
431
430
439
442
442
437
432
423
423
430
449
461
483
486
466
444
437
426
417
436
467
469
457
450
449
449
456
453
452
450
437
437
445
451
453
453
456
470
468
466
472
459
449
446
442
443
441
430
427
430
440
443
451
452
455
463
460
447
443
437
446
466
479
481
468
451
450
447
444
448
455
455
453
451
449
450
450
457
458
463
457
449
437
425
447
469
470
466
464
456
464
472
458
453
443
452
464
474
473
477
476
485
475
456
445
452
459
465
465
456
458
465
457
455
443
447
458
463
471
475
469
468
470
472
480
479
479
487
487
489
488
486
486
482
480
479
477
478
478
476
477
476
470
468
466
465
473
470
466
468
474
477
483
488
487
481
487
484
499
513
510
521
514
508
503
496
508
506
499
503
508
515
521
521
516
513
507
509
500
489
485
488
486
480
472
473
478
470
468
474
477
468
462
475
479
464
440
441
454
465
464
468
476
476
463
458
472
473
470
468
466
450
464
475
470
465
464
467
467
464
460
463
469
471
468
471
475
480
466
464
458
462
471
465
464
466
469
474
465
463
469
460
465
459
441
450
449
436
435
446
461
468
468
468
467
476
485
488
495
510
528
550
581
613
654
712
766
811
856
893
922
946
978
989
989
988
988
988
987
987
987
987
988
988
988
989
989
976
925
872
814
738
672
600
522
466
417
348
281
216
159
125
120
122
141
164
179
185
196
217
229
236
251
263
280
295
309
327
342
354
371
375
384
391
395
408
413
419
406
400
396
411
411
411
418
414
413
413
403
395
395
401
421
427
430
438
436
422
410
411
416
425
430
440
444
443
443
442
435
432
426
427
443
440
442
452
455
444
436
431
444
461
468
468
464
458
460
467
470
466
468
462
454
460
475
483
481
487
492
477
467
467
469
460
458
476
484
481
472
460
470
485
487
486
495
503
500
504
505
493
477
484
497
504
501
494
504
505
516
509
515
517
511
495
492
506
511
517
520
512
510
517
543
556
550
535
541
544
545
544
543
543
542
550
564
566
558
559
554
547
552
557
566
568
570
567
568
562
562
560
567
566
571
579
590
592
587
579
573
578
577
572
570
588
624
635
626
611
603
601
586
579
567
554
558
570
566
576
574
568
556
562
580
571
553
545
547
534
529
530
524
518
534
543
534
525
525
534
532
525
515
513
515
518
518
492
483
478
475
466
461
456
449
447
446
456
464
458
444
449
453
450
438
434
432
425
426
420
420
424
417
405
404
402
399
400
394
388
390
390
369
361
392
407
401
396
413
414
395
375
365
371
377
382
378
384
384
401
395
388
391
389
392
397
395
386
385
382
382
398
420
411
418
425
411
406
407
411
424
429
417
410
410
420
427
412
404
409
414
414
418
415
410
416
426
435
435
436
437
439
430
435
444
432
419
408
417
420
429
440
436
426
417
424
425
434
432
447
453
464
464
445
442
430
426
424
432
429
425
422
436
438
437
437
435
431
434
448
447
448
459
462
461
457
439
422
428
430
456
460
467
445
427
440
446
445
440
439
431
433
442
451
452
452
458
450
447
445
441
446
448
443
436
431
446
458
448
433
433
451
461
454
448
457
459
474
468
454
453
457
462
463
461
466
468
465
460
462
452
452
444
447
446
456
476
468
476
480
487
479
455
446
445
444
453
465
471
465
458
464
463
465
469
465
451
445
453
457
458
463
460
453
452
456
473
487
493
476
467
469
469
476
488
483
465
470
477
482
484
480
471
467
467
471
478
479
473
466
457
447
455
466
475
478
479
473
477
487
491
498
500
495
494
492
497
510
505
495
505
500
484
484
493
502
505
500
489
493
510
511
506
501
495
500
501
474
469
477
484
479
482
470
462
454
451
448
448
461
455
462
458
453
461
451
443
458
451
445
464
467
462
476
491
493
496
463
449
458
465
462
457
455
451
453
459
455
450
467
463
452
462
469
465
462
461
463
457
427
435
454
457
467
464
473
489
497
476
458
453
447
452
444
424
419
429
449
454
459
462
462
472
490
502
518
535
562
593
636
690
746
786
814
838
864
890
921
972
989
989
989
989
988
988
987
987
987
988
988
988
989
989
960
905
857
819
750
673
604
541
478
411
334
274
214
160
121
96
100
115
134
163
180
192
209
228
240
256
271
273
274
289
311
321
323
335
350
361
381
397
401
405
408
416
412
402
398
403
394
393
392
390
392
395
406
424
422
415
412
410
416
427
434
424
425
423
420
422
424
425
428
444
473
464
441
424
416
422
427
433
438
438
440
450
458
462
458
453
450
443
439
446
468
466
445
446
452
467
487
488
476
477
479
479
484
492
485
471
470
472
470
473
470
471
468
471
476
472
468
468
473
482
481
500
500
494
489
488
499
506
503
507
507
506
505
512
518
520
510
502
508
517
523
525
530
518
506
510
512
520
533
534
534
526
526
540
558
555
543
549
557
561
569
562
556
558
564
573
574
569
571
572
567
561
562
583
576
568
573
591
604
606
602
597
591
578
584
579
574
572
589
597
592
577
575
602
608
602
591
588
603
592
582
571
565
556
553
563
570
559
548
548
538
536
543
543
539
530
539
552
552
544
536
523
520
514
507
520
519
514
513
496
493
497
478
489
499
482
466
468
456
457
467
460
452
442
438
434
427
426
425
421
425
430
431
429
418
412
417
419
433
434
436
429
402
381
374
381
388
394
386
377
383
400
396
399
410
402
394
391
391
394
412
422
425
412
404
397
396
402
408
400
396
399
398
403
404
408
416
411
410
425
427
416
415
411
415
410
422
437
432
418
427
443
432
432
442
440
443
441
449
446
438
425
414
406
417
442
465
457
431
413
430
434
448
454
445
435
433
439
436
444
446
461
462
458
446
437
444
442
446
452
449
451
455
466
472
469
451
440
438
430
446
452
449
443
450
452
452
451
451
453
453
452
447
463
470
456
445
444
445
452
451
451
446
434
440
445
452
456
446
430
434
438
442
458
467
466
461
473
477
470
463
463
467
458
462
459
467
471
471
465
471
464
462
465
458
466
473
471
460
447
446
451
455
466
472
461
455
451
460
456
458
468
468
464
453
449
463
472
463
471
477
475
479
471
473
472
474
463
460
459
464
477
477
475
470
458
465
463
459
459
466
465
472
474
479
485
471
459
468
470
451
452
452
454
450
460
467
463
477
487
483
480
477
470
471
468
469
463
481
494
499
500
502
496
487
490
491
493
499
484
483
482
481
479
488
489
483
478
481
482
479
479
484
488
480
475
484
489
487
484
485
485
483
488
507
494
492
515
520
521
519
507
499
509
517
523
530
530
523
533
522
512
492
480
487
491
494
490
479
477
469
465
470
479
477
471
466
463
469
482
482
464
452
448
454
449
476
497
480
464
458
451
457
454
446
444
456
465
468
475
476
466
451
464
471
477
478
478
481
479
473
470
471
468
463
453
451
456
454
465
484
490
491
475
480
485
476
467
463
464
463
451
450
449
439
433
424
438
442
448
458
464
478
487
491
503
511
533
567
606
648
695
750
799
830
872
910
937
963
983
989
989
989
988
988
988
988
987
988
988
988
989
990
987
970
925
859
775
698
633
575
510
455
383
318
253
190
129
106
103
119
143
163
175
187
205
213
220
230
246
255
284
310
323
343
357
370
375
384
390
388
388
396
391
376
379
387
399
404
399
396
410
432
420
413
413
411
404
411
415
414
428
435
438
433
420
419
414
425
435
437
432
442
458
461
452
455
453
449
442
441
438
439
445
449
456
454
464
461
445
448
465
469
471
474
469
461
460
452
452
456
454
464
475
475
474
475
477
473
477
480
478
468
472
487
489
475
467
472
478
482
487
490
493
493
498
497
505
508
503
499
498
496
513
508
492
493
504
504
498
499
494
513
523
524
530
527
527
534
548
552
551
555
544
533
538
548
554
558
557
558
540
533
542
546
558
574
577
571
573
576
577
576
574
568
568
570
564
553
559
574
589
596
604
607
611
623
622
619
610
587
587
590
577
574
578
576
575
575
571
572
575
578
582
578
575
573
564
561
556
558
558
572
575
563
559
553
550
538
526
520
522
535
533
517
517
543
549
524
517
515
507
510
515
489
489
503
508
484
469
465
466
464
461
471
466
458
441
441
446
455
454
441
433
434
428
414
413
410
405
414
408
406
403
399
407
416
409
406
414
412
404
390
390
392
392
383
380
376
380
391
395
405
410
406
404
404
395
389
391
402
400
391
400
398
400
407
407
401
409
422
418
416
413
404
408
414
419
422
417
427
422
432
436
428
416
414
422
422
414
426
439
444
437
437
436
443
438
437
439
440
434
429
437
442
447
441
439
439
442
435
432
431
423
427
434
448
446
440
449
462
456
446
454
471
470
451
456
423
412
445
454
439
426
415
419
442
453
459
459
458
465
455
473
486
475
466
459
448
453
459
458
465
464
444
436
443
453
461
471
468
453
446
446
454
459
457
452
451
442
450
445
452
466
461
461
470
467
465
464
464
458
460
472
468
466
464
454
445
445
447
446
462
458
457
465
465
459
461
461
463
449
445
453
465
490
481
476
477
480
475
457
450
461
465
459
463
462
458
470
475
470
460
465
464
456
453
462
466
467
466
466
463
450
456
468
475
473
468
466
465
464
456
458
460
463
464
476
479
465
453
450
468
474
477
474
470
469
467
455
455
471
478
479
464
480
494
490
484
488
497
499
502
498
492
492
494
492
486
487
495
499
475
475
485
482
477
485
481
480
475
483
491
483
483
478
481
482
484
496
507
504
498
497
484
479
490
515
531
534
532
519
512
501
501
511
513
497
512
526
522
518
507
514
521
514
505
493
488
489
492
491
487
472
465
468
464
460
468
467
461
466
471
475
475
468
464
461
456
453
465
475
475
461
475
486
473
466
463
464
476
482
476
476
477
477
468
468
468
475
467
457
467
463
472
481
484
480
482
473
470
466
453
456
459
455
453
467
471
476
466
461
464
458
452
451
453
455
455
449
450
438
435
456
483
489
478
482
498
522
549
576
612
641
679
728
777
825
873
902
935
960
989
989
989
988
988
988
987
988
987
987
989
988
989
989
990
948
896
846
784
715
635
566
520
477
407
324
249
198
154
116
110
120
141
162
172
186
204
210
220
235
257
282
290
305
318
330
335
353
366
380
386
387
397
401
402
399
390
389
396
389
385
394
406
420
422
423
421
411
410
423
424
424
418
418
418
418
421
423
429
432
423
429
427
432
439
449
468
463
440
429
434
433
438
450
457
463
457
447
446
451
450
449
452
452
453
454
453
450
457
465
471
474
476
477
468
466
468
465
471
492
487
482
479
478
471
467
476
475
476
493
502
504
505
499
503
494
486
498
494
495
509
514
508
511
505
494
495
504
504
498
517
532
529
519
511
507
509
531
539
537
532
548
554
547
542
537
541
544
542
547
552
545
548
551
554
555
570
574
572
575
576
589
594
580
579
581
584
606
620
603
567
554
555
574
583
593
585
584
598
600
599
603
583
574
568
579
596
595
590
581
577
578
572
576
561
562
567
565
555
563
574
577
580
584
576
559
557
561
572
575
566
553
555
556
548
546
533
535
540
527
512
513
525
518
506
507
492
476
468
480
486
483
478
465
457
462
466
467
464
452
446
443
440
433
422
416
429
431
416
415
406
402
412
418
406
402
408
403
391
392
391
391
397
395
391
385
382
386
394
411
407
402
395
395
402
407
399
390
382
386
390
390
393
402
399
403
398
409
409
411
414
423
417
412
412
426
427
418
405
386
404
420
425
418
419
427
426
414
406
416
433
440
435
429
428
438
442
433
426
424
431
435
433
436
437
436
436
439
440
450
451
456
458
447
443
449
446
447
448
451
445
439
442
434
437
434
446
454
452
453
448
443
434
436
441
446
447
444
450
457
460
459
459
457
467
465
460
454
457
453
451
453
453
451
438
417
427
441
453
453
448
466
476
462
459
460
455
453
459
471
479
468
477
474
464
459
462
459
451
442
441
439
438
453
459
455
458
454
452
455
452
449
463
474
465
474
469
454
471
478
482
476
471
460
453
458
447
444
454
464
471
465
451
451
455
462
466
471
472
473
475
461
462
465
469
471
470
463
452
466
469
464
462
465
466
462
463
476
468
455
459
476
482
481
478
473
464
448
453
459
454
460
476
483
483
487
480
479
487
476
476
471
466
478
487
483
472
459
461
467
468
470
466
474
480
484
483
484
486
495
490
469
461
456
464
469
466
461
461
473
481
471
459
465
477
478
477
477
487
488
488
491
488
486
486
486
488
485
490
512
512
496
481
471
483
486
481
473
485
495
496
488
496
498
491
489
496
492
488
500
513
504
502
502
496
492
495
507
525
527
525
508
520
535
530
521
512
511
521
518
498
513
518
519
521
508
508
499
505
519
520
494
475
471
477
488
474
453
448
462
471
476
479
474
461
457
460
460
458
460
465
467
473
476
475
472
465
463
461
468
457
463
465
464
462
460
454
455
456
450
459
471
472
470
470
473
473
471
469
473
464
460
462
458
446
455
452
446
440
435
437
444
442
434
431
439
440
448
459
483
493
489
496
525
542
552
583
623
670
708
751
794
836
883
911
928
948
979
989
988
988
988
988
988
988
988
988
988
988
989
972
945
910
851
786
744
684
614
553
483
415
349
296
238
152
103
89
107
137
149
172
191
206
214
220
224
233
248
270
293
297
306
322
341
362
384
383
382
388
391
399
398
390
390
396
404
418
425
405
406
412
411
409
407
409
411
418
421
424
427
428
425
432
434
433
426
420
427
437
442
437
430
424
423
427
448
462
451
440
437
439
435
448
459
462
465
467
461
454
450
444
441
444
455
451
458
450
460
464
443
464
499
513
512
496
494
493
494
499
505
505
488
465
462
470
478
482
489
495
496
499
498
497
497
498
494
494
492
506
525
521
508
499
505
508
508
505
504
508
513
520
524
529
524
519
523
528
532
530
532
532
535
539
547
553
553
557
560
557
553
573
566
549
555
553
557
563
564
572
570
570
563
572
573
572
579
590
594
586
585
589
596
587
583
585
591
596
589
576
579
583
587
587
589
584
559
558
562
573
591
600
593
574
558
558
578
585
578
576
588
591
569
546
552
558
560
560
550
553
552
551
528
509
509
512
508
520
513
509
500
493
504
505
488
491
489
482
476
470
472
476
465
458
457
454
451
441
430
443
442
436
429
426
421
423
418
412
416
417
414
413
408
407
416
406
391
386
378
392
406
405
399
398
397
401
388
381
387
386
388
391
394
401
400
389
382
379
385
413
420
424
417
405
397
397
389
392
406
403
406
398
409
416
414
411
412
412
406
417
412
403
405
404
405
410
413
429
462
459
451
451
457
454
442
425
423
429
431
422
428
437
430
426
420
425
429
440
443
433
444
444
440
432
445
445
440
442
434
440
437
434
435
435
437
453
459
461
456
442
448
450
470
486
467
448
441
442
454
459
461
447
425
428
430
441
457
468
469
454
454
453
444
431
438
457
462
461
455
450
450
460
464
459
452
448
454
454
466
464
470
465
460
452
448
449
457
460
454
459
461
477
485
475
448
434
456
461
451
444
440
444
458
463
467
457
460
454
453
459
460
457
459
459
454
452
456
465
469
463
463
470
461
461
463
463
458
456
462
465
463
460
455
460
471
489
467
450
449
450
458
462
465
470
484
485
463
455
464
480
469
457
459
460
469
481
481
467
457
453
463
459
460
476
477
487
485
477
479
479
475
468
466
471
469
471
473
473
464
466
479
478
470
462
454
472
484
479
480
475
466
468
479
483
482
480
485
484
482
477
482
484
482
478
466
457
453
464
470
474
474
481
482
467
464
460
456
456
467
457
473
489
502
501
488
493
489
492
485
483
483
495
499
491
481
477
489
510
509
502
508
493
471
462
462
473
497
502
504
512
518
515
501
492
488
496
496
502
503
499
504
502
507
514
522
528
527
529
534
527
518
519
519
525
522
519
523
522
513
509
513
509
507
497
491
486
480
486
491
496
487
475
469
470
471
466
458
460
459
447
444
465
474
475
478
481
475
474
483
482
459
450
449
454
465
463
456
448
457
472
473
469
468
464
463
466
464
453
457
468
467
478
486
463
440
426
433
456
489
490
483
469
459
461
458
446
437
436
438
450
455
459
464
466
482
492
502
510
525
539
557
581
609
666
725
759
803
846
876
903
931
958
990
989
989
988
988
988
988
988
988
988
988
989
989
968
916
881
843
786
713
645
606
562
495
423
353
283
215
176
147
131
142
131
121
134
159
178
193
216
229
241
252
267
277
284
297
315
329
352
365
374
382
388
389
396
402
402
402
402
405
396
396
398
398
391
399
411
418
416
418
419
433
445
436
433
438
443
449
458
444
438
437
448
446
436
429
424
441
440
440
435
444
445
442
446
454
451
451
455
449
441
463
464
456
454
464
467
460
446
453
465
469
473
471
473
472
479
476
474
473
473
479
477
478
480
481
485
491
478
472
475
484
497
493
497
505
515
512
512
509
505
509
501
486
487
480
486
505
506
504
502
495
495
510
509
506
500
496
495
508
519
530
542
546
543
543
538
540
543
551
562
561
560
551
535
558
581
591
592
589
578
568
583
585
581
575
569
577
591
588
593
588
595
592
587
586
586
590
590
590
582
570
570
591
596
595
603
601
592
578
564
557
571
573
596
602
592
588
588
587
572
563
565
562
551
536
543
558
577
564
548
540
541
543
536
529
526
528
523
513
510
510
510
512
518
517
504
490
490
482
479
481
477
474
458
453
456
452
447
432
427
437
465
459
442
431
431
425
423
421
419
414
415
418
414
415
409
410
407
410
405
387
383
385
385
384
392
403
404
389
377
377
377
386
395
405
407
407
400
389
396
393
376
384
386
393
383
383
385
389
426
442
434
420
407
399
403
418
419
411
407
407
418
418
414
411
410
416
439
440
442
436
436
433
435
429
427
428
432
434
441
439
438
439
440
435
433
430
438
441
437
430
434
438
447
432
423
430
442
447
447
451
449
453
467
480
479
456
442
437
440
442
447
445
445
448
453
463
462
457
453
451
439
439
438
430
443
468
473
457
448
452
452
453
455
454
447
450
437
447
468
459
441
457
472
457
443
448
456
452
455
460
457
462
460
463
454
447
439
433
440
446
449
457
456
453
452
447
450
453
449
442
444
473
479
469
464
466
449
447
456
463
463
468
465
470
479
466
461
456
458
456
456
455
449
446
458
465
463
463
471
474
465
462
457
458
461
452
458
457
456
456
455
457
459
457
453
458
464
459
454
458
458
458
464
471
480
483
483
470
458
462
472
473
473
480
480
478
480
478
488
483
460
453
468
480
472
460
466
461
457
459
463
461
461
462
467
466
457
457
468
469
468
480
484
481
468
454
458
464
472
473
464
466
477
471
471
473
466
475
478
487
484
502
498
475
470
470
485
489
486
483
475
474
495
504
496
499
491
488
490
494
494
490
479
482
482
472
490
486
498
500
494
484
483
489
494
506
499
504
502
498
503
509
518
529
524
518
519
523
527
539
531
522
517
517
519
521
511
497
494
496
503
508
499
501
521
503
477
458
463
465
462
460
451
459
470
466
465
472
475
463
461
464
469
468
456
458
464
464
463
450
456
456
463
474
466
470
466
465
470
468
461
463
468
467
466
458
460
458
457
463
455
453
449
453
464
469
461
452
459
456
443
449
456
447
444
433
435
441
446
454
454
450
461
485
493
505
508
516
543
576
597
623
662
722
770
797
847
893
923
942
968
989
989
989
989
988
988
988
988
988
988
989
989
980
946
894
863
834
781
693
614
551
506
464
406
340
269
209
162
135
123
127
141
159
177
195
203
213
224
239
250
267
284
285
278
289
301
335
354
356
372
375
379
402
405
408
409
409
413
407
402
407
407
407
404
407
402
396
399
407
417
414
437
457
448
436
434
432
446
454
439
428
426
430
444
455
448
433
430
437
445
448
449
448
440
442
448
454
455
454
452
451
447
449
461
463
477
483
473
465
458
469
474
472
460
470
478
483
477
472
468
468
481
494
494
487
487
477
480
480
485
493
499
510
504
490
497
500
499
504
498
497
505
500
501
509
507
508
500
500
507
514
521
531
528
530
542
544
534
524
515
514
519
521
527
535
519
534
554
570
573
567
558
545
556
572
583
580
574
588
574
567
574
586
592
593
590
583
582
586
594
600
600
603
602
599
592
602
604
602
596
584
585
586
590
587
590
594
598
601
597
592
580
578
577
575
570
574
578
585
590
575
555
547
552
557
565
573
564
548
543
549
557
549
539
534
524
526
524
526
513
511
512
508
508
502
494
491
494
494
484
479
468
457
455
454
454
452
447
447
445
444
449
436
411
431
437
421
415
419
433
444
448
416
383
385
387
389
391
392
383
374
379
376
379
389
384
382
373
371
371
390
403
409
396
396
391
395
399
406
395
401
397
395
402
398
397
396
392
398
401
395
395
391
391
410
416
405
407
408
399
404
408
414
417
416
420
426
433
432
433
435
425
425
417
422
425
425
427
430
425
422
425
428
436
434
429
430
439
445
439
428
422
432
430
437
449
455
461
457
445
437
439
441
447
447
456
448
451
455
456
462
463
475
465
450
449
446
438
445
449
442
442
450
454
449
454
457
447
449
451
460
455
447
441
451
450
442
439
455
459
455
452
454
460
457
459
454
447
445
442
447
466
467
455
454
457
449
449
462
465
473
475
467
464
460
465
467
456
448
447
449
447
455
455
459
463
466
459
459
456
458
461
459
457
457
466
464
459
459
457
460
468
466
458
472
471
456
454
452
457
464
460
455
455
449
449
468
475
466
471
481
475
476
469
471
458
452
452
458
463
464
461
460
464
466
461
456
480
477
481
