510
494
490
492
499
493
480
465
478
497
491
479
477
478
486
480
476
473
471
473
471
477
501
503
476
465
458
459
464
472
476
483
486
493
493
485
491
502
512
521
527
513
506
495
485
479
478
470
460
462
463
494
559
574
546
537
527
530
527
505
486
464
479
496
484
492
494
491
483
466
468
490
509
499
496
497
499
490
480
467
472
474
475
480
483
478
468
465
462
465
456
474
479
476
476
475
480
488
484
466
455
456
457
457
459
448
458
491
498
483
472
481
467
445
440
463
482
485
490
480
474
502
513
482
447
421
400
435
461
456
445
446
433
420
430
446
461
466
488
504
509
506
513
531
564
605
649
705
760
812
851
869
872
878
922
966
989
989
988
988
988
988
988
988
989
989
990
968
932
884
833
805
772
731
674
632
585
512
451
386
311
235
179
140
133
137
148
161
160
169
193
216
232
241
248
254
258
267
286
310
320
325
330
338
354
374
388
399
401
409
408
419
425
411
426
442
428
417
418
420
413
407
421
435
457
460
434
439
454
453
440
431
434
432
436
459
460
445
436
435
437
458
454
450
451
439
440
455
459
453
451
454
471
487
469
443
432
445
460
452
454
470
493
507
488
460
456
454
444
441
457
496
489
467
465
480
478
495
501
502
511
491
456
448
467
483
487
482
491
494
497
489
488
485
484
498
505
540
546
531
500
490
489
493
500
499
495
484
488
500
511
525
544
540
522
520
522
536
535
529
517
528
543
550
558
542
544
555
556
544
545
542
553
563
581
581
572
582
576
547
531
540
548
555
591
597
603
591
591
588
579
576
580
576
588
632
634
598
566
573
610
630
623
614
616
607
598
598
608
609
588
564
550
551
556
579
577
582
595
605
614
605
609
615
606
586
581
578
568
575
595
585
569
573
549
541
546
544
533
517
519
533
541
533
513
502
505
519
525
519
508
504
508
499
493
487
485
473
459
443
431
427
428
434
425
425
436
437
432
422
412
405
400
395
399
406
409
428
443
422
394
404
407
401
395
391
398
386
368
369
385
373
391
399
406
379
355
378
386
381
382
378
382
395
398
400
390
379
390
399
386
377
369
354
352
363
386
411
443
423
395
389
401
409
411
425
435
438
436
429
422
433
440
440
437
419
425
428
422
412
419
418
405
402
407
409
422
439
456
468
456
446
431
418
416
431
451
458
458
456
452
438
444
447
436
441
434
429
417
424
452
468
455
429
433
444
460
433
416
429
462
460
464
486
478
458
440
460
469
464
454
450
453
466
478
480
476
474
480
498
483
476
487
450
412
416
429
438
442
448
441
423
425
431
438
427
415
416
437
456
456
442
456
480
488
487
478
469
461
467
464
463
468
480
472
451
456
462
456
461
497
518
501
478
455
479
485
488
469
450
446
441
436
441
447
458
464
480
483
474
490
485
463
448
457
464
450
468
488
493
499
474
449
461
455
428
444
467
463
473
480
470
469
472
483
510
495
483
478
474
470
463
446
435
450
464
470
474
477
464
454
457
455
479
485
478
491
500
497
473
455
471
470
454
450
459
465
467
459
454
455
450
464
506
521
513
506
484
475
468
459
453
473
475
470
459
461
485
503
482
449
443
443
449
475
478
468
467
455
448
454
479
498
488
485
502
503
488
467
459
454
465
472
479
499
504
519
522
496
475
482
501
493
487
473
478
461
459
471
499
516
510
491
472
463
463
493
513
509
503
499
486
472
449
437
439
443
457
469
483
489
481
491
510
529
532
532
519
503
485
481
483
485
487
486
502
507
519
533
535
519
492
479
504
534
534
519
500
499
520
547
541
535
533
503
495
521
530
515
491
481
497
504
489
483
473
463
465
466
464
459
453
460
475
484
486
477
477
470
457
459
467
476
465
457
457
468
470
466
465
459
458
458
477
473
466
474
489
463
455
451
439
472
511
539
526
485
457
444
445
478
498
513
521
520
508
483
475
469
453
458
457
457
459
465
465
454
456
464
474
472
446
420
402
410
430
442
467
490
496
489
491
499
497
497
537
568
586
616
669
734
791
838
865
879
912
952
988
989
989
988
987
988
988
988
988
988
989
988
988
989
990
943
875
829
806
724
655
603
539
479
419
345
279
224
167
120
110
125
138
160
176
175
205
244
254
246
248
255
254
265
292
330
366
382
397
416
421
408
377
369
380
378
396
412
423
420
410
401
396
390
397
404
418
413
404
425
429
420
409
400
402
383
375
386
391
393
399
418
422
420
423
423
437
443
451
461
481
486
475
461
433
409
417
441
432
437
441
438
441
456
458
452
452
453
458
465
468
470
472
490
482
467
448
443
448
459
469
484
494
493
473
460
459
456
453
454
471
477
478
477
491
510
512
510
489
484
478
465
467
480
489
494
496
521
528
518
545
549
523
511
507
506
502
507
510
524
519
505
519
526
520
535
535
522
513
519
544
561
552
532
532
548
566
562
562
556
531
506
496
493
506
539
562
569
567
564
558
556
555
556
560
578
579
588
589
579
572
589
585
584
593
607
616
617
609
595
594
583
568
574
601
609
609
617
616
606
593
592
595
587
581
583
588
587
587
598
621
606
576
557
570
568
557
560
567
564
548
541
551
546
558
551
536
525
535
533
529
534
540
518
494
478
499
507
503
485
476
486
482
492
497
489
479
475
466
466
457
456
453
441
431
399
387
405
421
430
406
396
398
398
397
395
411
425
423
431
432
416
397
373
360
362
376
385
387
392
383
360
357
360
378
391
399
402
394
379
368
369
375
379
384
380
381
383
385
399
403
411
407
403
415
430
432
426
419
414
411
409
406
410
399
397
404
418
415
426
437
425
417
419
426
421
398
386
384
390
396
386
376
388
449
476
476
474
473
473
460
437
443
424
423
451
449
442
452
459
449
435
448
454
442
430
433
438
434
416
400
397
409
431
440
448
455
449
451
470
474
468
464
467
461
462
470
454
464
473
463
470
472
448
442
451
426
406
423
457
475
482
455
431
425
430
454
464
464
458
460
462
464
473
454
448
450
455
469
475
467
450
443
435
436
424
437
460
505
524
531
511
487
477
456
465
464
463
460
449
444
459
490
481
454
422
426
440
439
426
447
458
465
482
489
482
478
461
465
459
443
451
463
453
440
420
422
467
490
495
489
472
455
454
462
474
473
462
451
443
447
464
491
510
504
493
489
480
463
447
438
460
471
461
453
447
442
470
500
517
512
509
510
493
482
466
468
486
480
470
477
477
473
463
452
461
462
447
449
467
468
467
465
469
482
482
471
460
461
483
489
481
468
472
466
453
442
460
474
482
476
472
482
484
478
477
478
484
480
499
508
487
474
482
488
493
483
457
461
461
462
474
477
473
459
476
483
472
477
477
481
478
469
462
474
479
498
505
507
500
488
505
513
507
499
498
510
534
549
554
538
519
498
474
477
475
476
491
529
544
545
551
530
531
542
526
520
513
497
509
532
537
526
525
531
509
495
490
487
487
502
501
497
491
480
473
470
470
472
472
459
447
449
458
467
468
472
463
463
481
479
456
458
466
473
477
472
478
478
472
467
478
473
471
479
471
463
468
475
464
444
439
459
476
482
470
447
438
444
455
463
474
481
477
476
470
447
429
423
442
456
468
482
474
466
461
441
424
412
420
443
472
495
512
507
493
487
489
499
519
559
618
661
685
704
746
783
813
853
893
924
959
989
989
989
988
988
988
988
987
987
987
987
987
988
989
989
967
920
854
791
747
700
645
578
506
427
351
270
206
142
100
103
141
159
160
160
173
188
215
231
245
251
263
287
306
318
328
343
363
376
381
395
393
390
396
394
394
397
384
376
379
375
360
384
389
379
378
400
410
408
426
442
442
407
401
403
400
388
381
395
434
445
432
426
427
437
444
453
458
446
432
416
405
414
438
458
450
441
451
451
443
436
446
435
424
424
447
449
446
430
451
471
495
500
481
466
457
454
457
454
457
462
462
465
466
473
473
482
473
467
466
462
462
481
500
520
520
502
484
462
465
467
468
475
495
492
477
485
522
532
523
526
503
498
510
527
534
524
515
509
493
500
505
519
523
501
488
509
526
542
548
520
502
515
522
542
545
539
531
527
534
545
565
582
564
544
545
552
555
560
581
597
608
595
570
563
568
569
554
549
556
591
607
624
631
632
625
613
605
607
611
597
575
591
598
585
572
581
618
625
618
607
597
586
577
575
577
564
561
562
558
560
563
568
591
606
610
601
587
569
571
583
585
565
547
528
518
511
522
547
564
557
533
523
516
498
514
522
509
504
486
468
463
469
475
483
482
472
460
446
426
411
391
380
385
403
413
419
422
405
399
414
407
389
404
421
407
382
381
389
385
394
401
382
380
385
401
417
417
399
390
386
386
403
391
379
372
370
367
371
373
378
393
392
376
389
408
422
409
392
378
390
409
417
420
413
406
402
398
399
384
378
396
417
408
388
384
399
405
407
421
429
425
417
399
401
405
397
441
475
458
440
433
432
431
433
432
445
447
444
442
416
410
411
409
424
447
463
466
456
453
445
438
437
433
417
406
425
462
454
453
467
467
464
458
448
425
425
442
437
436
433
432
436
459
457
445
436
416
417
420
420
427
443
453
448
434
443
451
447
441
441
450
450
457
484
507
491
467
469
476
486
474
456
439
440
450
458
466
468
469
470
470
452
429
426
455
470
457
462
462
448
430
429
449
476
477
463
452
449
445
442
450
464
476
499
486
443
415
437
451
475
492
492
470
463
465
469
476
467
453
454
472
480
483
484
481
467
462
468
468
477
483
467
473
465
446
444
459
463
468
483
497
496
484
492
487
455
441
437
441
450
453
441
447
467
456
463
488
482
488
487
473
462
474
489
488
467
469
478
481
477
468
457
455
461
466
472
466
464
467
458
453
452
465
483
488
496
478
454
456
478
492
498
497
478
472
480
479
465
456
442
438
452
460
481
489
480
483
489
476
465
469
471
484
493
495
491
471
455
454
466
479
476
472
470
473
493
492
480
478
477
481
473
472
474
478
494
489
464
448
458
471
481
497
501
486
478
474
479
497
494
497
518
530
518
506
479
486
486
488
508
536
534
498
474
474
473
492
504
510
508
508
524
534
532
523
523
524
524
523
527
524
522
522
506
494
496
512
518
514
527
554
551
517
505
502
501
496
479
465
467
466
474
482
476
468
463
464
460
463
448
449
456
462
438
435
436
437
450
457
474
486
467
455
462
453
451
480
498
479
467
459
453
464
460
454
467
489
479
457
448
448
452
469
474
457
447
447
442
454
459
453
452
466
474
482
476
473
451
446
457
455
430
414
402
396
418
435
441
466
482
496
505
510
517
523
556
591
640
681
730
758
788
842
908
934
953
979
989
989
988
988
988
987
987
988
988
988
988
988
988
989
989
968
928
876
802
719
642
584
532
467
397
333
259
202
156
122
110
117
140
162
172
177
185
198
222
248
268
273
260
264
321
338
318
322
351
375
381
383
385
400
401
408
426
425
401
354
328
362
402
428
422
405
388
370
374
387
395
411
401
372
376
402
433
445
437
424
423
417
421
413
412
413
411
412
423
439
443
440
438
427
430
438
431
434
437
432
431
421
423
430
4
01
505
512
507
512
519
496
457
450
470
484
489
473
462
459
442
411
412
428
435
435
439
435
436
431
429
428
430
435
423
409
402
395
396
415
430
426
415
410
413
422
427
425
414
423
441
452
433
410
407
396
384
376
378
394
405
410
398
395
407
421
429
431
414
412
424
435
424
414
415
407
401
399
426
456
480
479
468
476
462
444
439
441
456
460
457
450
443
431
426
431
434
435
441
461
460
443
435
436
418
416
413
417
436
455
466
474
481
472
460
459
464
449
444
463
476
481
465
433
414
417
414
411
415
423
444
446
450
476
500
491
481
473
476
485
490
479
448
430
430
447
453
457
463
470
477
476
472
442
416
406
416
433
429
435
464
468
455
461
468
487
485
477
489
500
502
472
437
419
425
427
437
448
438
441
446
456
461
468
473
467
453
453
457
464
467
459
440
439
458
480
477
469
470
460
446
461
475
477
468
474
484
487
486
500
522
545
538
502
461
451
464
474
481
485
480
478
475
485
499
510
485
484
488
491
462
436
440
445
447
450
438
440
462
480
485
477
471
472
492
515
531
543
553
548
515
498
507
518
526
533
523
495
470
474
482
493
503
506
517
512
497
494
483
469
487
498
501
500
483
465
458
461
456
435
435
451
465
476
463
475
482
480
482
491
476
470
460
462
460
455
456
465
481
480
483
475
467
465
481
491
479
460
457
468
463
460
486
488
482
480
476
461
444
453
470
470
464
457
461
469
468
471
471
462
437
422
418
427
443
448
449
475
485
478
465
471
497
526
570
595
606
630
654
685
724
759
816
846
876
930
985
989
989
989
989
989
989
988
987
988
988
988
988
989
989
958
903
845
789
717
659
606
536
465
422
367
276
205
171
145
126
127
144
163
189
199
209
233
258
250
242
250
271
280
288
308
325
331
326
330
340
363
395
417
442
449
428
395
378
377
389
409
436
453
453
451
449
450
443
435
430
422
415
426
437
444
451
446
441
430
422
422
431
440
437
445
453
462
459
446
433
426
426
430
442
450
445
440
455
448
426
419
423
453
475
484
494
485
455
439
439
433
424
436
466
472
489
508
516
503
483
475
478
484
485
495
513
527
499
444
428
442
453
470
495
496
508
504
483
478
479
480
478
467
460
461
488
521
527
505
497
494
500
520
556
571
561
530
483
454
449
483
520
559
567
561
542
522
524
533
530
520
510
517
529
538
542
553
568
570
568
551
533
516
510
506
516
535
559
577
575
575
582
589
576
554
533
529
544
559
561
553
557
568
567
567
564
549
529
514
525
538
559
614
623
586
542
540
584
622
630
613
609
598
587
582
582
578
580
596
598
587
568
559
539
520
514
531
541
543
546
534
526
529
532
526
525
535
518
508
516
520
521
519
513
495
489
487
494
507
494
476
464
453
446
439
436
445
461
474
486
477
464
464
447
426
412
426
434
424
388
378
377
383
386
394
402
404
425
423
399
389
416
425
396
386
385
399
398
398
403
401
440
458
448
441
428
422
426
434
424
428
452
477
480
467
441
427
425
435
438
442
426
399
366
359
374
409
437
434
443
451
434
431
436
449
452
439
416
411
425
435
441
453
477
495
502
500
482
454
439
449
458
474
479
463
444
424
419
422
438
453
463
458
449
444
442
437
429
428
436
438
441
453
462
462
460
449
433
423
420
431
440
439
429
437
462
463
442
463
474
458
455
459
474
480
460
437
441
433
435
463
477
483
477
455
443
446
430
429
462
484
488
487
475
449
449
461
469
472
464
487
524
536
492
452
441
443
449
444
444
451
464
466
453
455
459
466
504
523
510
501
499
500
482
477
474
464
467
471
473
473
482
480
467
458
452
429
418
448
479
498
497
487
471
468
476
472
467
479
493
502
514
517
499
480
478
490
510
503
501
511
510
524
531
514
481
450
434
446
461
476
484
496
483
461
433
422
445
469
472
462
437
439
456
478
496
502
499
491
483
480
493
498
483
472
473
471
470
462
464
459
427
400
416
457
473
477
475
462
444
463
476
467
464
459
461
462
466
472
467
469
473
472
470
469
465
470
468
461
456
460
456
447
440
444
443
446
448
446
465
484
504
511
522
532
523
524
538
560
588
644
721
789
816
836
862
873
890
912
950
988
989
989
989
988
988
988
988
989
990
978
967
941
911
877
835
779
714
654
599
532
466
409
360
296
231
196
171
146
148
167
180
175
153
172
182
196
219
255
286
311
333
343
337
321
321
351
385
415
421
424
408
401
414
420
421
418
413
419
413
411
409
412
411
386
371
371
384
409
424
448
448
431
410
410
423
428
437
446
446
448
446
440
438
435
447
458
460
467
465
446
435
428
416
423
434
438
442
445
451
433
426
434
450
458
466
481
487
477
476
496
495
486
486
493
498
471
464
473
475
472
466
461
468
485
491
484
470
490
503
505
518
515
493
472
461
452
459
457
460
489
494
484
484
497
510
520
520
521
515
489
483
495
508
505
507
512
523
523
502
489
488
501
512
518
527
532
543
532
530
530
532
525
518
530
547
554
554
546
544
543
543
554
553
542
537
545
561
570
574
559
537
525
524
528
555
603
621
611
598
604
616
620
601
593
586
567
563
560
565
557
550
551
548
539
545
549
551
554
560
573
588
600
609
587
558
565
581
574
569
541
515
507
504
515
519
519
516
504
496
491
499
516
531
549
549
512
474
447
470
540
535
510
514
511
482
466
473
492
501
509
523
525
519
481
442
426
402
393
419
434
445
444
441
440
436
431
424
423
420
412
404
405
404
394
391
397
391
379
403
436
430
420
414
420
434
443
449
428
407
406
424
416
396
382
363
384
416
448
477
467
452
447
412
389
388
390
395
407
415
414
419
405
403
402
414
417
413
417
428
434
431
434
428
425
415
412
412
405
402
415
444
461
473
465
451
445
436
454
478
487
470
466
466
460
454
439
440
441
444
424
424
428
438
452
454
430
408
398
386
409
463
501
534
540
535
513
477
445
433
420
442
460
449
423
420
443
438
429
433
446
472
477
463
452
452
461
468
472
473
475
467
438
430
430
447
479
495
498
487
477
484
489
489
482
493
476
438
423
421
424
423
420
454
482
488
470
462
479
479
473
473
465
467
472
471
470
456
427
442
469
470
462
462
470
476
482
483
490
506
506
495
498
507
512
515
516
528
524
507
486
470
463
459
441
444
465
472
475
490
497
492
489
485
493
506
506
492
476
472
455
444
435
435
445
461
463
459
447
453
469
473
453
444
455
450
432
409
415
427
440
448
453
470
485
487
478
470
462
467
463
459
462
467
484
497
507
485
464
452
440
423
442
463
465
444
448
472
474
457
444
469
475
467
438
409
406
401
398
413
465
515
523
517
502
491
492
502
491
505
544
580
621
662
710
754
801
840
874
902
911
936
990
989
989
988
989
989
989
988
988
988
989
989
989
961
915
889
854
811
746
685
624
563
505
437
362
296
218
169
156
137
132
148
156
164
178
194
212
220
228
245
262
278
299
337
371
401
413
418
386
334
325
341
372
396
403
395
384
389
406
424
430
420
409
420
436
458
459
453
441
438
448
448
440
398
370
383
406
413
404
407
411
410
420
443
462
471
473
469
451
443
437
433
433
435
436
438
457
450
432
448
465
466
465
470
477
486
488
478
468
457
449
461
468
470
472
478
479
482
484
483
473
460
447
440
444
444
482
504
514
506
504
516
518
527
514
516
502
474
489
502
502
497
485
468
458
458
467
473
489
507
508
500
497
508
519
535
533
528
538
567
559
527
520
522
520
501
495
512
520
528
524
524
520
518
501
496
507
539
575
596
586
562
548
540
551
566
571
577
609
621
607
594
586
566
559
556
565
569
574
573
557
564
577
570
569
577
584
588
583
582
582
569
567
570
566
564
568
571
571
573
577
568
550
538
551
560
566
554
536
524
514
511
510
528
567
612
628
601
589
587
560
514
496
498
489
489
498
493
491
510
510
502
485
477
466
446
458
458
460
478
495
510
493
485
475
439
405
390
404
425
424
427
451
454
450
432
400
397
403
418
434
436
428
440
444
435
406
361
366
395
414
407
400
404
407
398
404
409
415
401
375
388
404
407
389
370
385
410
418
410
414
417
420
405
397
403
420
432
449
457
460
465
453
447
428
411
413
414
416
414
409
417
434
437
432
440
446
430
417
419
432
434
426
439
437
436
439
453
452
436
438
455
449
436
434
438
433
438
446
445
452
448
431
437
434
423
406
415
438
433
422
441
466
474
480
466
455
447
438
446
465
465
448
453
465
479
503
510
498
461
420
393
407
428
446
455
461
461
443
428
435
448
447
447
447
444
439
447
455
461
465
459
457
444
442
445
441
461
486
483
452
442
450
444
439
438
439
418
406
432
479
501
494
480
472
469
462
468
485
485
494
487
484
483
480
474
470
465
462
460
455
454
451
461
456
447
454
496
506
507
514
506
500
495
496
499
494
493
493
498
490
494
497
492
501
527
526
523
510
503
495
482
484
489
501
502
485
472
488
497
488
483
473
470
470
471
455
437
436
439
473
499
493
467
460
465
468
466
455
445
447
452
461
491
500
486
471
461
446
441
439
432
437
439
439
443
439
444
465
466
449
450
467
465
460
462
451
441
438
455
477
480
489
490
483
475
466
462
460
458
456
450
450
463
477
474
449
433
453
476
486
483
493
503
517
533
550
560
588
624
668
714
750
783
826
872
929
978
989
989
989
989
988
988
988
988
988
988
988
988
989
989
955
901
862
819
764
701
649
609
562
490
403
332
279
227
171
131
110
103
95
120
168
196
215
228
228
240
257
268
271
284
297
313
333
366
390
385
359
366
385
394
398
400
400
394
402
413
413
411
411
411
390
379
390
400
402
407
400
396
396
382
384
406
447
447
448
458
461
450
441
443
445
433
412
416
424
440
453
464
467
462
463
462
473
475
454
436
448
466
455
437
434
428
406
406
418
445
477
503
496
474
466
465
467
468
465
463
477
494
491
481
477
469
455
446
443
457
467
477
498
497
484
469
462
454
461
474
503
522
519
507
448
437
454
459
467
485
503
523
532
516
496
485
488
509
529
538
548
554
548
544
533
524
516
517
515
518
542
562
560
544
537
530
502
498
526
544
546
550
557
577
581
558
542
538
536
543
565
593
610
608
594
584
583
573
566
560
575
583
575
571
588
598
604
601
589
570
547
538
561
567
566
571
577
579
574
573
572
574
585
588
594
596
573
543
527
526
528
528
523
525
508
490
496
524
543
549
549
540
540
547
545
527
508
497
503
509
510
508
501
501
500
504
504
502
490
475
471
454
445
445
456
450
454
471
443
418
420
429
435
445
445
438
434
422
417
421
415
392
400
418
421
411
417
427
422
432
440
431
404
397
378
363
393
430
457
459
441
414
406
410
427
431
427
433
436
433
429
437
436
451
460
462
440
418
409
418
413
395
391
398
429
436
443
449
448
445
438
439
446
450
446
440
446
453
448
435
413
411
439
443
444
448
439
432
441
442
435
435
443
452
458
451
445
449
454
455
454
436
433
444
451
451
453
470
486
482
459
446
451
429
410
418
418
424
433
441
436
444
447
450
446
445
439
432
441
461
470
478
494
498
485
483
488
478
462
452
439
434
448
454
448
450
458
459
496
509
495
475
475
490
497
491
481
466
465
471
473
475
459
449
461
468
463
463
465
436
437
442
442
440
445
447
452
468
485
493
483
463
442
439
450
463
468
448
452
459
481
512
512
503
491
463
435
422
433
456
488
511
521
519
509
509
506
498
478
446
439
458
482
497
492
480
470
470
471
474
463
467
475
477
470
464
460
466
479
490
504
503
499
503
512
512
509
513
527
538
523
499
491
495
494
491
486
480
477
492
504
502
498
485
477
477
480
497
514
521
499
475
460
475
494
503
499
478
472
456
430
424
437
456
478
487
482
472
448
432
437
449
472
482
476
465
451
439
445
461
472
478
485
485
464
447
455
471
475
487
479
480
471
466
471
474
485
481
478
485
491
486
482
460
452
455
456
456
458
448
443
429
415
407
414
422
439
473
501
523
548
574
604
645
684
720
755
801
846
869
870
898
937
976
989
989
988
988
988
988
988
988
988
988
988
989
989
989
961
908
850
794
728
644
558
467
391
337
280
219
173
155
152
155
167
179
197
212
229
228
218
214
232
271
296
303
301
305
314
342
354
355
352
357
368
375
378
378
381
374
382
395
409
433
442
431
394
389
399
408
413
414
417
432
431
430
422
415
403
406
417
436
453
446
429
420
416
441
465
462
452
452
454
445
431
422
421
438
448
438
439
445
448
455
459
458
476
477
464
461
469
469
445
435
439
456
476
486
492
487
471
455
435
436
452
466
460
460
463
465
470
480
488
486
482
478
461
461
484
499
506
503
490
489
478
479
503
529
539
529
537
539
536
538
537
544
537
495
468
471
490
499
486
488
501
522
530
520
501
495
500
508
529
542
550
551
550
549
546
549
545
540
530
514
516
545
570
579
557
531
546
554
555
565
571
560
548
562
556
549
564
569
572
574
571
559
549
557
581
586
595
596
570
538
524
521
530
540
545
571
578
580
573
564
559
556
557
559
561
559
555
541
538
551
559
555
555
554
546
543
539
534
538
539
533
522
502
504
511
503
501
512
501
478
474
471
478
510
523
540
543
527
517
504
485
470
454
443
425
390
406
433
455
466
463
466
477
478
464
454
454
456
443
422
415
418
413
400
413
419
424
432
432
435
423
424
422
425
417
403
394
384
389
404
426
434
423
419
426
430
443
446
436
429
433
444
442
419
400
396
404
410
415
418
431
439
439
443
441
448
453
446
439
440
438
442
448
427
423
430
430
445
456
461
453
442
422
408
419
428
444
436
414
428
436
433
437
440
456
472
476
464
456
444
437
434
431
437
446
473
504
499
496
502
494
480
463
455
450
444
432
419
444
461
463
458
457
457
451
459
467
470
449
409
397
416
454
475
471
454
444
441
444
448
439
445
465
479
480
473
463
459
469
464
463
462
436
418
432
441
447
445
444
442
433
453
472
486
478
462
454
443
430
433
453
477
487
479
478
477
482
482
484
480
473
476
486
485
448
414
426
447
463
470
483
482
474
468
472
473
480
489
492
480
468
455
434
442
458
474
489
495
489
485
488
485
484
472
469
468
470
479
489
490
480
474
468
473
474
486
493
499
503
504
496
490
490
497
505
507
502
503
501
493
490
495
502
507
500
503
514
499
476
467
465
480
484
486
488
495
499
490
464
455
443
428
433
434
438
441
455
476
504
513
506
491
481
483
472
448
430
420
423
451
466
459
456
447
458
491
497
477
458
431
434
457
488
502
504
499
492
476
467
469
465
469
473
460
439
445
462
459
436
400
402
408
414
453
486
503
486
461
449
450
457
472
491
497
507
507
509
523
529
537
560
600
642
675
711
768
814
850
883
893
917
956
989
989
989
989
989
989
989
989
989
989
989
962
913
873
847
827
791
728
662
600
521
444
392
340
281
235
205
165
150
153
161
164
172
184
198
199
189
197
234
266
288
291
298
313
332
354
373
384
397
402
409
407
403
401
391
394
419
423
428
438
443
427
412
403
398
385
371
378
398
419
445
481
498
490
475
465
431
399
404
425
455
469
463
443
420
419
424
435
451
447
449
438
447
451
451
454
457
458
455
444
430
423
424
442
460
484
503
494
474
462
455
465
495
505
504
501
500
506
512
497
490
476
448
450
460
472
479
472
458
453
473
494
499
495
497
510
511
501
495
517
529
519
486
478
479
484
494
495
516
513
502
500
504
508
512
478
462
485
509
528
521
529
531
519
505
498
486
489
516
535
547
547
538
531
528
525
519
514
509
520
535
550
574
578
558
538
525
530
543
549
543
539
547
559
571
588
601
601
585
573
562
557
569
580
598
610
610
610
601
561
556
566
551
547
560
570
575
577
580
587
577
554
543
547
550
555
557
565
562
560
550
547
549
550
545
525
504
512
528
537
527
518
523
524
515
512
517
518
510
510
501
496
497
490
497
499
495
500
506
516
511
475
458
465
456
435
431
441
447
451
455
451
452
462
458
441
432
419
403
397
389
390
391
386
386
380
377
389
396
409
414
415
419
413
402
399
403
410
415
407
418
427
421
406
406
410
412
417
411
416
417
425
445
459
452
435
412
397
395
397
391
390
419
439
436
441
451
452
450
456
460
464
437
405
398
405
407
415
419
433
444
440
433
449
475
475
469
467
466
475
470
458
459
449
442
451
456
455
474
490
482
457
436
436
427
444
478
471
465
458
451
447
462
471
459
448
443
447
450
454
455
454
452
449
444
422
415
428
442
472
485
507
515
498
464
455
462
467
469
465
463
442
429
426
430
441
448
458
461
459
456
462
470
465
466
459
441
433
437
424
427
424
408
410
428
442
458
476
479
477
472
474
477
468
457
456
462
469
478
481
482
479
464
466
484
497
491
474
465
448
447
456
467
473
487
496
493
488
502
511
478
460
477
476
466
460
464
451
456
480
494
480
450
430
410
416
454
512
546
517
467
431
445
470
470
466
474
488
500
493
491
498
515
529
526
510
493
504
495
496
495
498
480
483
487
491
503
509
515
510
488
480
488
497
501
491
476
472
460
458
461
465
471
473
468
465
462
462
471
477
483
483
476
468
461
457
457
464
460
453
447
461
450
458
481
487
481
480
482
476
487
493
462
433
448
451
439
435
448
466
469
471
474
473
460
446
432
436
467
486
490
485
460
433
426
425
436
468
477
461
441
434
429
442
464
481
486
486
497
503
525
576
629
667
710
752
789
819
859
890
913
943
973
981
990
989
989
989
988
988
988
988
989
989
989
963
926
872
829
776
717
654
598
534
460
393
333
282
238
187
138
125
131
142
153
164
194
228
255
262
266
264
279
300
305
316
331
352
368
388
403
410
413
415
415
401
392
394
399
382
375
385
390
393
403
410
410
414
417
421
438
470
465
420
389
384
392
391
388
394
395
402
408
417
410
420
431
466
479
458
447
434
413
401
414
432
455
472
474
484
503
501
484
466
455
456
450
457
478
489
500
499
483
467
455
444
451
460
466
470
475
475
474
479
481
486
487
493
491
479
475
479
476
470
464
459
466
464
465
477
503
531
528
520
506
497
495
504
509
514
521
513
487
471
463
468
488
516
543
550
536
531
546
554
571
583
556
501
473
451
446
481
505
527
551
560
542
499
484
513
547
548
545
533
532
529
536
563
575
575
585
589
580
547
549
553
546
531
540
556
565
573
578
581
574
562
562
559
562
572
573
565
571
574
566
559
547
538
544
556
565
576
581
583
578
568
561
556
559
556
545
547
557
562
552
548
539
528
525
533
531
524
523
523
525
526
523
516
510
518
518
517
518
505
491
479
462
459
500
527
513
492
481
470
461
450
452
457
455
452
461
454
447
446
452
440
436
451
454
417
384
393
410
415
423
413
404
394
391
392
402
410
407
397
385
377
365
403
450
467
464
456
441
441
440
437
457
491
505
485
433
406
403
433
449
460
449
425
412
407
410
415
415
411
413
416
419
422
418
403
399
416
444
452
459
461
447
441
447
449
455
454
451
446
444
451
459
460
461
464
458
444
444
439
426
414
417
451
464
466
475
478
475
465
441
427
412
395
399
439
461
446
445
463
475
468
453
439
443
454
464
472
459
443
433
438
455
464
463
469
466
462
456
450
456
457
454
454
454
455
448
452
464
463
464
458
457
467
458
461
464
465
448
433
453
483
489
475
461
448
430
438
480
524
527
517
496
482
469
460
464
465
453
450
449
444
442
441
444
445
444
445
444
446
446
447
446
440
431
444
472
495
492
493
489
470
454
458
466
463
469
487
494
497
495
491
493
480
465
444
441
455
462
464
454
453
457
465
470
477
480
483
490
490
492
481
451
447
470
488
487
498
490
459
468
476
484
495
505
502
492
464
460
469
477
481
474
455
451
446
442
463
505
531
541
526
528
534
535
533
536
511
488
496
517
526
524
517
503
498
494
512
517
509
498
499
500
499
511
513
510
492
469
459
445
426
418
408
407
426
456
464
475
486
487
479
467
463
477
486
477
457
451
452
449
457
459
457
456
441
433
445
458
470
467
472
477
486
488
472
461
449
459
444
444
449
451
459
459
471
486
493
497
500
494
481
455
422
430
435
431
424
432
436
468
493
497
496
491
491
497
503
502
499
506
515
546
586
610
656
692
702
727
806
888
941
985
989
989
989
989
988
988
988
988
988
988
988
988
989
989
981
930
888
839
768
696
637
585
529
463
390
321
267
198
149
134
140
157
179
183
178
197
219
234
242
263
282
285
280
281
297
314
323
334
347
363
372
379
374
370
381
370
369
375
391
398
412
417
416
408
382
371
386
407
442
461
459
439
425
415
412
401
387
404
424
442
463
459
452
435
397
378
387
399
413
433
444
450
451
455
457
455
460
463
464
458
455
451
451
454
453
450
440
436
450
471
475
478
481
486
479
472
476
471
485
498
506
498
491
482
474
481
470
465
464
472
477
489
508
506
500
512
536
515
489
485
486
473
470
483
493
497
499
512
500
492
492
491
502
512
517
498
491
483
465
481
509
523
518
514
523
539
528
516
519
528
528
530
532
536
541
524
495
471
482
501
517
525
531
536
533
533
531
533
538
538
555
562
565
566
563
563
573
583
591
580
564
562
547
534
549
581
588
580
569
555
554
549
559
576
575
579
592
592
591
588
568
557
569
573
566
564
560
552
542
535
533
544
560
582
568
526
518
527
528
527
534
537
532
539
540
540
540
546
545
536
509
498
481
454
452
484
519
537
525
492
454
437
446
445
442
442
448
452
459
465
469
460
444
429
428
432
439
439
432
427
411
402
403
401
397
390
405
422
431
432
429
425
426
431
421
433
452
450
431
424
414
404
405
403
403
417
435
430
414
414
406
399
410
419
420
421
420
420
414
401
397
405
419
433
445
443
439
430
409
400
402
410
416
441
460
476
480
461
437
432
431
446
465
462
464
466
469
462
442
444
455
479
493
487
455
450
454
452
445
444
446
440
448
458
469
464
463
450
434
425
437
447
459
463
470
481
490
474
445
418
398
391
396
406
421
433
448
459
464
452
429
422
436
446
452
458
459
455
450
450
459
462
467
459
465
463
447
457
479
495
489
468
456
459
460
464
462
446
436
429
426
424
415
423
466
478
476
463
460
457
467
480
502
493
459
452
442
433
440
455
466
466
449
420
418
456
507
534
507
476
471
493
510
501
477
472
476
474
476
482
483
477
473
460
451
478
484
481
479
494
503
503
499
498
494
482
485
484
475
467
461
459
462
479
488
480
465
453
444
454
468
469
471
474
481
488
488
499
503
502
494
496
518
524
520
515
503
488
477
474
489
520
527
504
500
508
515
508
490
485
490
486
474
468
468
449
428
424
431
443
472
502
490
470
479
486
474
466
474
477
483
470
460
474
457
441
451
470
476
467
468
462
451
437
440
446
440
447
450
441
429
439
456
487
518
535
524
487
476
458
445
446
451
446
452
466
472
473
482
487
485
479
466
452
449
449
447
447
447
447
432
422
430
443
469
477
493
510
512
536
564
598
641
713
781
821
827
824
867
897
921
968
989
989
989
988
988
988
988
987
987
987
987
989
989
966
937
899
854
802
743
684
599
527
468
406
336
271
217
179
161
159
159
122
93
126
173
206
237
259
274
278
266
266
280
302
311
324
334
347
353
365
392
423
425
417
402
389
377
371
370
379
379
390
409
418
401
393
388
404
424
437
441
439
446
445
448
451
451
448
440
414
407
412
415
422
426
425
432
440
436
431
439
439
437
433
434
426
420
426
444
452
459
473
493
483
474
474
479
486
498
501
492
474
455
437
453
487
510
505
476
460
469
475
473
464
458
462
450
445
442
457
471
459
450
453
466
468
481
512
529
531
523
525
523
520
513
496
484
492
512
527
528
517
515
513
498
498
502
502
506
514
508
489
488
488
496
499
500
501
514
522
525
533
533
539
536
527
553
572
563
561
561
568
574
582
576
557
551
552
553
560
568
567
556
558
560
556
556
553
553
560
573
582
588
593
585
567
540
542
556
556
556
552
572
596
590
576
582
582
569
551
562
578
583
564
553
557
559
553
561
571
560
549
538
532
551
564
550
523
519
514
501
493
505
512
518
527
521
521
521
515
508
495
486
495
501
496
497
499
507
493
472
452
422
412
408
420
422
415
418
425
438
445
445
440
446
454
472
485
475
443
425
425
424
422
425
425
414
403
403
408
401
404
420
431
424
419
416
417
420
408
427
443
411
385
365
372
398
417
446
452
439
450
455
446
440
437
440
440
432
426
437
451
445
424
423
431
435
441
447
451
450
442
437
440
439
436
434
428
443
447
446
470
489
492
475
438
416
432
437
434
432
441
449
449
451
446
440
435
442
452
467
473
459
447
436
440
446
462
462
458
447
446
457
468
474
478
468
445
436
433
439
431
425
429
432
450
448
437
440
460
471
478
489
476
477
486
482
465
438
433
448
452
458
465
463
457
459
456
444
442
450
456
458
451
444
453
474
461
452
472
488
499
497
484
472
462
455
445
428
417
423
442
465
468
476
497
500
489
483
484
478
476
464
450
434
417
409
417
447
461
459
461
473
475
477
479
485
494
484
479
459
443
441
451
460
471
484
505
517
492
479
474
462
463
458
464
465
447
440
457
461
447
441
446
455
472
470
468
476
480
490
476
480
488
487
485
495
498
494
497
507
506
503
504
491
474
469
481
494
502
502
501
489
468
478
462
438
459
498
509
500
502
500
487
475
495
504
501
513
513
511
516
527
541
543
537
528
529
516
508
515
518
506
505
503
501
490
462
454
464
472
482
476
466
461
466
471
465
457
451
447
448
455
475
497
495
482
467
471
494
496
495
488
487
480
482
476
449
439
457
464
463
463
462
460
467
477
482
484
489
486
475
470
449
435
465
483
456
447
469
480
478
464
450
451
460
481
497
483
460
453
447
446
447
450
456
430
406
424
445
475
494
504
493
500
545
578
603
626
651
698
752
796
849
894
929
959
964
990
989
989
988
988
988
988
988
988
988
988
989
989
989
985
942
896
830
749
647
592
547
496
431
344
258
201
160
122
95
87
104
141
184
212
200
207
227
245
253
270
291
309
328
341
346
355
358
362
374
383
393
385
378
365
371
387
401
427
440
436
429
417
406
406
402
384
372
392
419
411
407
413
415
426
440
446
430
403
402
429
457
458
446
445
444
422
405
412
436
444
432
438
448
455
466
468
471
469
460
428
433
471
495
498
487
473
466
458
462
479
485
473
463
484
496
481
480
481
474
463
468
474
476
478
489
490
476
468
471
472
458
450
461
480
497
498
489
489
489
499
504
505
499
485
492
504
505
505
494
493
499
496
495
499
504
511
523
527
534
545
536
511
493
472
472
481
490
501
501
504
518
541
560
558
526
506
494
502
516
522
524
536
544
551
554
562
562
574
580
569
562
567
563
563
564
567
569
551
539
532
537
524
531
538
579
612
614
619
611
593
573
568
566
582
593
607
606
584
562
549
549
546
533
551
571
585
573
537
520
522
545
562
569
572
565
555
546
539
536
532
531
541
554
535
520
519
511
519
521
518
512
509
510
513
512
501
482
477
489
489
474
467
463
467
466
461
460
454
449
450
446
440
447
457
442
442
444
419
409
398
391
409
414
398
386
373
377
382
403
422
427
430
431
433
424
405
401
411
422
427
422
422
437
442
430
412
409
401
395
390
388
398
417
431
431
433
431
442
444
413
399
418
429
432
443
451
458
453
435
429
431
427
420
411
403
419
434
456
466
460
452
458
461
449
439
435
440
440
439
442
437
429
436
443
453
463
462
466
468
466
467
462
461
456
444
442
437
428
443
449
452
460
478
473
455
441
435
455
476
480
474
465
454
451
436
426
425
403
398
415
424
436
463
470
467
471
466
468
473
470
459
456
442
429
423
435
461
464
465
484
491
478
468
470
472
472
468
468
467
467
484
490
469
441
427
431
445
452
456
449
442
427
431
452
469
466
442
439
444
445
449
449
452
455
457
462
466
460
457
449
452
459
460
467
475
485
492
486
468
470
477
472
452
455
466
477
483
471
464
459
463
476
486
497
515
523
518
510
493
478
479
477
467
458
470
485
484
474
470
474
471
479
492
500
501
489
478
485
498
515
529
538
526
507
504
508
490
468
440
416
456
513
523
505
502
494
489
489
487
482
481
482
470
465
462
461
466
472
477
483
481
466
452
446
457
472
481
483
463
445
457
472
469
458
467
485
476
467
471
464
448
439
443
443
442
441
461
478
484
479
462
452
444
450
464
473
467
464
453
444
436
432
444
467
475
480
488
489
494
498
493
490
491
474
449
438
436
444
456
467
474
480
492
511
520
527
543
566
588
607
621
649
685
738
779
807
847
866
876
894
930
960
981
989
989
989
989
989
989
989
989
989
989
954
916
890
858
795
726
652
580
523
472
412
343
262
187
151
144
120
109
149
181
188
197
201
212
229
242
243
255
273
287
301
318
334
345
364
384
400
406
400
413
424
413
407
425
437
431
430
441
424
399
388
397
398
405
426
439
437
428
430
423
416
416
429
436
442
448
449
444
439
441
441
438
442
435
432
441
456
460
457
456
446
448
443
444
456
459
460
464
465
476
498
506
504
488
470
448
437
449
466
464
465
464
459
445
436
472
512
525
510
490
474
461
467
468
473
475
482
495
505
509
503
491
497
509
503
500
509
518
512
490
493
506
527
525
511
505
481
450
450
474
505
540
553
543
526
511
507
510
514
522
527
538
552
551
547
556
569
570
562
512
483
500
507
499
506
508
518
541
559
585
601
592
590
573
536
531
546
556
549
541
545
562
564
557
567
585
595
597
602
589
566
539
527
515
512
538
569
586
579
565
563
570
575
571
579
586
586
577
559
540
525
511
523
555
574
575
565
563
569
570
565
548
541
547
550
543
534
548
561
554
544
535
539
542
541
548
555
549
532
503
482
428
398
419
451
464
467
476
498
510
491
478
478
477
461
458
454
440
441
438
447
462
454
441
433
432
433
419
421
421
415
404
413
418
405
401
394
399
415
417
417
400
386
389
388
380
384
414
434
444
436
432
426
416
415
421
420
416
423
429
431
421
422
429
437
444
453
455
445
435
427
425
423
434
450
448
442
447
453
436
436
413
403
406
417
421
430
438
440
446
444
443
440
434
432
456
468
483
487
481
486
485
485
483
476
468
459
437
452
460
456
461
435
405
407
419
431
430
425
435
439
426
429
424
421
434
444
457
473
482
473
477
477
465
446
419
432
446
447
443
447
451
450
451
457
470
485
483
483
485
471
450
451
462
468
462
456
466
476
475
463
450
438
456
486
505
499
478
466
460
461
465
468
458
451
431
434
450
457
490
505
501
480
466
456
463
478
477
473
466
468
468
482
492
499
509
502
476
465
474
465
454
456
454
456
472
475
467
464
474
493
505
503
490
480
484
497
493
485
499
496
464
449
454
451
444
434
442
453
442
430
422
459
492
500
499
488
489
505
512
511
506
509
513
515
520
531
539
542
526
525
532
529
531
539
524
501
475
466
471
474
475
482
487
484
475
462
458
461
453
456
469
466
470
477
474
472
468
464
466
457
461
480
470
443
454
474
481
482
487
491
493
497
500
486
458
453
464
474
484
478
475
474
472
479
477
461
442
443
445
441
443
445
469
488
494
496
488
480
477
477
481
473
473
477
485
489
493
486
470
445
434
443
450
453
471
479
486
507
533
553
563
556
562
609
676
740
793
827
859
891
915
939
959
983
989
989
989
989
988
988
988
989
989
976
948
919
880
844
812
762
694
631
580
523
468
408
343
277
217
177
161
158
163
176
191
204
218
221
222
223
220
230
255
283
286
289
325
352
347
353
371
379
382
388
399
402
409
404
414
415
415
427
432
423
417
414
417
423
422
425
431
434
426
416
403
405
426
441
450
442
460
471
460
451
466
472
458
445
435
423
420
430
442
440
440
456
472
477
488
484
469
454
440
437
462
474
462
448
452
468
485
491
489
477
467
464
453
441
449
463
476
487
492
491
489
484
484
479
472
470
473
471
466
466
495
517
526
520
503
497
500
515
522
514
507
501
506
511
513
513
499
475
465
474
509
526
532
533
531
528
522
509
511
520
528
528
531
531
530
530
535
541
540
532
536
523
502
488
501
523
546
568
590
589
572
567
562
557
546
538
536
529
523
541
561
577
597
605
593
575
567
576
568
568
581
577
572
574
584
586
592
587
578
581
573
553
540
547
545
548
565
575
583
584
569
553
551
542
545
554
543
522
536
566
575
577
552
539
527
535
548
534
524
506
516
538
549
543
526
497
459
444
472
504
525
525
503
491
475
473
501
510
507
494
487
481
480
454
434
443
454
455
452
449
434
430
427
423
422
426
427
428
423
409
408
424
438
441
446
460
448
424
395
369
363
370
400
441
458
460
449
427
400
392
402
414
416
406
405
407
415
427
414
411
420
409
409
418
420
414
396
388
395
413
441
458
460
441
428
423
429
454
458
449
431
427
420
418
429
435
437
440
430
415
420
429
430
429
437
454
462
455
461
454
446
440
444
448
446
435
421
407
437
450
447
445
464
473
471
475
474
459
455
473
492
491
493
493
488
486
489
492
474
440
431
435
440
448
450
449
452
457
463
470
473
444
425
414
410
406
408
429
449
463
468
473
475
484
486
483
476
468
462
454
451
451
454
449
459
468
446
437
443
439
436
435
408
413
445
463
463
457
449
452
464
471
475
453
452
479
477
463
440
425
423
438
451
468
476
482
478
466
468
471
474
465
471
478
476
464
441
443
465
477
465
436
418
424
429
460
494
518
533
541
541
522
513
504
501
501
505
512
514
520
521
509
476
461
464
461
465
469
457
449
477
480
474
469
453
443
457
474
483
480
462
448
450
468
486
507
515
506
493
491
494
494
502
510
521
533
532
514
487
489
493
483
488
479
471
467
467
460
466
472
469
484
489
477
476
476
486
488
483
474
475
468
461
452
445
448
445
453
467
473
481
486
484
476
473
471
458
466
480
496
496
491
489
469
446
448
448
447
468
473
469
473
471
463
476
488
475
475
483
483
488
483
479
473
461
459
465
464
455
444
416
421
446
448
430
410
415
433
437
441
466
481
498
520
531
557
590
621
648
678
714
750
784
825
857
889
922
962
990
989
989
988
988
988
988
988
988
988
989
989
988
970
933
904
867
809
736
647
565
509
463
404
350
288
222
167
143
139
139
141
158
183
203
218
236
244
236
238
259
278
304
331
350
381
400
374
348
352
356
372
382
389
392
395
397
400
395
387
391
397
408
413
414
414
421
419
418
424
436
444
434
433
439
440
429
403
385
380
393
391
381
393
420
439
464
491
481
451
447
450
450
425
429
454
457
440
424
422
433
448
467
470
470
466
452
444
445
450
455
450
458
464
472
476
468
475
491
490
478
471
489
516
513
495
488
500
510
517
498
478
480
473
475
477
467
470
472
483
490
504
502
480
477
476
473
488
493
498
500
494
500
507
512
513
513
517
524
534
524
516
501
496
507
515
518
528
537
539
534
526
532
526
521
512
509
515
526
525
538
555
551
557
562
562
563
554
542
554
576
589
591
585
573
563
554
540
516
521
527
542
542
551
565
583
596
593
574
564
565
570
589
596
612
602
573
557
549
536
525
532
548
581
587
573
554
521
527
539
537
537
536
537
530
519
531
546
564
570
561
548
537
513
483
486
514
513
507
511
516
517
507
500
500
503
496
480
461
449
443
454
476
484
485
499
481
466
454
426
431
437
444
457
455
457
454
428
409
418
427
431
427
424
417
420
425
428
424
418
415
407
396
385
352
364
421
460
457
424
400
410
437
444
435
416
410
422
426
423
428
435
425
415
417
421
411
409
410
418
441
446
442
441
445
452
452
448
448
452
448
447
436
430
422
427
436
444
445
458
467
461
458
460
462
467
469
455
431
433
444
445
446
467
474
458
447
456
442
437
450
454
450
438
432
440
450
462
457
445
453
458
431
427
442
456
456
456
452
451
459
456
453
456
471
472
462
449
441
432
436
458
480
481
461
455
461
454
445
451
457
450
456
457
458
473
487
490
464
432
407
443
475
473
460
451
442
450
455
452
447
448
440
409
415
421
414
439
488
494
481
457
450
453
452
454
452
475
505
517
512
497
483
478
470
471
470
466
475
484
485
486
489
497
487
484
483
483
477
464
453
457
474
492
475
462
463
466
457
437
445
450
449
453
454
458
465
466
471
485
488
481
466
464
464
463
461
460
463
491
496
484
480
473
471
475
482
491
485
474
466
465
469
484
494
498
502
502
487
488
493
459
444
456
464
470
489
498
487
491
496
500
502
504
504
513
532
541
533
525
531
542
553
544
531
516
499
482
484
509
520
521
500
493
489
477
478
490
498
483
483
486
484
486
482
472
475
482
484
474
464
456
438
437
457
484
491
472
463
455
446
438
446
454
458
460
459
460
460
461
462
470
475
472
475
474
472
467
464
457
469
469
453
453
475
472
459
457
457
472
487
493
489
481
473
465
459
460
463
463
469
460
452
440
426
438
446
430
401
405
452
468
513
559
571
601
623
630
643
682
747
781
820
860
886
910
951
990
989
989
988
988
988
988
987
987
987
988
988
989
989
985
950
920
886
826
751
692
634
553
457
382
321
261
201
138
100
94
100
123
147
165
172
190
204
216
227
248
275
296
308
325
348
335
332
337
350
361
355
371
374
381
386
388
388
385
390
394
405
414
424
422
421
418
407
399
383
380
381
393
405
414
412
421
424
416
410
419
433
422
421
424
442
451
452
450
442
451
446
461
477
499
478
431
413
418
421
420
423
423
439
454
453
454
453
462
478
490
491
492
490
480
470
471
466
469
457
439
429
427
448
483
490
473
463
470
479
480
476
479
486
504
513
519
523
521
506
491
495
489
488
491
494
499
509
516
508
507
507
510
503
501
507
501
487
481
493
512
527
538
528
535
549
550
561
563
534
533
542
538
533
537
534
512
495
486
504
496
520
540
538
554
561
550
548
560
597
630
625
621
619
616
586
543
539
545
550
553
561
568
567
558
548
546
551
562
569
572
574
569
563
566
566
557
543
526
535
557
589
615
614
598
582
570
567
551
536
520
512
520
534
547
558
562
557
551
549
543
529
528
521
517
508
504
504
506
507
528
560
552
521
470
456
487
500
505
505
497
487
483
470
448
441
457
477
490
483
460
442
410
420
440
452
454
457
459
463
439
429
434
441
443
443
438
434
429
427
428
435
427
417
392
371
361
360
371
399
423
427
425
418
412
407
400
397
393
392
378
387
425
445
446
439
434
427
427
427
417
408
397
388
415
465
489
480
461
440
403
403
423
438
444
435
422
420
434
436
433
426
432
428
430
429
436
441
463
466
454
449
453
456
468
477
479
462
435
443
444
446
458
452
416
408
420
452
473
483
467
458
454
455
444
440
455
448
447
461
461
462
462
457
457
447
434
435
457
459
444
435
430
427
439
459
470
465
466
473
474
474
471
465
455
453
455
444
437
451
463
468
467
458
457
459
447
433
438
456
454
445
436
443
459
446
429
454
499
501
491
486
472
461
457
455
454
460
482
487
470
463
451
452
471
474
480
481
478
451
449
446
447
465
490
482
471
476
477
475
450
453
470
500
509
498
476
475
481
484
484
472
470
472
474
470
451
448
453
464
468
473
468
451
444
453
467
485
491
488
489
465
471
478
489
494
479
473
479
484
491
503
509
501
480
481
482
483
488
492
499
489
469
455
466
485
501
504
506
495
470
454
456
471
488
473
464
478
489
504
514
516
519
519
515
507
500
499
491
487
484
512
534
551
560
536
490
470
485
514
530
502
473
467
477
488
495
487
468
463
465
465
466
472
478
481
476
474
469
469
463
464
469
459
455
469
463
460
466
471
483
490
485
473
477
489
480
469
458
453
459
463
457
456
450
429
411
413
448
470
479
465
465
461
469
479
489
478
465
475
505
516
483
455
427
422
440
449
450
429
419
430
446
459
478
500
513
521
527
555
595
629
678
722
765
792
816
861
920
975
989
989
988
988
988
988
988
988
988
987
987
988
988
989
989
975
945
897
829
749
675
595
518
452
385
316
247
157
83
81
111
135
144
157
170
182
188
198
215
231
232
250
287
331
359
377
366
354
357
389
395
385
386
384
393
402
401
374
339
327
328
374
412
444
440
423
411
415
433
437
423
427
428
428
429
410
386
372
385
395
415
419
412
416
426
433
437
453
454
447
461
472
470
467
452
440
434
412
417
427
426
436
459
467
462
467
467
468
474
471
471
457
460
462
452
450
457
470
483
487
489
498
501
502
498
480
467
461
457
467
479
497
514
501
497
489
472
468
498
529
533
528
512
498
497
498
498
503
522
513
495
486
492
508
520
505
488
505
506
504
508
512
515
521
517
517
511
512
520
529
549
567
575
557
529
510
521
546
550
541
526
519
520
524
525
533
539
549
558
536
547
563
558
555
563
581
581
581
575
584
589
586
583
578
573
577
579
560
564
581
608
600
570
545
543
555
561
568
564
565
555
550
554
552
557
562
568
569
579
573
552
529
529
536
531
544
560
572
573
570
560
550
552
555
544
537
545
561
567
569
547
542
557
550
531
500
472
423
415
450
494
479
433
409
410
426
447
462
461
448
422
423
458
469
449
441
461
470
454
435
432
425
425
425
418
400
400
415
424
434
441
442
427
404
383
370
373
382
397
411
417
419
410
423
430
428
430
432
425
428
433
428
425
414
414
413
404
385
387
411
421
425
415
406
415
434
448
454
460
467
462
450
428
421
420
424
411
415
441
466
478
477
474
468
452
438
431
455
451
441
431
428
428
441
450
454
454
461
466
455
455
468
483
459
427
422
433
451
460
458
441
429
434
440
430
422
425
423
454
460
469
473
459
445
439
439
432
436
445
458
461
466
465
452
436
426
440
444
444
447
447
447
446
448
452
452
453
456
454
450
451
450
442
443
443
445
460
474
478
468
446
441
443
444
478
486
473
478
491
497
475
439
430
436
458
482
478
468
460
465
489
508
508
495
463
434
428
450
481
501
512
501
468
441
424
433
463
485
498
497
489
491
505
506
490
472
476
487
482
469
464
463
465
450
436
435
457
476
482
485
485
473
470
467
462
466
454
432
423
426
436
473
486
489
490
490
484
474
476
487
490
485
477
468
472
478
484
484
488
492
495
490
482
449
448
460
472
484
494
505
504
493
483
491
487
472
479
506
510
505
517
532
531
517
507
506
505
477
457
471
507
526
522
521
518
508
504
496
491
492
476
465
465
479
510
528
517
494
473
478
489
494
483
465
462
467
478
477
470
461
465
469
480
484
481
471
460
448
442
451
457
466
467
465
455
443
441
462
474
476
478
485
487
464
454
478
487
468
439
433
446
463
456
459
465
461
465
475
475
466
465
468
481
479
464
453
439
437
431
424
435
467
489
490
470
461
473
481
502
538
561
587
627
665
693
723
767
834
876
880
901
955
980
990
989
988
988
988
988
988
988
988
988
989
989
979
933
897
871
846
799
739
680
617
547
464
391
321
247
169
116
85
92
106
135
165
190
194
212
233
256
274
291
302
303
278
265
276
289
330
377
401
411
412
409
406
413
399
388
395
404
409
405
412
411
414
411
409
412
414
414
411
418
426
428
422
439
448
427
403
405
419
435
449
464
464
452
425
401
403
423
442
447
440
451
447
449
456
462
473
482
483
480
472
464
468
468
446
419
414
440
478
491
478
483
472
440
431
445
457
486
478
459
456
454
480
501
502
498
484
461
470
496
513
529
521
500
483
486
493
498
494
478
458
457
478
489
515
552
552
536
521
505
508
509
498
503
508
508
507
516
519
522
527
519
518
506
502
504
511
509
500
520
547
570
555
538
533
533
554
560
554
559
563
557
557
557
553
550
557
574
585
583
576
548
534
540
556
558
559
566
569
563
562
579
580
569
565
564
567
575
581
589
580
562
535
529
543
559
564
560
557
563
561
566
581
568
562
566
575
578
561
538
500
485
505
515
529
551
573
576
558
556
557
554
552
550
535
524
513
486
483
489
507
512
507
504
513
509
502
498
489
479
471
476
473
481
498
494
476
450
439
446
447
423
407
398
406
426
452
458
443
421
408
421
434
416
415
408
392
390
395
404
415
411
413
422
425
413
394
389
393
403
408
420
417
407
412
417
401
381
384
405
418
424
423
413
421
430
425
417
428
434
420
414
401
402
420
428
433
447
456
456
452
431
419
419
425
421
414
407
416
430
451
462
455
442
460
478
480
464
446
455
477
472
458
453
450
435
427
432
450
466
462
448
443
452
457
460
472
479
481
467
465
453
433
436
434
436
432
441
471
493
489
466
444
436
439
448
456
464
466
467
453
445
441
448
456
461
460
455
441
429
435
447
469
470
456
451
452
459
470
486
487
465
433
422
444
450
450
455
454
435
423
446
464
473
476
460
448
455
459
445
426
424
432
445
462
486
496
482
474
475
481
484
470
465
452
445
454
466
487
513
506
479
474
484
504
513
484
462
449
428
424
463
494
505
504
488
477
480
488
491
491
501
487
456
437
449
461
469
478
492
488
478
466
451
474
489
491
504
510
520
518
509
508
507
520
529
542
546
540
516
480
472
500
503
472
471
488
507
510
506
484
467
472
471
461
456
434
439
462
465
453
465
477
486
479
477
472
468
476
487
477
458
456
445
432
432
433
444
470
479
474
473
477
477
469
465
467
467
471
479
481
493
501
501
498
495
481
446
432
433
434
465
477
474
478
484
492
488
474
439
417
434
443
450
461
461
457
453
442
441
453
474
470
451
476
507
539
536
534
557
621
669
706
749
793
835
858
886
911
947
974
987
989
989
989
989
989
989
989
989
989
989
958
921
886
851
827
784
719
657
600
556
515
476
411
334
259
196
158
142
119
115
122
148
177
180
185
207
221
231
226
246
274
281
286
317
378
408
415
410
416
431
445
447
425
396
391
399
396
395
392
407
433
451
444
432
431
429
426
404
424
440
448
446
442
431
421
424
431
451
468
469
457
448
434
410
421
448
456
441
444
461
469
474
478
473
467
454
441
454
460
466
463
461
461
469
477
483
480
477
476
480
481
482
468
449
449
458
471
488
481
474
473
480
491
490
479
472
485
484
470
475
485
488
494
497
488
480
477
481
468
472
496
511
510
527
519
505
519
531
521
528
540
538
537
537
527
507
494
508
549
559
555
526
496
471
457
499
562
578
579
573
559
546
549
560
565
552
561
551
537
529
547
556
557
573
579
574
559
549
535
544
563
562
562
575
582
573
569
562
560
565
583
595
590
587
601
600
577
554
555
565
556
554
557
571
578
563
553
531
518
519
533
552
558
564
571
574
562
567
568
565
556
538
528
532
537
542
554
551
529
517
506
492
484
467
492
523
552
564
557
532
517
511
514
505
497
489
486
486
493
471
444
425
422
435
448
450
452
464
483
479
449
423
401
371
365
374
404
433
433
423
411
406
398
403
411
425
434
440
435
408
388
383
386
395
401
407
411
403
393
367
364
372
388
394
409
426
411
406
427
434
432
439
450
445
418
391
383
397
417
439
453
453
439
425
411
403
393
390
406
428
440
442
447
448
442
436
431
436
438
441
453
470
472
469
451
425
418
422
447
475
465
452
442
433
429
433
452
451
446
427
422
440
476
477
467
460
457
477
490
483
471
461
434
416
422
469
493
480
455
443
450
462
462
454
463
459
458
464
461
464
469
475
485
490
485
470
455
440
432
429
434
435
436
430
437
447
459
461
444
431
438
439
441
452
462
476
464
447
447
453
472
488
489
474
465
459
470
462
439
438
432
440
449
437
413
425
449
469
471
472
477
482
477
473
476
473
470
465
466
472
492
477
449
444
443
456
468
469
464
475
474
467
453
439
449
449
460
490
485
459
449
470
482
481
496
507
510
517
499
488
479
470
466
463
465
483
501
498
485
471
470
467
474
485
486
483
477
469
462
463
461
462
477
476
469
475
489
509
516
522
540
555
557
538
495
482
490
497
504
505
507
501
492
484
497
498
491
502
520
511
477
470
467
456
432
426
455
481
489
483
463
460
484
489
470
452
436
425
434
475
478
479
486
485
478
470
463
463
463
466
475
469
477
497
500
493
485
474
468
461
478
483
480
474
475
459
439
441
448
457
465
464
450
448
468
473
481
489
477
459
446
437
428
424
425
424
423
439
455
440
445
469
487
492
499
509
502
505
522
556
585
610
648
692
744
789
825
847
882
923
975
989
989
989
989
989
988
988
988
988
988
988
988
989
989
970
912
857
781
720
684
634
586
554
476
398
331
273
221
160
107
95
124
147
163
174
188
203
227
251
276
295
287
282
290
318
343
349
356
369
379
389
406
410
397
384
381
392
403
409
410
393
372
385
416
430
425
418
422
425
417
410
413
403
404
402
393
382
372
383
407
424
431
456
477
475
485
477
447
433
445
466
472
479
477
469
471
478
483
466
448
438
445
462
464
456
462
473
468
454
412
415
437
475
482
471
454
441
451
467
467
478
478
451
460
480
482
494
518
529
510
490
474
457
462
481
491
494
500
506
504
475
455
450
460
469
475
482
496
498
502
521
518
501
473
471
477
475
486
507
517
511
506
500
517
519
521
523
529
529
524
533
534
550
560
565
550
545
557
571
557
533
529
535
530
537
552
555
541
546
556
576
580
581
585
585
581
569
553
556
572
573
569
562
566
572
567
557
563
575
580
580
576
573
574
571
569
566
550
529
511
510
531
535
547
559
566
575
580
578
564
552
545
555
561
558
548
533
524
537
532
527
524
509
520
539
533
517
515
519
522
512
489
473
459
462
463
478
495
487
471
448
438
442
449
447
449
455
471
467
455
434
420
440
449
435
424
404
407
417
414
409
415
422
416
429
416
397
397
408
424
421
407
406
413
411
417
429
424
413
402
408
414
423
420
413
413
409
396
397
401
399
394
403
423
437
473
478
464
445
424
415
410
412
415
422
425
430
434
438
455
460
455
429
413
401
410
421
432
445
448
451
442
441
422
402
407
417
439
465
472
454
452
443
444
448
436
425
436
445
454
465
479
469
462
457
460
457
441
430
449
453
449
464
480
478
480
471
443
427
431
448
439
434
452
463
470
459
435
425
421
402
408
422
434
467
501
507
498
485
483
479
456
444
440
436
447
463
475
486
489
487
487
488
485
456
438
445
450
447
451
451
442
452
468
478
477
465
454
446
444
436
427
434
448
453
458
450
436
439
445
446
435
438
447
452
455
462
491
508
507
485
456
459
466
466
458
466
448
433
451
484
493
503
502
484
470
462
465
464
472
483
488
485
478
471
479
487
500
505
512
508
488
472
474
480
478
466
475
484
487
498
500
499
485
494
502
482
472
471
469
468
467
464
480
483
468
472
478
478
478
484
479
491
500
539
537
499
492
519
545
548
530
516
516
522
526
515
499
496
494
493
488
488
478
458
464
467
462
458
455
453
460
463
472
476
470
459
454
460
451
458
485
481
462
473
476
478
480
477
455
424
437
448
459
475
478
468
458
459
461
463
463
465
460
466
471
460
440
434
440
451
487
498
496
502
498
504
510
485
462
440
438
432
426
435
444
447
449
448
443
438
427
422
434
435
445
444
455
472
473
485
511
542
574
610
637
667
715
772
821
858
892
927
970
990
989
989
988
988
988
988
988
988
988
988
988
988
989
988
944
904
881
851
801
731
639
554
482
411
347
279
215
167
130
120
136
159
166
159
147
183
236
237
246
271
297
314
331
337
341
345
343
339
346
357
364
372
376
380
388
395
400
411
390
383
381
390
396
393
397
403
415
418
402
394
398
410
419
427
406
397
402
410
403
416
447
457
471
485
492
470
433
397
373
379
389
396
403
410
410
417
441
475
479
462
449
435
442
446
435
434
455
465
466
462
457
458
456
464
481
481
475
463
471
508
512
497
483
467
466
468
450
438
441
452
467
463
460
469
487
505
508
498
495
490
487
489
493
483
495
508
508
502
510
526
531
528
504
494
492
501
509
515
513
511
516
516
521
520
514
515
521
527
540
537
530
519
516
526
538
539
547
562
566
566
563
553
526
516
533
544
562
580
589
566
534
520
529
546
562
569
565
566
567
563
568
570
565
556
545
538
545
545
552
566
575
573
581
583
587
567
553
564
562
555
563
579
588
567
550
548
551
548
549
546
532
520
521
526
541
547
554
557
558
554
540
534
517
504
504
516
536
540
512
482
494
490
486
472
489
485
474
474
468
468
468
445
420
433
438
418
399
409
418
445
469
472
462
425
406
423
445
439
432
420
399
383
390
424
449
433
403
401
412
414
410
404
411
409
399
398
396
403
411
420
450
456
429
414
395
396
401
392
390
401
421
439
442
431
429
427
429
427
427
436
438
434
422
412
403
422
432
418
427
447
449
455
451
435
418
410
417
429
451
464
465
460
450
442
451
453
446
435
437
438
438
450
456
451
433
429
434
443
450
447
441
438
442
445
444
455
437
396
404
420
425
431
441
450
463
477
455
433
429
435
450
459
469
481
477
481
487
465
433
419
422
438
456
485
491
474
467
464
456
458
461
468
485
507
518
514
480
455
439
404
403
429
449
455
458
472
478
447
449
462
462
455
444
446
451
453
457
457
452
449
451
458
444
435
436
448
458
479
497
504
508
501
498
494
474
442
420
418
417
424
446
479
496
489
473
462
454
455
454
455
455
460
471
494
497
465
444
452
474
479
465
462
461
479
499
501
503
501
493
478
472
476
479
478
474
490
476
448
418
379
388
442
457
447
462
487
487
490
509
514
514
523
526
504
471
460
471
489
502
505
502
504
495
486
484
478
480
487
491
487
476
467
470
468
456
458
463
467
469
470
480
478
477
481
501
526
528
524
521
518
513
510
515
519
515
501
489
503
512
511
509
510
503
498
492
475
476
497
506
501
495
491
486
476
462
458
458
463
484
497
503
484
458
450
441
425
433
474
486
478
479
500
498
489
454
439
446
463
468
478
472
448
435
433
440
450
456
471
464
440
413
424
451
470
479
487
473
469
458
447
477
479
474
468
478
492
490
485
464
453
432
426
430
466
493
486
466
452
448
449
451
456
459
471
489
501
513
524
539
576
611
646
684
737
783
822
859
886
926
962
990
989
989
988
988
988
988
988
988
988
988
988
989
989
984
949
920
854
781
707
637
565
509
447
384
319
244
159
105
96
98
118
136
151
170
214
232
241
250
227
204
204
232
270
308
342
351
352
351
364
380
398
404
405
400
389
386
390
400
405
406
394
378
383
395
420
444
437
415
413
416
429
433
426
434
430
420
427
449
454
463
472
451
434
431
436
431
428
432
417
403
420
441
437
430
425
434
447
455
457
459
467
473
473
459
445
443
441
448
466
488
500
503
488
474
459
442
443
472
489
483
481
469
452
456
472
477
472
469
460
461
459
457
479
486
483
501
507
505
499
482
482
489
496
500
500
485
484
520
528
511
482
479
484
502
516
525
535
522
496
468
468
482
506
511
514
535
548
530
518
528
520
522
545
555
554
562
554
539
561
576
569
553
553
556
570
587
595
599
582
566
590
599
601
584
558
534
517
524
539
551
558
558
567
575
570
567
563
565
570
576
577
576
573
572
573
576
570
557
561
567
564
571
570
561
558
561
556
555
545
539
546
546
530
511
504
521
560
574
572
560
549
538
522
506
506
515
519
508
483
482
483
477
460
470
496
500
497
486
465
470
479
492
505
505
506
495
466
451
437
429
424
420
421
437
443
440
438
439
431
415
403
391
396
397
400
410
404
396
406
412
421
416
405
412
418
420
415
421
419
424
417
416
403
392
397
405
401
403
414
424
430
431
423
418
415
409
403
405
396
405
422
432
434
425
417
414
415
414
421
424
423
422
424
424
422
426
429
434
430
430
435
452
460
465
463
458
457
446
443
443
445
444
450
463
463
450
455
471
469
451
431
431
433
426
431
448
446
436
434
443
445
443
449
439
435
441
453
465
461
440
434
444
443
442
447
456
452
437
437
439
449
470
463
449
450
452
452
468
459
462
479
477
463
450
449
456
472
472
433
393
401
404
403
413
436
460
467
476
480
478
463
460
456
452
456
456
455
445
445
444
455
463
451
453
469
484
484
480
469
456
460
462
463
478
483
481
495
497
469
467
475
478
474
466
458
453
452
449
448
448
451
448
451
455
468
486
485
475
462
460
448
445
447
444
455
468
482
492
488
465
453
455
465
493
508
495
481
482
489
494
482
497
497
476
475
494
524
535
529
493
444
439
454
452
443
447
442
434
423
429
437
454
479
485
477
472
473
469
461
464
474
490
515
534
529
506
478
472
492
490
470
472
473
455
446
456
486
514
523
526
522
519
504
488
475
472
472
475
468
464
463
464
477
483
475
477
492
485
470
474
505
522
522
524
514
506
519
533
535
530
518
506
488
487
502
502
516
526
535
546
551
540
525
519
516
511
495
488
475
454
437
444
442
432
425
454
490
502
496
498
495
496
499
494
493
488
484
484
486
493
502
492
472
457
456
460
446
438
453
459
456
452
438
436
451
447
442
452
465
470
481
487
491
491
488
483
471
462
452
446
448
460
467
458
439
432
430
439
446
457
462
459
455
443
443
462
465
472
485
496
493
508
555
582
591
617
680
743
780
801
835
863
880
902
937
964
989
989
989
988
988
988
988
988
988
989
989
985
929
873
842
814
762
699
638
576
509
467
435
359
267
204
160
136
136
152
163
172
183
198
201
213
219
227
248
269
287
306
310
316
300
292
313
351
384
388
400
413
426
426
438
450
453
450
437
430
416
399
400
419
426
430
430
423
423
431
427
412
405
400
413
426
436
430
418
418
427
435
446
473
496
482
478
476
471
467
484
493
491
484
465
457
460
448
433
441
453
462
469
452
442
464
472
471
472
462
483
498
487
484
479
479
476
472
480
483
489
488
468
450
456
463
468
480
494
508
507
501
483
492
493
484
484
494
489
480
477
485
493
488
493
497
504
507
496
492
479
477
487
496
514
522
501
488
499
505
513
544
557
553
534
534
533
530
533
528
538
542
545
541
531
523
523
516
508
530
561
563
554
564
581
581
583
592
592
609
608
591
582
559
541
545
575
595
609
621
620
623
617
599
575
575
577
581
580
586
584
580
588
587
583
581
570
561
564
553
545
547
554
556
557
555
554
551
548
549
549
550
550
545
540
537
522
521
550
561
543
503
482
491
501
497
493
510
511
503
488
483
486
498
502
499
518
522
484
430
410
410
415
412
416
411
407
413
435
458
454
450
442
428
416
404
403
412
432
460
479
465
431
415
395
359
363
407
443
440
419
400
395
389
396
399
403
405
403
404
406
389
389
404
418
424
426
421
422
422
426
427
421
416
417
425
426
420
427
434
437
438
431
416
398
404
433
450
453
436
427
428
438
431
416
415
420
429
426
426
428
434
439
440
435
413
424
434
427
436
460
486
508
497
466
428
408
426
456
479
481
451
428
415
435
457
454
440
448
465
472
453
431
420
420
427
443
476
495
497
487
483
467
463
458
450
449
455
461
454
461
463
453
455
455
466
454
450
458
482
481
469
458
452
458
455
448
425
406
417
460
475
468
455
452
458
453
473
468
457
462
462
463
460
451
447
447
448
451
453
453
449
446
452
443
449
478
491
471
455
449
447
449
452
457
472
487
492
490
482
472
469
470
462
457
483
514
517
495
471
459
466
470
451
441
441
438
448
462
465
477
476
457
435
442
449
449
457
451
455
468
471
477
486
491
491
476
461
483
493
480
477
478
487
484
477
458
450
459
479
485
474
475
494
507
503
492
487
487
495
492
491
489
472
458
476
502
512
522
500
491
498
506
508
507
504
494
495
503
496
484
481
480
501
521
515
502
489
500
519
521
516
518
507
486
478
471
472
471
476
479
478
479
476
483
489
483
464
451
436
416
418
437
450
467
479
479
478
479
495
506
501
479
442
435
452
468
461
458
470
495
504
511
490
474
460
417
404
433
462
479
470
463
442
438
470
482
486
486
480
472
459
453
459
450
447
445
448
444
430
428
440
450
450
474
493
496
490
498
507
516
522
526
536
549
564
591
624
672
742
776
796
833
890
943
957
960
980
990
989
989
989
989
988
988
989
989
973
930
873
826
825
820
765
687
625
583
536
485
424
359
305
243
186
169
172
168
156
157
161
171
186
196
205
222
238
253
277
304
343
325
319
330
331
336
343
344
352
369
382
410
428
433
429
411
419
416
392
405
431
454
456
447
431
438
445
433
426
441
449
452
449
449
447
436
439
441
435
428
441
447
448
443
432
426
420
451
483
492
501
511
498
489
486
479
475
472
480
483
481
479
478
475
493
518
518
517
509
502
491
471
447
434
452
481
492
491
494
489
488
487
493
487
479
466
459
463
471
479
495
500
490
474
465
470
490
503
507
512
521
529
534
514
498
502
508
521
517
511
489
479
475
471
489
527
552
548
518
510
511
507
505
513
520
524
525
528
523
522
541
535
527
547
565
576
587
570
556
551
536
542
554
575
590
591
590
593
591
580
582
595
598
597
605
596
596
595
589
588
598
604
601
604
588
560
559
561
563
569
576
581
600
614
582
552
544
548
552
571
593
595
581
538
517
533
547
544
547
554
559
553
535
525
510
506
508
511
507
511
528
525
494
480
491
487
487
483
476
469
466
464
470
464
465
481
471
466
461
460
461
463
453
450
444
431
442
432
421
417
415
418
413
410
404
385
377
397
428
432
438
456
458
444
418
384
389
382
381
386
406
410
411
412
399
393
393
405
418
437
441
432
435
431
421
401
408
419
430
433
416
397
386
402
403
398
395
407
435
455
457
444
440
453
455
443
444
437
430
423
431
433
418
430
450
456
446
437
427
422
419
421
421
425
445
464
479
490
461
426
405
420
453
461
462
473
444
426
417
408
433
464
476
455
431
430
423
395
385
393
430
474
488
476
462
458
471
482
493
478
474
482
483
481
477
472
459
448
434
424
433
447
456
479
479
461
451
442
441
446
460
465
452
436
438
444
457
470
479
479
480
484
478
489
492
477
467
463
454
442
446
455
461
460
451
456
452
448
452
450
457
452
439
440
454
451
466
475
469
456
447
434
428
422
427
462
469
476
499
514
498
455
438
467
490
487
484
486
485
465
433
427
419
421
425
442
451
468
479
473
463
450
448
474
515
545
524
476
459
459
439
435
446
451
437
440
449
459
483
501
504
500
480
467
463
464
472
484
486
485
481
489
499
489
478
481
482
500
506
490
479
479
480
486
503
512
507
485
478
478
476
470
475
475
470
479
475
468
479
465
460
471
480
511
516
496
496
499
500
495
498
507
507
497
492
494
503
509
511
512
515
515
516
526
520
517
512
498
494
487
477
467
455
447
464
480
484
476
459
443
431
438
442
451
455
452
448
466
488
510
495
467
432
413
426
448
463
472
470
452
446
463
462
456
457
469
477
477
467
461
478
486
487
477
476
480
475
466
462
462
475
480
475
472
473
475
478
487
488
477
455
441
437
438
446
445
434
417
420
430
445
463
472
480
491
506
513
521
531
546
572
586
612
638
680
725
761
789
820
851
895
941
975
990
989
989
989
989
989
988
988
988
988
988
989
990
959
924
867
833
794
726
642
580
509
444
393
345
289
225
167
139
143
165
183
196
204
214
231
245
255
255
233
261
295
320
322
332
337
335
350
373
380
374
377
377
377
382
378
391
409
414
406
403
400
390
398
424
439
443
444
441
433
413
407
411
419
431
423
394
387
395
402
408
405
405
421
443
455
462
469
465
446
440
453
454
439
440
454
460
471
484
455
414
433
463
470
465
462
468
468
463
459
450
430
426
442
445
467
491
504
485
470
454
430
427
429
448
472
496
508
514
511
507
496
482
487
486
468
474
483
487
481
474
473
478
496
511
500
487
463
455
493
519
537
519
479
493
521
538
540
539
542
535
525
530
536
532
529
518
508
506
511
540
546
546
524
500
499
507
520
528
538
546
531
533
568
584
586
583
573
556
549
555
556
564
569
571
562
564
571
580
585
585
592
590
582
582
581
566
543
535
567
597
605
605
595
568
540
532
556
589
616
613
561
534
542
552
552
566
577
565
555
555
561
563
554
538
529
534
545
551
546
533
525
526
522
532
538
531
522
511
491
491
492
473
461
465
473
476
451
428
433
436
433
436
446
435
425
426
431
432
428
425
426
431
422
423
431
426
389
367
372
380
388
407
409
398
391
398
407
408
404
399
401
395
389
389
386
399
402
403
400
408
416
424
433
435
431
417
411
407
400
386
393
401
407
402
403
423
438
435
433
438
436
422
411
413
420
426
426
414
417
426
434
435
426
423
438
451
453
444
432
429
438
454
469
455
428
396
382
393
407
419
440
456
464
451
441
433
423
413
409
409
416
433
449
465
472
473
469
456
450
423
404
401
429
459
461
451
439
429
460
484
476
482
481
473
443
421
435
459
473
471
466
464
454
441
434
433
430
445
473
495
493
486
484
482
467
458
464
464
462
458
448
428
434
475
504
503
492
473
463
465
476
473
454
451
465
473
469
465
462
472
480
482
485
485
465
444
439
442
455
435
436
445
466
475
469
470
472
477
466
449
451
474
481
464
445
456
472
474
471
483
495
496
487
481
462
437
417
415
424
430
430
435
439
445
452
467
491
480
471
468
463
472
481
492
505
519
520
504
475
449
439
433
424
435
457
469
464
460
460
454
448
458
476
475
467
473
475
473
473
478
468
451
445
457
493
495
491
486
475
466
455
444
451
460
467
495
533
553
538
529
523
516
521
527
500
466
437
446
477
491
509
514
507
497
518
537
533
531
516
509
513
495
483
472
458
460
478
493
500
506
522
531
526
525
509
505
510
512
518
521
511
487
482
485
497
503
511
499
489
476
468
473
485
486
483
482
474
464
453
457
460
456
450
436
446
472
478
471
464
472
484
494
490
485
497
494
468
454
461
458
458
462
464
469
469
474
470
463
470
481
488
500
492
475
468
445
433
433
445
459
466
467
469
473
466
454
466
478
467
471
482
470
467
477
479
457
445
428
403
411
432
441
440
443
441
448
460
465
487
500
512
536
565
586
618
654
719
772
817
854
895
923
935
959
989
989
989
988
988
988
988
988
988
988
988
988
989
989
989
977
922
873
810
741
675
618
547
463
388
340
295
219
157
135
142
149
165
179
189
189
185
212
240
246
265
290
297
295
281
306
332
346
350
345
354
363
377
393
401
420
431
434
428
411
385
380
393
404
411
412
412
415
410
393
411
432
438
428
427
420
398
387
397
411
417
425
423
413
413
425
439
443
452
459
454
443
452
452
440
443
451
447
432
431
432
433
430
438
444
444
444
451
460
453
437
427
427
431
415
402
433
447
460
481
476
475
488
496
502
497
486
472
472
494
494
496
499
488
492
497
503
503
499
498
484
473
464
467
489
498
522
548
538
516
489
489
506
499
477
468
493
516
511
497
494
495
533
553
558
539
518
513
506
513
540
556
540
531
538
534
518
524
548
562
571
567
556
555
563
573
574
580
586
589
566
562
567
591
596
584
571
576
575
550
552
560
560
558
566
580
582
578
581
584
566
556
548
551
566
598
613
612
607
591
586
591
582
566
542
510
495
508
539
553
564
571
560
562
567
568
556
542
525
518
530
535
531
529
536
528
520
520
523
510
486
492
505
510
520
518
499
476
422
411
459
472
464
450
446
444
442
445
458
444
411
416
446
464
467
450
427
397
359
372
392
396
399
405
402
387
382
400
411
425
432
437
432
415
396
372
381
397
390
383
381
386
381
387
387
380
387
395
394
399
400
400
424
439
432
426
426
421
413
406
390
392
405
418
431
440
442
427
412
415
418
426
426
425
420
413
410
417
415
401
395
395
399
412
423
429
433
430
426
420
438
454
461
459
454
453
452
460
466
461
446
437
453
445
423
417
423
439
461
459
462
442
433
439
444
441
463
484
498
509
513
498
456
461
454
450
453
449
444
431
425
424
426
442
470
492
484
468
474
469
456
455
453
447
456
483
486
489
482
453
444
446
447
456
461
484
501
507
493
487
485
465
446
444
447
439
443
451
448
445
450
443
443
450
457
466
480
486
478
471
467
472
473
467
460
456
440
448
457
451
448
448
441
431
424
441
463
464
464
450
454
474
473
464
464
462
455
466
472
474
475
477
476
469
457
461
459
470
490
499
489
451
444
472
506
507
495
473
444
442
438
454
451
447
451
435
449
477
481
488
504
503
508
503
485
463
452
444
452
502
532
517
498
486
484
472
460
465
461
461
475
492
498
500
500
500
505
501
492
471
450
439
430
437
441
455
485
490
493
473
459
462
475
484
477
467
467
471
461
462
480
497
494
498
505
501
495
486
490
485
490
500
502
493
480
481
492
494
483
493
497
493
496
495
499
499
502
500
492
502
497
471
477
495
505
510
524
534
529
533
546
548
526
517
533
539
535
527
531
516
511
510
505
494
500
511
517
513
507
504
503
501
493
493
481
463
470
484
489
488
496
501
486
472
460
458
461
477
486
473
456
459
467
450
424
426
444
456
458
462
461
461
462
461
453
453
478
488
487
487
490
491
481
480
487
483
468
465
471
477
462
456
450
444
443
440
436
432
432
432
438
438
437
439
443
441
434
453
455
464
462
460
462
471
478
500
528
554
603
648
684
723
757
774
806
861
926
983
989
989
989
988
987
987
987
987
987
987
987
988
988
989
989
989
957
894
836
786
717
665
604
523
452
383
300
210
123
75
64
110
133
145
163
171
184
208
224
234
235
237
245
254
262
282
336
372
368
338
332
346
376
390
390
385
374
366
385
405
409
417
435
444
441
440
431
417
405
407
424
425
423
416
413
410
418
425
424
417
409
417
424
428
434
446
457
457
461
459
454
455
458
469
463
441
423
425
447
453
423
386
388
399
416
435
447
445
437
431
436
443
457
468
462
465
462
445
433
443
470
473
457
459
479
493
487
476
471
473
479
474
491
496
496
497
487
473
466
466
476
500
537
547
539
526
523
513
507
517
515
496
479
484
510
521
523
532
523
514
519
528
531
531
537
537
536
541
543
547
547
542
541
546
543
541
557
566
572
548
527
519
527
540
543
551
582
598
588
584
575
578
571
545
541
564
583
575
573
589
609
609
607
603
611
618
611
599
585
563
543
535
549
564
585
599
585
572
575
595
592
581
565
542
535
548
579
598
586
557
563
549
527
527
534
531
531
533
527
518
506
515
529
521
531
556
563
568
568
547
509
495
497
502
512
519
516
526
528
487
454
445
434
427
444
460
464
472
462
455
449
441
435
415
407
409
407
419
417
413
425
429
422
419
423
419
425
417
412
417
425
411
404
400
406
394
380
396
414
425
413
392
405
413
401
379
378
382
395
412
430
428
400
383
395
393
397
414
422
419
411
415
431
419
398
388
393
397
398
397
392
392
411
430
451
461
470
462
435
404
392
391
394
410
413
421
442
444
455
448
448
443
425
412
427
445
454
468
446
425
442
463
471
477
481
470
472
483
492
480
471
455
438
430
424
429
423
435
463
470
487
483
450
433
440
450
444
439
457
469
477
492
499
468
430
425
442
454
448
459
469
465
457
460
448
443
444
470
499
496
486
461
418
410
419
433
455
481
495
495
499
495
482
476
447
435
435
442
440
442
487
504
500
491
485
465
436
438
451
457
459
461
468
465
454
453
451
439
449
465
474
485
491
488
493
485
484
490
496
487
484
491
477
465
460
466
467
468
450
457
455
446
444
446
454
489
510
506
499
469
448
420
407
429
451
471
484
496
491
488
487
489
486
481
476
473
479
489
476
465
456
454
467
481
493
503
505
499
500
498
472
456
462
472
471
470
468
460
462
461
458
463
454
442
450
482
496
494
482
487
496
472
471
467
467
472
491
501
502
502
493
475
465
464
465
466
475
496
486
471
471
487
491
497
504
508
492
462
447
462
488
515
529
515
486
477
480
497
508
512
525
543
531
519
512
509
512
482
473
484
509
525
538
543
520
486
480
487
495
496
493
492
488
478
487
512
523
537
527
518
532
544
526
511
507
500
492
498
494
490
492
502
508
515
506
503
503
504
508
507
493
482
480
480
472
467
472
463
464
468
468
463
455
444
444
455
456
457
459
478
484
473
461
467
474
469
466
469
474
463
465
481
495
489
475
479
483
482
482
489
492
508
517
508
483
441
406
409
417
417
435
458
481
494
494
487
484
476
458
441
447
444
454
458
450
434
423
427
456
481
485
487
493
492
526
565
598
638
665
693
746
799
833
862
890
901
937
973
990
989
989
989
988
988
988
988
989
989
990
948
922
898
875
840
780
703
639
588
537
489
422
351
281
224
194
167
153
148
151
169
192
216
219
211
213
224
243
252
256
269
293
296
313
349
369
375
365
383
418
447
467
462
451
442
428
407
349
331
382
421
413
395
409
421
409
387
366
372
399
433
468
479
467
463
459
449
437
429
422
420
431
460
474
464
459
458
462
468
478
473
456
466
487
484
470
470
473
450
428
430
454
465
483
490
477
476
480
487
494
496
498
487
468
464
463
462
470
474
470
471
507
524
512
497
494
495
497
502
509
495
474
456
459
472
471
479
484
480
486
505
524
521
516
519
526
539
535
527
508
485
472
482
504
520
529
536
523
510
505
500
501
517
536
551
565
582
594
578
525
484
488
538
567
561
547
549
531
529
541
559
563
557
561
570
579
566
560
564
572
582
592
596
588
584
585
582
574
578
580
597
599
593
590
570
557
559
582
599
598
595
594
594
594
591
587
585
584
586
579
568
550
546
569
585
590
576
563
554
534
524
529
537
534
528
533
547
555
549
538
515
475
455
449
451
484
532
549
540
527
514
504
498
493
497
498
489
473
472
476
478
468
457
448
432
439
448
443
437
438
447
456
445
423
406
408
417
424
416
412
410
393
371
348
350
371
388
414
426
423
415
402
405
407
406
417
418
409
404
403
403
414
417
412
418
432
440
432
431
422
406
403
420
432
417
404
393
397
406
406
401
398
393
392
402
402
409
417
425
426
420
426
426
420
432
446
456
449
450
469
447
417
405
407
424
448
463
458
456
447
441
447
447
453
450
458
468
460
456
459
453
439
445
461
468
467
450
434
437
439
429
432
441
419
409
442
451
454
460
457
451
472
471
459
468
479
476
460
477
478
462
461
459
462
464
473
471
463
462
476
491
479
461
449
463
492
510
499
488
482
477
476
470
440
406
424
453
474
486
478
475
475
469
474
479
478
467
452
460
478
489
491
474
458
464
470
462
458
446
429
420
435
461
472
474
463
459
457
466
470
465
463
480
475
474
478
473
454
432
423
416
425
423
433
443
456
474
506
513
508
516
534
501
455
439
424
426
442
454
462
469
472
465
460
453
461
466
468
473
474
470
460
459
461
465
461
476
488
489
485
476
484
491
490
476
459
459
467
466
462
469
488
486
467
466
459
469
480
472
464
447
454
477
491
493
482
478
477
481
492
504
517
523
501
486
497
507
491
466
471
483
491
507
513
494
457
451
486
503
504
496
499
495
486
481
469
473
486
489
496
505
509
516
527
535
549
547
533
531
525
510
505
513
507
501
502
506
507
511
501
490
485
481
497
501
494
503
501
487
483
511
520
489
476
476
470
459
467
466
448
441
444
460
464
452
461
469
470
468
459
453
453
461
492
497
493
503
496
479
468
464
472
471
464
463
433
406
404
407
419
436
442
461
482
487
480
454
454
449
440
447
459
452
451
475
489
489
475
462
456
463
469
462
468
468
472
484
498
521
533
541
545
553
574
624
672
724
772
796
833
872
886
891
923
944
964
979
987
990
989
989
989
989
989
989
989
970
926
875
820
788
732
643
614
592
547
492
452
377
285
216
165
152
142
123
124
133
168
213
231
233
235
244
263
276
289
302
307
321
328
335
355
381
404
414
408
392
379
371
386
412
423
408
412
405
408
419
423
428
427
414
416
432
432
425
419
423
434
443
450
456
464
454
440
444
442
439
447
453
456
467
472
474
460
455
474
475
454
444
437
439
464
478
478
465
461
443
429
440
449
460
478
475
468
466
468
474
472
469
481
506
510
486
452
436
440
482
522
540
523
485
456
457
467
482
489
491
488
494
506
493
473
468
466
469
508
530
522
524
538
531
542
546
540
522
511
518
519
517
521
527
517
515
516
524
528
527
546
546
542
542
545
547
549
546
551
553
544
537
533
543
550
561
575
586
588
595
580
563
562
572
569
564
575
585
592
575
554
557
567
561
564
584
596
610
624
618
607
607
595
574
563
550
542
548
564
572
572
576
587
590
572
574
586
598
594
587
572
564
552
538
542
551
540
529
528
545
574
563
555
574
574
578
585
569
530
506
496
484
485
498
523
507
491
494
491
490
482
464
476
479
461
439
446
447
452
455
457
467
459
448
443
432
441
448
436
417
421
432
428
418
430
434
430
425
424
420
412
410
412
426
428
412
408
420
419
399
387
377
396
428
420
390
371
377
380
384
400
421
435
434
412
403
388
380
376
377
388
409
419
419
411
395
394
398
406
403
402
405
398
396
401
425
446
465
442
406
405
426
430
430
428
423
422
423
425
420
399
396
420
429
420
424
425
434
449
460
470
464
445
445
456
460
454
444
440
433
439
445
460
476
479
491
490
481
473
466
468
457
441
420
431
466
485
486
485
497
487
477
472
478
491
520
518
494
458
431
443
439
438
442
456
462
466
477
477
448
431
425
430
440
442
440
452
453
461
477
483
474
470
465
458
459
463
467
456
437
415
416
434
446
456
488
482
464
469
465
454
457
471
489
487
482
488
490
481
463
434
426
439
461
474
464
445
450
460
449
443
435
435
464
492
478
460
451
459
460
468
484
487
494
479
462
462
474
479
475
467
467
467
468
476
497
504
502
493
475
446
438
456
467
476
466
472
478
486
480
467
445
433
430
440
458
467
477
479
468
464
468
499
508
500
486
477
469
464
447
452
475
477
483
481
467
455
459
461
464
474
480
471
462
490
526
526
496
472
458
464
474
466
458
471
485
488
486
486
483
491
498
497
480
481
505
499
469
456
483
521
517
508
514
489
460
458
449
458
466
486
516
508
487
490
497
494
498
502
497
483
479
480
478
486
502
521
526
525
549
567
568
551
521
515
514
515
523
526
531
529
536
546
545
539
521
494
477
475
470
458
462
471
467
473
489
492
491
495
479
449
424
415
424
452
485
488
480
472
475
481
489
490
486
471
471
480
487
488
495
479
446
445
459
469
478
498
487
462
456
454
472
462
441
427
434
449
468
475
474
467
453
459
459
451
449
468
471
454
447
442
428
438
442
455
458
431
415
419
438
463
481
537
564
535
508
501
523
562
616
656
715
773
807
852
882
897
909
923
949
982
989
989
989
989
989
988
988
988
988
988
989
990
955
929
909
866
795
715
631
561
494
438
383
320
262
214
176
155
147
142
149
160
171
186
196
213
228
260
302
323
317
321
330
337
346
350
350
364
379
384
398
407
391
376
382
386
401
407
393
372
357
356
382
426
453
444
416
394
398
394
417
430
446
467
455
439
414
408
410
420
434
434
446
453
456
456
451
429
399
385
391
400
410
445
477
482
467
462
455
454
467
476
476
473
468
461
456
455
458
464
461
455
464
478
481
490
494
502
483
450
446
464
470
468
474
474
471
465
461
457
450
459
486
495
501
502
488
491
520
541
543
534
529
524
524
516
497
473
466
470
473
473
488
511
519
529
528
532
543
541
541
514
500
500
499
516
526
515
510
510
501
531
559
556
540
541
567
575
560
556
566
572
559
544
535
519
517
542
590
624
612
592
585
586
583
589
587
588
586
592
604
603
581
560
559
566
578
583
584
588
584
577
572
570
560
570
585
590
589
599
605
605
603
586
573
562
557
553
539
529
551
577
574
565
542
517
511
502
487
502
526
530
525
507
502
511
527
531
533
527
511
492
487
487
492
486
464
457
469
489
491
475
464
462
459
451
460
473
462
443
431
431
430
428
439
430
428
426
411
370
347
347
352
370
400
410
404
401
404
404
406
390
385
373
372
383
397
403
405
408
407
399
387
385
382
381
386
403
415
415
425
434
426
415
406
406
404
407
409
428
437
439
439
426
423
428
437
453
456
438
416
411
397
394
406
419
414
402
385
406
426
440
443
441
434
436
424
404
407
428
457
480
487
470
455
448
448
483
476
469
462
442
419
408
409
435
470
482
490
474
452
452
469
471
479
480
485
479
463
454
448
464
463
457
447
427
429
437
457
467
472
471
461
437
432
445
446
433
435
442
447
448
453
456
457
458
460
463
464
464
464
466
463
472
466
462
466
469
471
457
455
461
453
443
442
443
463
479
485
464
443
435
444
458
466
463
473
481
458
436
430
436
438
441
444
446
443
479
491
484
486
497
482
474
462
439
433
443
457
445
470
488
489
480
470
483
500
496
464
446
451
463
470
471
466
467
479
478
478
477
470
460
460
456
460
450
449
466
479
492
499
511
515
509
513
503
487
463
446
437
417
419
447
480
482
477
483
488
482
490
483
470
471
490
503
508
505
501
494
463
423
404
402
421
438
450
456
461
462
467
471
476
471
465
465
467
473
473
477
469
467
487
495
501
504
514
500
451
422
442
468
474
485
492
492
480
464
461
466
491
514
522
523
527
518
501
492
484
451
441
457
474
491
509
509
492
476
466
473
481
491
498
502
502
501
497
526
531
528
519
517
516
526
535
536
544
551
555
552
550
506
475
481
504
541
547
523
497
474
455
472
493
511
515
520
512
481
462
457
462
449
434
432
441
455
453
450
445
452
469
493
488
475
452
439
457
477
491
488
484
475
468
453
453
470
464
462
464
467
471
474
478
482
492
500
481
441
420
431
422
429
467
475
457
465
470
479
486
490
467
449
447
450
442
451
478
471
440
406
400
409
424
447
459
474
487
498
497
506
525
551
585
618
645
696
757
804
859
904
932
959
988
989
989
989
988
987
988
988
988
988
988
988
988
989
989
987
966
924
859
788
715
633
566
520
466
377
302
240
179
133
114
121
133
139
163
173
188
204
219
230
237
242
248
265
290
312
320
329
347
372
390
403
409
407
401
384
376
375
394
412
424
422
412
395
382
373
385
399
388
368
371
407
425
419
426
441
438
426
431
436
426
425
428
428
439
444
440
448
457
454
463
462
456
447
431
424
422
433
426
422
436
447
454
448
447
458
459
459
458
446
435
436
441
449
465
475
473
480
492
487
464
453
451
451
463
489
513
497
482
489
495
500
500
486
473
476
471
473
485
493
496
496
499
495
501
492
488
499
499
495
505
524
520
504
501
513
516
517
513
506
506
503
512
514
524
536
535
528
530
505
481
482
496
528
577
634
640
627
612
584
544
517
513
518
540
563
575
589
573
571
584
583
584
581
572
578
583
577
588
599
587
586
589
592
587
578
589
608
619
612
596
579
572
557
558
580
594
597
593
590
589
601
600
582
578
572
573
585
580
558
557
569
574
571
564
565
540
528
551
559
543
531
520
524
535
521
499
490
487
491
500
523
527
521
507
480
465
454
457
456
449
455
460
461
464
457
448
439
443
441
436
419
402
395
416
440
462
461
445
418
395
399
406
410
415
420
408
402
420
431
416
396
393
392
405
409
404
383
364
355
361
384
395
401
400
397
397
404
414
415
411
418
418
403
410
415
411
416
423
427
420
409
406
411
412
408
401
405
398
387
398
410
434
447
450
433
410
408
425
446
438
425
435
464
470
444
406
396
407
426
443
437
430
426
435
437
424
417
432
438
440
443
448
454
449
435
430
444
448
450
455
457
458
461
463
456
450
436
402
383
405
427
434
472
508
521
512
476
433
442
461
463
465
468
470
471
460
441
442
434
434
442
442
436
446
452
462
464
470
482
485
486
483
471
480
486
458
438
437
452
471
477
475
463
455
459
466
469
455
429
430
446
457
472
478
464
458
459
463
461
451
447
450
447
459
457
449
443
445
450
457
471
492
502
499
487
487
484
484
464
441
447
441
425
422
442
450
450
451
464
479
471
467
477
492
491
467
446
431
421
431
441
451
477
488
482
465
457
456
463
469
448
434
465
505
508
499
486
474
479
491
483
478
475
469
464
460
458
471
487
477
472
479
479
471
468
465
465
459
461
472
474
490
493
487
476
477
487
482
476
466
443
447
469
470
458
457
475
482
489
488
486
492
497
498
501
498
486
466
463
475
486
497
498
483
459
458
469
471
469
465
472
484
486
483
489
496
495
496
492
492
502
517
511
498
478
481
510
520
500
485
464
442
444
448
460
475
487
498
526
540
527
500
481
475
470
482
507
516
518
519
528
524
514
512
514
516
515
523
534
543
540
533
533
522
513
516
515
507
504
498
494
468
466
488
498
520
510
505
514
495
480
462
444
457
469
472
458
439
436
440
448
468
481
472
468
456
446
451
462
474
473
461
444
454
473
471
468
470
470
472
477
465
457
448
463
476
476
477
472
456
429
443
474
503
509
508
502
475
445
443
451
446
438
436
433
434
433
447
450
436
453
465
447
424
426
455
472
483
496
507
538
576
617
687
746
783
819
862
900
924
944
976
989
989
988
988
988
988
988
988
988
988
988
988
989
989
974
918
873
819
752
685
625
561
494
433
368
296
223
156
119
117
145
160
169
174
175
186
210
221
228
243
261
272
284
292
292
295
328
364
380
382
384
388
389
382
387
383
384
380
391
409
425
439
426
418
426
429
420
407
406
410
413
431
455
447
424
425
433
438
446
439
443
439
438
448
439
428
416
417
409
411
414
432
456
471
473
470
456
427
435
436
447
465
461
466
473
478
490
497
515
500
467
459
464
463
482
486
473
463
465
464
464
470
474
479
484
485
496
501
482
481
484
497
489
465
452
466
474
481
492
504
516
521
506
472
462
476
479
475
490
510
515
514
516
516
519
516
519
533
551
554
549
539
509
494
499
528
541
531
521
531
553
566
568
558
547
542
546
542
546
555
565
573
573
564
559
556
564
575
580
583
586
600
607
611
611
594
585
573
548
545
574
600
592
593
599
604
594
577
585
589
597
606
609
616
612
589
583
595
601
595
587
576
570
562
566
569
573
556
534
538
564
581
582
576
571
577
576
595
586
556
531
503
489
482
481
475
486
504
524
532
530
521
512
512
518
517
513
506
479
461
440
432
430
425
432
438
456
461
456
459
474
461
417
399
417
432
421
397
381
363
357
362
374
412
426
405
381
369
373
388
410
414
411
413
413
405
398
398
402
410
406
401
401
408
408
411
420
421
421
413
418
405
399
395
397
409
416
420
421
421
420
417
416
429
434
432
433
416
411
418
428
429
436
442
433
414
390
391
394
401
392
382
401
434
438
431
447
443
438
446
449
457
465
470
484
474
455
432
417
434
450
446
416
407
426
437
466
496
508
493
465
439
420
431
452
466
467
468
458
425
409
417
459
485
478
465
451
434
440
473
494
494
491
485
474
453
452
461
476
482
477
440
395
405
432
453
455
454
482
500
496
471
449
444
442
437
454
470
474
473
467
459
453
452
455
463
468
463
471
483
475
478
480
467
448
443
454
459
467
468
474
464
435
421
419
436
454
465
456
456
461
461
463
477
483
483
463
454
450
457
477
485
483
475
464
473
493
493
474
454
450
436
421
441
468
478
506
500
484
502
499
483
482
487
490
487
478
483
497
494
491
471
445
438
442
441
449
458
460
454
461
480
502
500
476
446
441
448
464
488
511
518
506
471
453
473
484
470
441
435
450
468
485
495
500
500
490
486
484
477
468
467
469
470
474
479
484
481
465
466
473
471
473
475
482
503
513
505
496
495
496
489
489
488
484
486
490
480
470
464
460
469
477
483
483
479
482
491
499
491
488
506
503
498
501
526
531
534
526
519
521
528
524
513
529
531
527
540
552
551
524
496
490
499
494
488
485
485
506
506
486
489
485
487
483
470
458
435
426
418
415
453
493
496
484
482
477
473
471
470
467
466
473
472
480
500
512
503
487
477
486
484
483
454
412
413
428
444
457
456
451
455
462
469
476
467
456
451
458
468
471
467
462
454
442
440
442
441
444
445
440
444
464
475
488
485
506
516
507
511
516
530
540
545
551
571
598
631
678
732
769
791
824
860
892
918
952
990
989
989
989
988
988
988
988
989
989
988
947
910
871
834
796
732
663
619
577
516
459
417
371
308
244
195
147
129
131
147
168
176
196
221
229
249
267
269
271
273
278
301
322
335
339
335
334
339
353
373
386
398
415
432
433
432
432
431
427
422
423
426
430
433
441
432
430
430
437
441
442
474
487
458
400
373
372
388
420
441
442
434
430
430
438
459
469
464
452
441
449
465
469
482
489
501
502
490
461
451
455
474
483
484
486
474
466
459
466
479
485
477
473
474
474
480
481
487
490
492
505
507
504
493
473
460
465
475
483
487
484
474
465
490
531
549
545
526
513
512
506
492
492
495
494
479
474
488
493
479
485
495
512
539
565
576
564
553
542
539
548
553
556
555
551
546
541
539
541
543
541
534
552
568
574
584
568
549
544
543
543
558
575
564
555
565
567
568
577
587
576
560
554
567
580
583
573
567
553
564
588
585
584
591
593
612
614
610
608
601
598
599
593
584
573
577
569
577
593
594
580
567
556
554
555
570
584
582
564
551
553
560
560
564
573
576
557
530
525
527
527
530
534
543
505
472
448
446
466
495
505
486
467
474
507
525
523
514
499
474
461
454
453
448
444
440
422
410
416
419
409
407
407
401
415
432
442
436
427
415
415
415
402
391
387
392
407
416
411
393
368
348
344
364
392
410
408
392
389
381
364
380
392
404
406
410
407
413
438
462
462
431
393
378
381
377
390
414
421
425
433
429
410
402
402
414
413
424
427
410
390
388
403
426
437
455
461
449
439
422
426
435
448
453
445
441
438
427
402
396
427
453
469
450
451
452
453
451
439
447
442
433
467
490
486
482
462
447
454
459
460
446
441
455
457
453
466
464
460
450
443
447
457
463
461
450
450
463
462
446
433
436
429
439
476
497
497
476
448
452
463
471
473
471
470
466
462
458
447
438
444
455
445
434
444
445
468
480
482
473
451
437
430
421
441
463
482
492
487
466
428
439
460
470
473
474
454
454
470
483
484
461
461
463
459
445
453
465
461
460
468
465
464
464
456
448
430
420
434
458
466
455
454
461
461
464
484
489
495
483
463
463
468
464
463
472
479
482
472
465
467
473
481
488
483
474
467
471
469
459
474
483
473
473
466
462
463
465
457
455
463
478
490
495
503
492
477
464
468
461
470
492
477
447
445
456
447
431
438
447
463
476
483
483
482
480
484
487
485
474
445
431
438
458
475
480
494
513
531
545
525
496
513
529
516
520
519
511
504
505
505
490
487
459
429
437
455
473
479
481
487
492
486
496
507
513
517
509
492
482
478
485
503
535
560
559
546
538
508
498
517
519
529
541
539
538
536
535
542
539
528
522
521
508
492
483
481
485
475
463
494
514
499
470
446
422
419
420
448
481
503
505
494
468
440
439
462
470
481
478
478
478
472
463
450
453
459
461
458
457
455
450
450
451
460
468
465
469
470
475
469
467
470
476
497
516
486
449
426
418
429
433
441
451
463
457
451
437
435
443
426
431
440
464
481
490
495
495
514
527
531
542
569
601
633
686
744
791
836
875
904
919
942
973
974
990
989
989
989
989
988
988
989
989
989
990
958
910
871
842
816
776
703
618
562
496
432
375
310
251
198
148
102
100
132
165
192
203
209
221
240
264
269
267
277
287
302
317
339
345
352
364
368
368
385
413
418
422
430
441
428
415
395
386
394
394
387
386
384
396
417
440
442
435
429
422
417
413
397
396
401
413
453
490
484
459
456
458
449
429
416
435
456
459
440
439
453
468
461
456
456
452
458
465
475
470
469
473
482
490
486
470
465
465
477
479
492
506
508
497
490
455
427
426
443
456
462
462
475
488
505
520
515
498
506
522
501
474
467
480
500
501
498
484
475
465
466
481
506
526
531
535
526
524
515
488
477
487
514
535
543
538
530
528
533
552
566
578
566
538
519
515
511
517
523
534
543
549
547
547
554
554
542
541
549
557
556
567
579
583
597
604
588
567
553
549
551
552
559
572
611
629
625
633
650
633
598
570
576
601
610
602
595
598
597
588
581
573
572
577
569
567
562
551
541
540
547
560
582
617
618
605
587
563
546
543
562
569
583
578
562
549
552
547
541
538
528
527
535
528
524
509
486
478
490
484
478
486
501
517
504
484
472
469
466
463
454
442
430
425
426
427
427
428
434
436
434
432
427
413
400
398
387
398
412
417
408
407
409
404
411
409
403
395
392
392
394
396
401
401
404
413
411
403
413
416
409
384
363
386
397
372
355
342
353
391
418
438
447
444
434
435
436
444
451
437
395
381
374
385
401
404
401
415
433
431
426
414
413
399
391
418
432
442
445
472
471
466
453
436
420
406
415
437
459
470
477
465
426
420
417
428
437
439
452
468
466
453
443
438
419
418
424
449
476
489
483
466
470
468
451
462
480
468
468
468
464
440
424
438
449
455
464
472
465
460
461
463
462
460
446
461
463
440
445
459
469
475
473
461
457
466
469
468
460
460
466
464
463
446
430
434
449
472
494
496
498
474
447
439
435
430
438
456
441
439
452
467
460
459
460
449
447
448
459
485
484
478
478
499
506
489
464
435
418
436
469
484
485
476
480
476
471
462
450
456
465
461
469
480
469
473
480
491
501
490
480
465
462
460
469
472
460
456
465
470
458
445
456
467
468
461
456
465
478
492
480
466
456
441
456
487
505
494
478
476
481
479
472
490
479
452
453
481
501
495
485
467
442
440
468
493
501
494
488
485
478
459
439
438
440
457
488
510
511
506
493
494
489
497
504
461
439
450
467
478
476
468
465
465
475
494
503
505
507
494
493
484
476
481
483
480
481
494
481
479
487
490
485
492
499
501
505
503
496
489
495
506
513
515
500
476
464
483
509
518
518
514
516
520
528
510
507
510
516
528
532
527
517
515
524
529
523
514
483
446
436
457
477
488
494
499
510
511
502
487
497
513
498
479
483
485
461
452
448
448
456
463
466
463
458
455
460
461
469
467
472
486
488
472
474
478
491
497
497
490
483
492
505
472
454
458
469
481
495
480
423
389
387
399
412
475
516
518
502
495
488
468
434
415
439
454
462
465
458
444
423
421
436
455
469
473
469
473
490
518
558
599
642
680
729
776
811
850
887
920
943
967
989
989
988
988
988
988
988
988
988
988
988
989
989
989
957
900
869
802
727
657
610
567
516
448
373
278
201
150
118
128
142
141
169
199
214
217
227
238
257
274
279
284
304
311
313
320
332
348
370
386
398
404
402
392
386
388
392
409
423
410
396
396
395
392
398
405
410
434
445
442
437
418
389
390
405
418
414
405
409
419
436
448
450
426
390
390
405
417
417
415
424
440
458
468
483
476
453
445
444
442
449
459
473
476
475
473
460
451
468
491
495
503
512
504
472
456
470
478
465
462
470
472
467
467
480
487
477
466
473
485
497
500
476
479
485
484
489
491
487
475
478
491
486
480
489
493
493
491
496
520
528
524
537
551
546
528
518
510
523
527
537
547
549
547
541
526
512
504
517
534
526
509
514
525
521
520
536
557
563
578
598
597
586
584
577
563
551
549
553
564
572
585
611
613
589
589
592
597
604
593
588
587
583
582
578
583
577
593
608
617
615
608
615
609
603
588
586
586
576
571
588
599
602
584
573
576
571
549
536
532
533
544
558
564
570
568
557
547
533
525
544
545
540
541
541
535
530
520
513
519
502
477
465
465
464
462
477
488
478
478
480
470
446
424
414
420
432
438
440
429
399
379
372
390
410
417
426
437
438
446
447
430
409
396
398
408
408
407
413
413
403
390
389
399
422
415
396
396
397
383
383
386
389
399
404
413
415
410
422
418
408
390
366
367
389
410
413
422
432
437
426
421
421
415
411
414
422
426
442
435
423
409
399
390
401
432
452
452
439
450
448
428
435
439
438
432
421
423
456
453
435
444
465
458
450
450
453
456
450
452
456
457
460
458
450
441
445
454
475
449
439
454
466
476
485
477
468
449
410
380
378
406
438
448
441
441
442
442
453
455
448
441
445
448
456
465
458
454
457
460
465
471
467
443
436
433
430
446
463
464
467
479
490
492
493
487
470
449
440
445
424
426
454
474
487
491
487
477
469
448
428
432
436
447
462
473
481
479
467
459
463
469
470
473
477
475
470
450
439
454
449
447
457
479
487
480
474
472
471
476
483
491
492
496
489
466
457
468
476
467
457
447
438
447
475
483
477
470
474
478
481
473
464
456
456
462
487
520
529
523
496
465
445
441
438
432
439
442
436
449
475
465
443
424
439
458
482
491
494
491
473
476
489
486
480
481
480
480
497
506
497
469
475
486
471
454
446
451
463
462
451
461
469
469
462
460
451
445
477
502
506
502
494
491
502
496
464
458
468
483
484
508
513
498
498
501
508
502
503
504
504
502
505
514
522
509
493
507
496
471
474
483
484
484
481
481
491
500
514
515
516
503
490
482
494
505
507
520
524
512
507
520
534
542
550
543
525
525
527
537
551
551
522
488
487
494
505
500
494
492
491
495
491
503
513
505
492
463
449
444
454
477
486
478
464
452
445
432
427
431
448
478
493
495
495
488
474
474
486
493
493
485
460
441
441
445
451
449
471
493
508
508
489
471
453
442
454
471
474
488
497
497
469
449
465
476
483
481
477
466
479
491
476
460
461
463
464
462
448
443
438
454
453
451
453
449
455
469
499
537
577
609
639
676
731
786
836
896
928
934
933
957
990
989
988
988
988
988
988
987
987
987
987
987
988
988
989
990
952
875
788
704
627
557
488
447
402
323
242
187
154
120
108
131
147
153
170
184
200
209
218
241
253
274
293
288
294
311
321
336
366
382
391
390
386
387
410
418
415
406
397
384
372
368
368
383
397
400
405
415
422
425
417
412
413
415
423
427
424
422
418
412
405
403
408
425
440
440
436
442
443
437
442
459
460
445
435
434
440
446
452
456
447
446
450
460
456
451
463
472
474
465
475
489
507
505
491
483
494
496
486
453
450
463
471
480
480
472
469
471
473
481
483
487
495
496
495
486
476
476
483
478
478
467
485
508
499
503
526
548
554
564
567
580
559
517
529
554
518
474
459
454
461
493
508
500
493
510
525
551
560
533
519
527
545
580
604
610
605
568
550
547
551
562
561
579
584
579
576
574
570
582
592
591
584
581
585
590
596
596
588
591
593
601
598
583
568
569
571
574
577
587
614
643
642
625
625
616
597
596
608
606
606
600
590
595
589
576
571
560
565
571
574
576
566
556
554
550
550
561
551
546
547
539
530
535
540
536
530
523
508
493
493
493
491
483
473
457
445
460
493
515
525
499
450
430
437
438
444
429
423
428
450
480
480
448
414
399
401
384
371
406
439
428
421
416
412
415
417
399
372
354
363
390
394
388
374
365
364
383
398
395
393
396
396
396
403
420
430
426
427
413
401
399
391
400
412
418
419
422
424
422
413
434
435
411
415
421
418
399
387
393
397
417
438
449
449
440
424
415
411
416
419
426
423
403
416
443
445
439
431
426
438
450
451
465
482
484
480
466
461
459
470
478
472
441
402
396
415
431
435
439
441
452
436
428
441
448
426
430
455
466
471
469
464
455
447
447
461
483
489
480
479
481
473
465
463
481
495
498
455
432
430
436
452
474
490
485
467
445
431
446
452
440
418
422
432
446
461
465
460
472
485
482
484
478
474
464
458
457
457
454
452
459
465
472
462
452
440
443
452
459
461
467
476
479
483
479
473
453
438
454
473
478
468
462
461
453
436
429
433
444
458
472
473
467
472
479
478
477
459
447
461
459
465
475
492
505
512
513
509
482
429
412
440
472
482
489
477
461
450
457
474
484
488
485
489
498
495
491
483
467
464
471
460
452
448
443
450
460
470
497
524
533
530
518
508
508
497
456
433
439
446
484
489
477
472
470
463
462
460
466
480
493
493
487
479
469
466
474
476
484
490
493
493
492
475
468
464
457
463
477
475
459
459
477
489
497
505
499
484
474
474
486
488
484
483
488
492
486
476
465
471
498
529
522
507
509
504
499
499
490
470
473
487
505
507
513
517
513
502
490
478
457
473
508
539
567
551
506
513
540
515
511
516
527
544
555
555
564
543
517
508
495
489
492
507
514
504
491
491
498
502
496
477
474
488
488
487
485
477
485
500
506
501
483
474
476
480
475
480
477
468
447
421
418
452
479
491
494
500
500
476
445
429
422
439
472
474
475
480
473
462
445
448
451
450
446
457
468
478
483
468
459
461
450
437
456
484
484
494
487
461
453
454
455
457
449
448
452
451
463
476
484
479
484
487
497
493
492
524
558
598
635
684
734
774
805
839
869
899
922
942
984
989
988
988
988
987
987
987
987
987
988
989
989
990
968
939
901
816
713
642
582
529
467
404
329
240
172
163
154
151
157
165
172
169
159
173
200
216
235
253
269
272
276
307
326
329
339
343
351
366
378
377
392
409
432
432
414
405
397
391
417
435
420
404
403
405
419
428
436
443
433
412
401
408
423
425
433
449
463
446
432
428
420
421
437
448
434
408
403
426
449
464
472
475
464
455
447
450
452
449
457
460
454
461
466
464
459
458
450
448
434
432
479
501
491
486
491
495
490
471
466
469
466
466
479
491
492
478
468
472
477
480
469
478
493
499
507
523
538
536
527
513
494
488
487
489
495
526
549
539
528
505
478
464
477
508
536
546
531
527
524
531
520
499
491
523
546
554
579
572
562
551
540
548
551
555
555
550
546
556
566
576
584
585
593
606
600
578
566
546
569
603
622
620
610
604
584
573
562
574
592
593
592
592
592
593
596
588
581
569
576
588
589
578
572
574
596
605
571
549
551
559
563
569
577
596
601
585
582
561
553
542
527
509
524
554
550
543
542
544
547
528
511
501
507
510
525
563
571
554
527
509
517
516
498
486
484
479
451
436
438
442
439
430
422
418
424
440
462
453
450
453
454
447
445
445
440
439
428
421
427
421
404
383
354
364
381
387
393
401
404
414
423
419
414
419
413
379
368
367
379
387
389
393
381
368
351
357
366
365
370
388
391
387
386
385
392
397
405
420
428
407
403
407
421
432
441
437
419
397
387
396
404
427
444
440
437
429
432
446
457
449
442
435
428
425
431
433
431
429
423
413
415
424
436
453
461
465
483
495
476
448
436
423
438
453
479
480
457
439
452
472
479
493
484
476
478
467
452
437
437
450
456
450
443
456
473
473
466
475
478
474
457
455
456
453
460
450
467
480
471
466
470
469
459
450
447
445
427
417
426
433
445
456
465
460
461
448
436
435
434
428
442
461
473
467
456
452
446
458
481
492
484
491
484
479
480
473
471
458
454
446
453
457
453
472
486
473
455
447
453
461
465
466
460
447
444
449
471
479
477
481
481
453
437
444
461
475
476
487
492
485
478
479
479
476
472
470
465
450
435
445
476
483
469
471
505
508
485
458
461
473
481
480
465
425
412
448
480
488
469
475
496
513
505
499
514
516
500
486
484
461
445
442
448
456
458
467
475
472
472
475
463
460
459
458
460
457
447
471
489
487
490
490
478
461
461
467
468
470
482
491
463
433
415
421
439
458
488
509
496
490
493
483
470
468
482
500
517
538
527
495
472
457
458
469
491
503
494
490
500
520
532
527
505
490
466
463
489
518
529
538
543
521
496
482
507
513
505
496
475
477
504
508
511
517
514
520
523
531
538
538
538
544
523
489
489
499
507
522
528
522
517
518
518
510
494
491
491
491
477
468
470
477
473
454
438
427
431
436
441
443
445
440
462
491
490
465
455
445
431
438
471
492
490
476
470
463
466
465
451
449
452
471
491
492
466
437
432
435
446
458
456
462
468
470
455
431
423
437
457
472
472
473
490
498
495
492
473
448
438
439
462
474
481
487
494
485
503
522
529
536
554
576
582
598
655
717
777
825
868
899
925
928
934
972
989
989
989
988
988
988
988
988
989
989
958
918
869
820
796
763
728
661
602
548
499
454
401
340
277
225
184
163
143
150
174
188
186
174
177
200
225
226
245
265
252
263
294
299
311
339
363
380
386
391
412
410
392
385
394
400
411
420
408
421
420
415
401
384
376
378
395
439
450
441
438
429
427
433
440
448
462
466
444
435
451
462
457
443
444
453
459
459
458
464
474
471
470
470
463
464
471
464
460
472
479
486
499
510
495
464
452
448
451
448
460
471
482
484
477
465
464
471
466
468
479
479
467
457
453
460
472
483
492
498
506
512
517
514
506
485
468
470
498
513
506
511
506
506
506
508
507
490
499
512
526
540
517
502
496
506
512
525
531
535
536
537
546
559
562
561
572
559
541
537
540
542
556
568
541
516
507
513
538
569
578
566
562
561
562
574
584
575
563
570
572
570
578
581
579
589
598
596
591
569
557
560
577
613
650
646
638
644
622
602
592
613
621
609
594
580
569
555
554
546
556
581
591
595
580
567
560
550
536
534
540
574
580
564
560
560
562
545
535
538
515
487
503
543
567
575
574
529
486
483
475
469
476
493
508
495
478
466
449
435
435
440
442
430
410
407
409
401
396
401
404
421
416
392
384
393
400
423
446
431
403
388
379
381
386
389
393
389
381
398
392
389
378
394
396
389
385
391
406
410
410
406
397
377
365
383
392
399
407
412
404
399
397
406
414
417
412
394
392
371
367
373
398
418
434
424
428
431
414
394
417
447
453
451
450
445
443
450
459
452
438
422
405
421
437
437
445
446
430
427
422
424
435
449
452
460
445
428
425
435
442
440
432
441
451
451
444
440
444
442
445
434
431
450
450
446
451
464
460
457
444
453
475
488
476
441
431
422
429
447
467
481
485
464
426
409
427
469
477
477
481
471
449
446
451
461
472
465
458
466
463
454
466
470
459
449
456
457
480
499
493
471
447
448
460
461
464
468
473
471
464
462
458
442
438
433
421
423
428
431
433
437
443
466
481
482
468
452
436
434
434
424
430
462
510
524
509
499
490
487
488
503
506
499
481
480
476
475
475
474
478
478
464
479
478
445
439
449
444
438
460
467
468
463
468
475
473
470
467
456
451
460
470
474
464
456
453
459
460
465
467
474
471
452
474
491
484
468
456
452
448
449
483
500
499
485
486
499
505
513
519
497
442
427
436
440
449
472
494
494
477
464
466
464
462
455
457
473
486
490
480
472
469
471
477
483
477
463
467
470
461
463
455
468
496
497
489
472
471
485
487
471
467
453
455
458
446
445
456
495
518
513
502
486
487
474
461
471
486
496
487
481
485
502
507
503
497
495
512
509
495
521
531
522
509
489
499
510
492
456
457
493
507
513
525
530
525
531
518
517
522
528
536
533
527
529
534
533
541
537
531
525
521
508
495
495
489
485
471
467
471
480
468
463
478
497
484
466
474
482
473
446
441
445
441
431
433
438
446
446
452
459
465
460
460
472
490
481
458
445
448
448
453
453
453
456
457
455
445
447
448
442
424
428
443
455
464
459
456
479
491
489
485
474
472
455
428
418
416
432
441
454
467
475
473
460
440
427
461
482
501
527
552
576
605
637
678
743
798
829
853
872
890
919
947
975
989
989
989
988
988
987
987
987
988
988
988
989
989
976
935
886
817
747
681
621
559
501
444
382
323
275
231
195
153
129
131
147
157
159
179
195
200
213
228
251
256
268
322
373
391
383
373
368
364
362
371
380
383
371
362
367
373
386
394
393
393
409
415
390
367
371
393
411
393
383
401
414
420
438
453
451
439
428
426
448
458
457
444
438
427
438
454
460
446
414
426
458
469
481
494
494
486
474
445
423
426
432
433
432
435
442
452
462
467
458
455
454
459
475
485
481
476
465
454
457
460
463
469
462
463
473
474
469
476
477
492
504
495
476
475
480
498
503
510
510
511
508
490
504
512
514
504
497
496
475
510
529
522
504
488
488
488
494
507
511
518
529
546
547
534
528
532
541
549
559
565
575
576
549
538
540
532
524
531
543
556
563
554
548
538
538
563
585
589
585
584
587
587
589
582
576
551
535
537
548
581
599
587
572
577
578
607
611
601
594
598
615
614
608
609
599
590
585
586
597
597
596
599
594
589
584
576
561
541
544
551
565
568
569
551
543
541
519
511
494
509
537
553
545
532
539
535
523
502
493
506
515
500
478
467
453
446
461
472
476
477
473
464
446
437
448
442
419
407
395
389
379
411
440
465
462
436
420
418
407
400
401
392
378
375
379
376
369
369
386
405
403
397
380
370
371
391
399
404
390
377
357
337
346
397
425
431
435
437
441
443
434
419
395
371
374
389
389
392
394
399
402
390
392
409
421
428
426
430
440
447
443
418
410
419
424
421
427
438
442
440
451
445
455
454
427
403
400
411
419
420
410
408
405
397
401
419
414
421
433
440
447
453
453
450
453
444
423
423
435
435
447
454
451
438
428
429
440
451
436
436
449
444
445
444
448
449
445
452
441
420
420
441
457
486
506
514
510
490
475
450
421
429
444
447
441
441
427
416
434
452
459
460
453
447
460
472
488
493
487
486
481
479
470
475
473
453
435
454
482
487
479
485
477
470
457
438
440
441
453
463
472
469
475
474
448
447
439
444
463
466
460
450
450
447
450
469
482
480
486
466
457
460
458
470
485
492
469
429
411
456
495
498
484
473
481
469
467
466
469
475
468
458
447
432
442
477
500
513
511
494
484
489
476
455
451
450
453
456
462
467
480
491
482
463
444
438
442
453
467
469
468
469
473
485
487
482
472
460
455
434
429
446
454
457
457
453
451
463
473
474
465
457
462
477
479
473
458
454
452
449
460
476
485
484
481
485
484
474
468
486
503
495
481
474
451
445
438
437
451
477
483
510
507
488
486
483
472
479
486
491
494
496
488
483
469
458
455
467
478
495
503
516
515
511
513
504
493
501
504
502
487
484
491
494
489
496
500
499
528
533
504
497
503
499
511
504
507
515
521
525
523
517
513
513
514
527
529
532
534
534
522
505
493
494
515
526
521
505
502
499
484
478
473
468
471
483
481
474
473
462
456
454
451
481
504
507
495
473
465
465
452
439
428
422
439
474
490
494
486
485
485
489
491
468
438
420
437
457
457
484
522
524
507
497
493
479
460
465
474
477
472
473
487
489
486
474
459
426
405
429
454
455
462
467
452
442
437
430
447
463
462
450
445
459
477
490
523
549
562
576
615
649
673
732
794
850
911
939
952
972
986
990
989
988
988
988
987
987
987
987
987
987
988
989
990
955
927
882
812
724
661
612
547
466
406
365
299
220
138
105
117
156
187
200
188
194
216
226
235
225
240
267
290
288
280
280
301
326
352
357
357
364
362
375
383
382
376
377
384
400
429
429
422
418
398
400
402
404
390
391
399
407
407
415
414
407
402
417
434
434
433
432
429
429
421
413
408
419
431
424
420
428
437
441
448
450
447
442
440
448
464
479
479
457
426
430
439
444
458
465
451
453
440
409
407
404
416
433
461
473
481
498
504
501
488
494
490
490
481
448
419
446
469
492
504
489
500
503
496
493
487
489
488
492
492
497
488
492
495
491
484
465
470
483
499
514
536
547
548
546
551
543
533
524
516
514
520
543
552
545
535
530
533
547
561
555
547
530
534
552
561
567
571
567
577
595
599
592
585
585
572
569
576
572
577
584
593
610
610
603
588
584
563
550
568
587
591
597
603
607
602
606
612
608
606
606
607
600
593
564
544
557
571
572
565
556
555
563
581
596
587
566
535
516
516
514
517
534
559
581
603
588
558
556
560
534
503
494
498
499
492
492
472
472
485
494
514
516
496
469
441
431
423
439
460
452
436
444
437
423
424
427
444
458
440
425
413
436
441
431
403
372
385
389
393
401
393
387
378
359
353
357
373
404
410
408
397
397
403
408
398
386
383
392
403
405
408
402
400
406
410
415
417
413
413
401
389
390
401
414
420
424
408
389
383
384
397
406
419
409
418
430
426
412
417
436
445
426
393
375
380
400
433
468
472
452
429
439
447
445
483
497
478
467
454
450
446
452
448
423
401
397
420
434
443
442
447
453
444
445
461
464
461
449
436
432
416
403
417
431
443
455
458
465
463
472
467
446
459
462
446
431
437
450
449
448
452
453
447
447
462
479
489
496
497
496
473
457
462
462
455
464
476
479
459
446
446
452
455
453
459
465
459
451
444
457
468
475
467
459
461
458
454
443
432
411
399
425
461
501
510
509
500
489
482
468
472
474
474
476
471
448
441
444
454
468
477
467
461
451
440
437
443
471
481
471
471
473
466
464
452
453
460
463
476
495
488
477
489
483
458
439
435
439
434
434
447
467
453
449
462
479
494
491
477
464
473
490
495
488
483
464
442
466
464
459
465
472
480
487
486
486
490
486
476
463
458
447
443
454
471
479
498
503
483
475
484
492
492
496
498
479
465
447
436
451
463
464
477
490
474
461
456
467
475
471
475
493
496
493
477
467
487
495
492
490
489
491
474
449
446
433
439
470
501
508
499
484
477
471
467
477
486
491
498
504
502
493
489
490
489
482
480
491
510
511
482
477
492
517
518
514
516
485
457
453
458
472
482
490
484
474
467
474
500
511
514
527
528
525
529
525
515
499
484
496
520
537
543
542
538
514
501
520
537
543
554
547
537
522
517
525
525
523
519
512
511
508
509
515
515
501
492
480
471
471
464
458
444
432
464
486
488
477
455
447
444
456
470
481
495
476
454
454
458
457
457
450
426
413
425
433
432
440
456
484
482
473
483
481
458
437
427
430
449
490
498
467
463
469
487
493
490
482
467
461
481
485
462
435
417
412
433
445
453
439
433
425
431
456
473
487
490
476
469
497
568
640
690
724
734
740
770
812
858
910
961
989
989
989
989
988
988
988
987
987
987
987
988
988
989
983
956
934
903
847
774
712
648
583
516
461
396
323
253
197
143
114
119
141
163
179
197
214
223
223
227
229
235
243
262
307
316
317
336
350
349
351
357
367
372
393
410
393
381
380
377
378
393
412
416
406
394
401
414
434
433
430
432
438
435
414
420
440
448
440
423
408
407
408
410
410
412
409
408
404
395
407
426
446
454
457
445
436
427
442
453
462
470
473
472
471
477
494
495
499
494
485
468
459
458
468
473
470
463
460
473
487
498
500
496
476
453
456
469
473
472
467
462
464
475
469
476
486
487
499
511
507
490
478
459
439
451
476
510
538
551
546
543
542
538
539
527
515
528
547
535
523
516
511
513
502
497
502
508
532
548
546
554
560
547
550
559
579
584
569
558
562
554
544
554
569
573
577
568
565
565
573
582
586
588
599
592
590
588
559
559
577
587
592
598
602
604
609
607
592
593
591
581
583
587
609
620
613
595
574
568
589
609
614
602
576
559
566
573
571
579
590
575
552
543
533
517
537
553
562
568
568
562
556
537
508
513
513
494
499
496
490
490
492
495
499
496
489
480
474
458
426
419
420
432
451
450
457
483
473
460
461
450
440
442
438
431
411
381
372
395
409
416
421
420
412
408
411
401
393
380
368
372
382
395
409
415
405
397
391
382
371
371
377
374
376
384
402
405
417
424
413
394
402
409
401
400
409
417
418
418
423
423
423
408
398
391
393
402
418
427
432
425
409
415
418
433
430
422
416
417
414
409
424
422
431
434
432
425
432
435
433
436
428
425
435
435
433
428
420
408
396
392
418
450
472
481
475
461
465
482
499
512
506
468
414
407
407
427
450
449
445
450
470
491
503
484
471
463
442
412
413
435
452
467
470
468
462
457
447
443
448
463
476
469
463
467
477
486
468
453
433
434
442
450
460
464
467
471
467
464
471
462
461
456
459
469
465
465
467
469
462
463
467
474
472
465
452
448
453
473
470
455
450
447
449
456
465
463
451
442
440
444
449
453
457
462
465
455
453
454
441
444
451
454
467
472
467
479
489
471
473
463
458
467
478
480
486
477
472
481
484
481
481
470
461
473
482
487
483
470
461
461
479
480
478
480
472
472
474
462
439
442
454
463
461
460
482
493
488
479
479
464
454
440
429
427
429
433
441
448
457
476
491
508
521
509
483
452
444
447
461
491
520
513
500
492
480
458
454
450
444
449
452
467
476
489
498
494
498
506
507
484
476
472
476
497
508
504
500
505
500
495
477
467
466
467
464
463
467
468
469
458
470
487
512
519
523
517
512
512
518
536
528
500
489
492
505
517
518
507
504
505
508
508
510
497
467
454
457
469
487
505
488
492
515
527
530
516
498
504
526
545
562
557
545
532
520
509
493
477
485
480
467
446
455
475
485
491
482
487
496
497
499
500
491
465
460
462
459
461
469
474
468
448
423
434
462
488
493
475
453
446
466
477
479
492
487
475
471
475
477
474
461
431
411
414
430
451
491
494
483
472
464
485
499
491
485
481
479
474
458
455
446
449
465
463
484
500
498
485
451
439
441
452
447
450
456
452
461
479
496
508
524
531
528
498
497
518
542
587
632
666
696
734
784
828
872
909
924
941
987
989
989
989
989
989
988
988
989
989
971
949
937
918
871
835
809
758
688
630
613
592
555
492
424
345
265
224
179
135
117
149
176
185
194
220
249
266
264
276
278
257
266
288
311
324
323
351
376
394
393
392
392
387
389
382
379
393
399
389
405
419
416
421
429
438
444
453
438
419
410
408
414
424
419
425
426
426
440
456
462
455
446
453
454
454
448
453
444
428
434
447
447
438
436
445
453
468
485
473
458
456
461
456
461
484
490
489
492
493
487
491
492
489
484
484
482
468
460
460
469
482
494
507
516
513
524
527
526
515
490
471
475
487
495
504
508
509
498
495
494
514
520
536
533
498
487
501
519
523
523
530
534
525
526
530
528
535
536
523
513
517
531
533
524
520
538
548
546
554
566
561
556
534
540
562
546
546
553
560
555
541
533
543
560
561
571
581
584
575
574
572
566
565
570
574
579
588
590
591
593
594
592
600
599
591
590
600
602
599
602
603
605
593
591
592
584
576
579
587
587
586
588
578
559
562
568
565
563
566
567
571
576
565
551
537
509
506
547
581
572
554
548
554
548
523
494
514
522
507
505
489
476
493
490
467
448
443
453
469
502
511
500
484
462
449
442
432
436
423
412
407
404
410
408
410
424
418
412
419
398
400
390
381
402
423
439
437
435
415
397
383
361
350
354
358
369
386
400
394
387
383
385
381
380
394
398
400
404
398
394
393
397
399
393
392
384
388
400
409
410
409
413
410
410
421
421
423
422
412
407
412
432
433
417
412
416
423
426
415
405
415
446
463
461
454
448
444
445
451
448
442
428
425
421
412
436
465
472
468
495
500
479
462
458
455
441
457
467
465
452
440
442
454
460
482
481
466
451
426
436
448
438
417
411
416
457
493
482
464
451
474
480
483
497
505
496
477
462
458
464
472
474
473
471
471
482
481
477
487
453
423
436
452
453
437
431
438
441
428
432
434
441
455
461
460
458
460
458
463
461
450
443
448
451
453
454
456
463
457
457
459
456
449
450
457
463
468
466
473
479
475
474
472
470
469
474
473
475
475
484
477
467
457
458
455
469
483
465
461
462
468
478
474
470
482
508
514
516
486
450
443
451
475
497
502
504
503
492
493
484
473
475
474
457
440
432
443
455
454
447
440
441
455
475
481
487
491
467
429
434
471
494
503
509
509
495
475
449
429
432
439
472
503
494
476
472
473
475
481
477
459
457
468
478
478
473
481
467
453
452
463
473
475
479
479
476
479
493
498
487
473
486
502
506
504
504
515
514
515
526
514
478
478
486
486
505
513
513
505
500
487
478
471
491
516
536
546
538
520
513
523
527
549
564
570
551
516
498
496
501
507
527
546
530
505
491
489
488
494
493
495
500
503
499
491
485
482
477
461
447
431
441
450
448
474
493
491
469
461
451
455
476
500
507
504
485
448
428
430
417
409
416
420
422
438
469
502
493
480
474
466
457
455
456
466
483
484
488
507
512
477
456
463
460
465
457
455
462
480
472
449
440
431
423
423
420
419
443
460
478
501
509
506
498
515
545
574
603
655
697
734
778
811
845
885
913
931
943
964
989
989
989
989
988
988
988
988
989
989
953
920
887
855
842
823
771
683
616
567
512
464
413
346
268
209
165
140
141
155
184
209
221
230
220
191
209
242
252
259
273
300
324
345
349
347
348
368
370
379
399
399
390
378
415
435
427
428
437
440
438
418
399
392
399
416
429
433
429
423
427
433
442
456
470
457
436
443
447
451
463
462
457
448
436
432
435
437
436
440
435
434
450
464
466
463
457
459
456
441
437
464
484
489
491
497
513
512
503
487
476
463
458
470
464
450
447
468
487
491
494
494
483
474
475
477
484
489
490
480
463
459
474
482
475
479
486
495
504
505
502
504
501
488
482
466
466
495
523
553
551
546
539
539
534
533
535
540
536
536
534
536
523
542
576
561
536
534
542
541
539
531
529
552
584
590
575
563
558
543
553
573
576
571
569
568
573
582
579
568
561
569
586
594
588
595
604
603
601
601
598
585
587
596
601
613
617
578
546
555
569
579
585
577
585
593
587
591
613
628
610
587
580
583
582
572
565
561
567
563
568
572
563
544
549
551
544
519
510
508
511
510
506
500
497
503
507
509
506
493
457
442
460
454
456
456
457
484
512
520
507
476
466
467
460
448
436
434
442
422
396
403
434
439
424
411
408
400
380
370
368
373
385
402
409
412
419
436
412
370
363
378
395
404
403
400
407
407
385
365
371
382
384
377
394
414
426
439
419
402
398
386
357
345
371
385
387
382
382
389
401
405
401
407
410
419
428
429
422
413
391
383
402
422
434
430
421
418
431
435
437
442
451
455
445
435
426
408
424
448
445
445
447
456
460
451
461
464
472
477
474
466
454
440
432
417
395
405
427
444
446
439
445
460
488
507
482
455
450
451
457
478
487
477
477
486
484
480
480
473
468
472
466
443
435
441
440
449
448
441
436
448
452
448
470
469
454
454
463
467
466
457
451
454
457
461
458
456
463
479
490
490
478
458
442
435
438
444
444
456
466
477
487
495
475
455
434
436
449
457
461
463
464
470
479
482
461
446
448
452
458
458
468
485
491
491
477
469
462
458
461
460
466
465
482
500
515
503
476
445
438
455
465
471
479
489
483
454
414
403
424
459
473
486
500
505
506
483
435
430
450
463
491
498
494
498
472
452
451
454
445
452
471
467
466
454
453
467
472
459
457
473
491
488
462
459
461
459
461
477
491
491
478
466
473
473
471
470
476
477
468
475
479
468
466
479
496
498
499
497
497
492
496
504
520
512
500
483
473
477
481
484
491
506
515
521
511
505
492
477
466
471
479
473
481
485
504
501
487
482
484
465
454
465
474
493
504
508
499
505
517
520
513
512
516
517
518
528
532
533
527
526
528
522
512
501
509
503
481
479
481
488
478
473
469
482
489
500
516
523
523
512
485
474
460
449
441
416
406
427
463
482
496
500
493
489
481
480
469
464
460
463
470
473
472
470
467
465
470
469
469
472
468
476
482
483
488
492
494
473
444
437
431
451
468
472
466
459
468
458
447
449
456
462
467
433
423
427
436
443
438
423
419
426
455
472
475
479
491
509
547
591
630
650
681
713
745
785
822
850
882
911
946
978
989
989
989
988
988
988
988
988
988
988
989
989
989
982
946
898
838
763
705
625
539
466
437
377
301
222
173
145
148
172
171
181
189
194
208
232
245
253
262
276
299
310
318
328
329
330
338
343
348
384
415
409
396
400
401
401
404
394
393
398
403
400
411
423
407
410
425
422
416
417
425
432
423
411
417
407
388
397
414
423
453
468
445
431
419
414
414
418
418
425
433
435
443
442
433
437
454
456
445
438
455
466
454
436
437
443
440
456
472
466
469
468
468
468
464
471
479
484
490
485
483
485
485
486
486
489
491
484
484
484
468
429
443
456
452
479
496
505
502
492
494
503
501
494
478
474
488
516
545
539
529
531
525
523
532
539
527
518
507
504
504
504
507
502
490
466
468
466
480
512
539
559
580
606
605
593
583
570
556
557
562
569
577
576
568
575
569
557
562
565
563
577
594
600
596
600
597
585
561
565
586
601
599
601
602
601
587
567
570
585
606
607
593
573
566
569
578
605
608
609
603
597
573
557
563
579
574
563
565
564
571
573
570
561
549
549
553
559
548
546
549
524
501
492
513
522
