529
557
599
638
681
737
797
848
890
920
941
982
989
988
987
987
987
987
987
987
986
986
986
986
987
987
988
988
989
990
970
895
794
690
606
548
496
450
387
308
230
173
142
117
101
104
111
131
146
154
164
183
198
204
219
227
253
284
307
318
330
328
322
325
336
356
368
371
357
362
370
372
380
385
388
408
416
394
365
342
343
346
352
353
366
377
385
390
389
391
397
396
407
408
403
396
394
393
393
404
431
447
442
436
434
431
422
425
416
405
410
414
427
446
460
464
457
459
457
457
465
473
457
452
458
457
454
472
480
486
487
491
485
464
437
411
415
434
438
451
444
438
440
454
470
482
497
495
477
425
415
423
442
464
480
495
509
514
496
505
519
522
509
499
486
488
508
499
494
518
534
529
523
517
500
493
491
499
522
541
549
554
547
542
534
532
540
528
518
522
524
524
535
558
564
564
555
568
566
552
544
541
540
549
565
569
573
574
566
568
583
582
573
574
579
585
594
589
577
587
610
626
605
578
568
570
572
582
598
603
602
592
595
600
597
595
581
587
585
573
572
580
568
565
559
558
571
581
582
580
564
554
559
558
549
541
531
530
534
527
524
521
510
503
498
493
493
499
498
503
503
497
486
482
471
467
472
473
471
467
466
468
448
430
416
414
414
417
419
427
425
405
394
381
392
410
435
434
440
438
438
438
417
400
390
378
372
365
366
379
384
380
372
373
394
386
385
387
388
385
387
385
387
393
400
397
394
397
398
387
377
368
371
378
382
386
398
408
412
416
411
414
422
429
426
422
407
405
406
406
409
421
429
439
436
428
434
419
405
403
394
385
388
409
418
443
452
450
450
452
453
444
441
441
440
444
445
437
441
445
445
435
438
442
460
460
454
446
455
471
472
462
465
473
469
464
476
482
477
473
455
448
455
454
448
428
415
429
452
474
476
476
479
470
457
452
435
428
443
460
473
479
480
488
482
465
461
451
430
434
449
468
475
473
456
453
454
455
456
453
448
439
443
456
462
459
463
462
463
463
464
470
476
479
468
476
483
473
461
440
433
450
458
457
463
458
451
442
443
448
446
457
470
465
466
467
471
466
458
467
464
462
451
445
443
447
457
459
464
472
471
469
466
462
461
458
450
451
472
487
487
479
475
476
483
476
468
466
475
479
479
489
490
491
496
498
483
476
463
461
462
473
473
473
471
438
428
460
495
490
484
495
496
485
478
487
485
494
496
498
503
496
492
487
485
487
476
472
472
469
472
484
498
500
510
520
522
497
472
470
484
482
485
483
481
492
491
488
485
477
471
474
480
481
482
499
517
506
477
471
459
465
468
486
509
518
520
516
509
510
515
526
548
567
571
551
532
517
500
496
505
500
495
496
491
481
484
500
514
518
516
506
499
488
488
498
506
506
495
480
470
464
449
452
450
446
444
446
450
458
466
461
463
456
467
481
493
493
485
476
476
470
455
450
451
453
456
469
481
488
482
485
485
470
468
464
465
471
472
474
469
472
484
490
458
444
438
449
465
471
477
475
465
462
453
454
443
435
426
422
415
414
430
445
452
459
466
477
486
500
523
551
576
601
639
685
736
784
825
857
897
927
940
972
989
989
988
988
988
987
987
987
987
987
987
988
989
989
990
973
930
875
806
733
681
634
575
495
412
324
233
149
93
89
94
100
113
132
143
151
171
199
215
218
225
233
248
257
266
282
308
336
342
338
345
352
343
336
337
352
372
393
393
381
384
405
416
419
416
400
374
374
384
390
389
402
416
421
420
412
418
428
438
430
420
415
413
423
425
416
412
420
429
447
449
446
447
445
440
444
449
464
480
473
470
463
463
467
456
456
459
428
405
415
430
464
484
492
488
483
466
461
475
488
484
471
471
473
480
484
477
478
467
477
477
459
452
467
478
485
486
472
470
470
471
479
494
498
485
483
477
481
493
500
512
518
519
511
502
491
486
487
499
501
504
513
519
523
533
531
528
519
522
521
521
533
552
558
547
546
561
572
591
586
579
566
550
531
518
514
520
544
564
571
585
589
575
567
565
561
562
586
599
599
597
602
597
592
602
603
600
585
580
586
582
576
600
619
612
612
608
607
599
587
583
589
592
590
588
594
593
575
571
565
555
544
563
574
567
568
569
575
560
553
559
569
572
567
565
544
529
519
514
521
525
522
509
515
505
490
490
490
485
492
493
488
480
473
461
452
440
432
432
439
442
436
440
440
412
404
410
415
418
419
424
418
414
407
404
404
400
396
388
387
390
384
398
397
388
378
385
394
393
390
392
401
412
415
405
393
376
384
391
394
398
393
402
409
396
391
377
376
383
384
390
396
402
419
430
421
404
381
377
398
410
430
435
432
432
425
411
407
410
415
414
410
416
431
442
426
422
416
430
439
447
440
443
452
462
462
459
449
446
449
452
448
445
443
446
458
458
462
456
449
441
445
444
455
464
457
448
445
454
454
447
449
456
472
469
461
450
451
457
452
437
438
460
470
474
474
481
470
454
445
445
451
454
452
454
462
459
455
450
446
446
451
457
461
469
466
465
459
459
466
481
476
473
479
483
477
464
458
457
456
451
453
459
461
461
458
451
455
460
458
468
463
458
454
470
484
479
473
468
461
457
446
433
440
457
459
462
457
458
455
451
457
464
458
461
465
458
451
450
456
466
467
461
462
476
478
468
473
481
487
487
477
465
468
469
484
490
486
485
486
492
490
480
482
486
482
480
469
481
499
497
495
491
497
487
468
454
456
465
473
485
490
486
490
488
489
491
496
509
521
525
516
503
497
496
498
514
515
519
523
511
493
488
483
480
492
490
487
491
502
497
493
492
493
484
465
462
463
462
463
471
472
464
463
473
483
469
463
464
467
462
457
463
476
476
468
463
457
458
454
449
456
471
465
466
473
467
467
467
470
475
474
471
464
472
472
472
471
468
470
469
478
478
459
452
458
463
471
479
482
481
485
487
477
469
462
463
450
443
449
451
458
476
484
496
503
494
500
515
529
549
574
605
642
687
737
795
850
898
927
950
978
990
989
989
988
988
988
988
988
988
988
988
988
989
988
951
931
898
850
787
718
666
603
532
453
398
330
263
184
144
128
116
120
119
133
154
171
177
181
204
224
240
254
268
280
299
305
326
342
350
350
357
372
377
379
378
379
391
399
406
404
399
398
397
393
392
399
409
418
433
439
429
416
412
422
422
422
434
442
450
450
449
450
453
436
436
441
445
456
460
463
459
452
441
437
436
435
433
438
437
440
444
448
461
467
474
480
483
484
472
454
445
446
452
458
456
456
462
473
464
465
480
484
478
482
486
495
499
501
499
493
491
495
497
488
485
487
491
498
489
468
470
487
491
485
488
494
504
511
507
504
509
512
506
507
505
507
502
504
520
526
528
533
540
542
544
538
533
528
525
522
519
521
522
522
522
527
544
560
559
563
560
541
530
530
531
538
538
551
562
559
531
516
525
537
569
593
601
596
583
585
599
605
598
582
570
579
588
600
593
581
598
627
630
595
587
589
585
589
600
599
579
577
570
566
567
569
574
579
579
586
590
581
573
576
583
578
570
557
550
550
547
539
519
516
522
537
540
523
510
502
489
480
473
474
468
457
444
436
432
449
458
449
435
442
456
472
477
459
453
444
433
419
411
407
398
395
402
410
416
405
379
385
403
404
400
399
392
394
398
405
397
392
388
383
386
387
374
374
388
388
397
413
409
410
427
431
435
431
404
388
363
344
357
381
383
382
389
394
386
377
381
393
407
426
435
444
455
448
441
427
416
418
428
445
446
455
475
503
509
477
427
386
385
389
402
423
439
442
431
428
425
426
423
416
416
425
431
426
433
443
442
434
436
447
463
462
466
480
473
459
461
470
470
473
473
459
446
445
436
432
425
435
446
447
439
413
423
436
447
461
471
490
490
496
499
508
525
514
476
449
450
453
453
468
459
445
425
420
433
447
456
475
485
492
485
459
438
457
473
473
470
471
473
491
494
483
477
465
472
486
474
459
463
467
474
466
442
422
403
414
445
454
456
463
467
477
490
493
455
438
462
481
486
471
454
429
399
391
374
358
407
508
587
587
512
457
480
494
489
456
443
451
462
449
436
426
430
435
443
444
440
455
488
514
528
544
553
565
557
532
505
513
538
538
506
468
464
485
482
469
461
463
474
473
482
501
530
562
559
482
476
493
519
545
562
550
546
538
539
540
523
505
507
506
502
502
500
487
468
437
414
423
428
448
459
452
439
451
458
478
511
509
491
478
478
470
455
448
454
457
469
475
476
483
489
496
496
485
461
461
473
470
473
479
488
480
485
490
486
467
451
434
430
438
439
406
392
405
420
424
450
480
493
493
491
485
476
498
515
502
487
501
508
470
387
338
361
408
424
451
478
468
455
474
488
507
546
580
590
619
662
708
794
846
869
888
920
960
989
989
988
987
986
985
986
987
987
987
986
986
986
987
987
988
989
989
939
889
829
764
709
665
612
533
410
289
208
152
135
136
121
104
105
115
168
196
207
241
241
198
182
194
206
216
240
285
328
363
382
379
382
382
397
404
405
407
397
376
368
396
448
448
408
413
432
413
394
396
388
400
415
374
287
253
288
328
356
374
405
457
517
531
472
400
398
411
401
381
379
393
401
389
386
396
424
436
418
395
415
433
452
462
479
481
468
466
504
509
456
448
467
443
413
387
362
365
372
375
390
399
414
425
433
440
469
512
541
533
526
522
527
498
468
471
473
469
476
484
481
477
494
496
489
491
495
493
516
559
598
579
512
450
436
454
499
524
518
484
446
458
467
463
466
471
486
507
491
470
463
478
498
509
517
510
506
512
523
530
527
538
541
531
536
562
602
650
682
623
549
525
524
529
548
570
593
613
620
591
575
597
568
522
513
521
539
550
577
577
538
524
526
544
566
560
511
489
482
494
519
537
554
572
584
571
528
523
531
537
533
541
559
570
567
544
544
533
529
549
558
583
553
486
446
472
480
475
457
456
476
477
485
508
531
557
556
559
522
487
475
461
447
426
437
481
516
491
444
427
418
433
435
410
380
385
401
403
400
384
371
384
386
396
399
392
378
381
403
438
450
443
433
479
473
471
446
444
450
415
386
370
362
362
365
403
401
384
368
384
404
426
424
428
432
429
405
390
384
385
390
389
390
381
382
376
380
401
400
400
413
423
421
414
404
393
388
384
396
404
398
407
433
448
453
456
453
446
433
433
445
457
456
473
482
510
477
415
429
443
448
450
457
449
433
424
425
448
476
463
428
444
475
504
524
523
464
441
403
367
398
431
438
447
463
476
477
461
427
408
406
413
415
419
429
435
432
440
442
448
452
462
465
453
443
435
428
428
443
464
501
507
462
397
394
413
430
446
462
491
503
484
465
469
498
537
549
513
496
512
495
492
543
559
490
449
438
431
407
397
392
403
440
455
482
506
463
454
480
429
399
404
415
427
439
455
467
468
468
467
484
500
498
501
528
552
523
473
450
439
438
451
466
474
476
478
498
503
491
474
447
419
429
428
426
445
457
460
458
463
462
452
451
462
455
448
454
471
477
475
489
495
490
470
470
469
484


2
502
485
493
507
526
503
495
522
510
503
494
481
492
507
517
523
529
527
509
504
489
465
504
549
563
571
2
485
493
507
526
503
495
522
510
503
494
481
492
507
517
523
529
527
509
504
489
465
504
549
563
571
559
5
493
507
526
503
495
522
510
503
494
481
492
507
517
523
529
527
509
504
489
465
504
549
563
571
559
554
556
545
536
547
552
563
573
557
558
564
565
598
618
612
590
570
573
590
585
583
578
561
545
568
604
584
540
521
512
511
511
516
552
581
567
549
557
553
561
559
554
551
542
548
578
588
579
551
538
544
528
531
530
527
543
559
574
550
519
495
487
478
464
477
498
516
546
540
522
510
496
486
475
444
440
468
488
480
442
415
433
476
471
458
467
459
424
409
412
411
413
411
422
442
452
454
426
402
382
363
363
396
455
490
441
384
376
372
363
435
484
460
428
457
488
492
492
489
466
447
442
407
392
351
350
378
394
390
397
442
417
391
382
382
410
434
445
432
425
407
360
371
407
412
442
500
509
510
518
533
518
487
461
444
447
429
418
422
433
449
439
403
414
432
482
483
453
449
444
425
412
428
441
452
455
455
478
475
425
403
422
421
425
424
426
458
451
445
447
456
455
465
467
446
417
407
418
438
469
491
513
506
473
429
418
409
404
398
403
401
406
418
436
490
510
531
536
519
513
515
504
453
440
439
436
454
454
433
412
424
441
458
486
485
458
449
453
441
437
436
442
452
475
475
478
465
446
442
458
469
456
469
477
464
454
457
464
490
504
477
410
424
508
543
536
508
460
427
396
411
462
495
495
460
451
466
532
561
542
510
512
507
477
453
436
421
443
463
502
510
502
507
504
473
458
478
520
555
579
570
549
511
481
461
445
432
455
473
490
507
504
491
485
470
478
506
508
493
480
475
464
448
441
424
426
453
477
494
473
448
451
460
444
411
411
455
534
553
547
534
508
510
512
490
466
472
498
491
484
478
469
459
428
426
428
430
427
445
456
468
464
472
472
464
474
467
461
475
489
470
446
450
446
447
452
459
459
453
477
483
477
486
491
490
508
530
549
565
593
628
680
738
785
820
842
863
892
917
939
971
989
989
988
989
988
989
989
989
989
989
973
958
936
905
853
810
752
679
610
557
496
444
396
308
231
176
139
120
122
142
155
167
184
192
202
215
224
240
252
245
251
249
250
299
355
388
417
432
442
448
448
451
441
430
415
404
407
411
406
399
405
427
454
462
460
429
416
431
421
429
450
474
453
380
356
372
400
426
441
422
411
440
447
414
398
400
416
427
457
490
507
511
500
493
518
535
520
484
459
447
456
454
453
456
453
449
446
465
449
442
424
452
460
445
463
484
491
506
518
490
502
482
446
445
461
471
485
512
525
509
503
514
514
515
505
493
482
478
476
463
460
469
501
553
588
573
535
512
528
553
526
514
539
559
563
548
534
533
543
573
588
549
543
557
539
508
491
489
494
527
563
591
555
494
496
509
506
506
494
518
538
550
554
565
578
567
551
558
612
633
626
637
632
597
562
561
561
552
562
565
573
579
584
569
561
563
567
584
576
551
569
543
498
486
506
547
543
535
545
558
582
578
541
525
530
534
537
532
528
514
501
496
508
556
575
561
556
555
554
552
549
550
549
550
548
537
526
496
474
444
444
476
481
463
458
464
441
425
405
408
426
454
489
504
487
462
438
438
432
386
404
460
487
469
434
409
396
392
391
412
417
416
417
403
409
407
402
400
417
444
448
443
431
403
372
386
418
443
451
435
432
439
427
400
373
380
405
443
477
482
465
442
441
427
436
475
516
496
456
424
428
459
489
476
433
395
405
449
485
474
457
441
438
426
419
435
446
428
418
433
430
437
456
463
456
442
427
424
425
424
467
517
507
474
441
420
427
471
498
499
481
441
415
418
431
417
423
461
464
438
420
430
446
454
458
460
470
501
516
492
449
424
437
458
473
496
500
498
480
452
460
472
486
489
495
511
496
483
496
497
479
486
489
454
450
450
447
456
448
435
410
405
433
458
495
492
464
460
470
469
468
474
466
462
462
470
475
502
505
502
499
497
500
511
508
516
500
462
449
430
425
455
476
475
478
475
447
426
421
471
500
503
501
492
476
480
480
463
480
486
489
527
539
565
568
547
530
517
518
523
517
507
482
480
492
525
542
521
494
467
457
460
468
464
449
445
462
465
429
396
398
433
459
484
503
501
481
469
456
438
434
428
447
468
466
450
474
478
471
453
474
499
523
543
537
514
500
496
483
448
422
416
463
502
494
477
480
475
468
475
489
479
467
463
484
479
461
445
449
457
462
474
470
464
467
461
455
453
454
472
492
503
508
515
533
533
539
569
598
628
665
714
775
845
873
873
883
900
939
989
990
989
989
989
989
989
988
988
988
989
957
931
903
868
830
802
758
687
622
570
512
457
397
325
249
166
99
54
53
95
162
195
238
275
267
262
285
291
281
277
301
322
316
319
333
343
374
406
406
426
441
451
455
440
411
390
398
417
421
406
404
410
421
413
403
395
410
448
476
481
455
422
414
412
399
400
418
466
499
493
447
409
400
403
414
431
435
437
448
463
466
459
456
442
449
484
508
500
477
456
461
472
511
523
508
476
465
470
476
491
510
502
477
457
468
474
489
487
488
486
470
448
408
410
421
440
468
498
536
537
546
541
541
550
518
474
462
485
509
513
525
536
525
497
480
483
489
514
525
506
488
481
485
485
487
489
483
499
528
544
545
555
546
527
520
527
547
567
578
590
582
572
558
543
537
551
562
559
552
557
553
551
573
601
594
584
601
589
555
555
570
576
551
544
549
572
568
559
581
602
575
541
538
543
541
523
513
516
515
543
591
603
595
576
544
544
549
542
557
586
589
564
548
546
539
515
527
531
544
585
593
568
533
499
486
533
566
586
620
636
589
543
497
462
481
494
483
472
456
457
452
435
434
438
445
460
443
442
449
458
453
451
437
410
382
369
393
434
468
454
445
448
439
413
410
415
414
408
426
425
415
411
417
414
406
405
395
396
408
405
408
433
458
454
436
430
429
441
461
458
463
478
448
416
422
423
437
449
445
426
434
441
441
429
441
468
465
436
364
325
320
338
414
495
505
482
489
482
484
490
451
403
404
391
378
400
429
425
415
431
453
454
454
463
458
452
438
397
358
387
434
463
464
465
478
466
452
434
430
431
439
428
401
410
465
520
518
493
481
473
472
458
446
454
461
478
508
521
512
489
462
449
461
471
451
431
428
432
439
445
443
446
438
446
442
431
426
438
464
482
487
474
461
458
459
468
456
458
446
437
416
440
465
482
471
446
431
433
463
513
514
498
482
464
465
489
499
510
505
479
475
489
493
475
471
472
455
453
450
459
468
475
485
502
513
476
447
444
478
503
472
433
415
421
477
522
543
559
570
566
537
531
537
529
530
538
543
513
481
469
480
486
488
485
478
482
494
502
504
498
480
469
465
457
435
409
411
419
426
430
427
400
382
441
499
555
546
504
475
466
448
450
474
489
497
500
491
483
484
483
510
518
499
497
484
471
465
474
468
456
467
472
474
456
450
442
441
462
473
469
452
428
431
442
444
467
480
499
505
477
455
431
426
437
457
472
520
554
579
583
597
633
683
737
776
819
855
892
922
947
989
989
989
989
989
989
988
988
988
988
989
989
989
947
914
863
802
738
665
610
597
591
533
448
356
288
280
253
182
152
141
156
172
216
224
239
254
259
256
270
304
330
338
344
368
396
411
421
405
390
378
360
370
390
411
419
418
405
390
381
373
383
373
381
413
432
428
414
412
412
412
398
380
376
421
480
488
451
427
420
407
402
410
445
499
497
507
506
479
452
438
444
464
474
469
465
460
452
444
442
452
452
441
448
449
438
459
478
463
451
492
525
538
532
516
486
489
506
509
505
500
496
479
503
511
485
469
483
488
496
499
495
502
507
510
498
482
489
494
520
525
502
500
508
496
496
505
493
476
480
512
558
578
556
551
553
544
531
517
516
517
531
544
540
529
521
532
530
526
533
549
547
547
535
531
530
520
510
502
492
518
523
515
539
582
616
644
658
639
626
629
620
600
581
582
588
590
589
590
590
591
580
560
558
551
566
599
632
614
567
539
536
535
568
588
595
586
583
577
568
541
512
534
571
577
589
583
558
552
542
522
516
529
551
571
579
536
501
518
525
505
490
484
490
521
530
513
491
478
475
507
517
521
536
543
527
485
444
416
412
417
403
433
446
427
399
402
412
419
446
443
418
393
379
385
403
388
374
413
471
476
451
460
468
473
482
488
471
457
461
470
428
401
415
403
383
383
393
373
374
390
409
426
434
438
435
437
413
393
385
387
381
371
371
377
387
426
439
454
490
490
454
405
374
377
404
434
445
459
464
437
421
402
376
366
363
397
461
511
515
495
493
494
494
499
496
487
473
471
483
484
470
448
431
416
415
409
412
441
463
432
419
435
482
501
502
493
482
476
473
471
481
485
463
443
424
433
446
440
447
453
455
463
461
438
425
405
388
404
448
459
461
455
459
464
475
451
441
439
440
445
450
428
420
415
415
425
438
458
470
460
426
431
452
468
464
455
457
454
460
460
455
443
454
478
485
467
474
522
522
523
516
516
513
501
492
483
473
462
443
456
480
482
478
462
441
447
490
547
576
579
563
522
479
458
473
500
522
520
530
514
499
488
486
489
493
489
489
490
494
512
502
481
463
465
457
456
459
449
437
431
439
447
449
444
433
423
425
427
441
452
458
457
451
448
437
441
448
463
479
456
437
428
412
421
450
486
461
453
479
506
505
485
478
499
506
493
487
496
489
471
467
463
468
502
519
504
479
490
488
513
509
498
474
487
506
492
456
450
461
454
448
449
468
496
529
557
572
572
580
627
663
678
704
734
784
845
898
933
950
980
990
989
989
989
989
988
988
989
989
989
989
989
989
946
906
869
801
719
625
559
512
472
433
375
291
211
164
139
118
116
118
126
136
145
160
169
189
196
200
232
271
305
356
387
386
366
349
361
405
439
444
442
435
417
412
404
416
427
417
417
413
419
424
407
393
409
425
418
414
421
451
480
466
443
409
402
411
408
423
441
427
413
429
452
467
457
452
454
451
443
437
437
438
438
448
464
470
474
470
465
462
454
435
422
439
465
485
498
499
476
436
419
418
422
443
445
458
472
462
434
430
441
449
478
552
591
576
548
525
505
498
497
496
487
507
524
524
522
519
525
537
530
508
501
507
522
518
514
512
504
488
465
453
480
510
535
550
564
566
549
536
529
538
557
553
538
557
566
548
534
543
551
542
527
533
546
548
546
549
533
503
511
518
517
530
543
543
569
601
605
582
566
562
563
572
592
600
588
587
604
603
578
547
525
504
506
523
533
556
564
562
586
585
562
565
574
567
559
568
566
559
555
569
582
562
537
530
538
546
568
567
539
515
523
541
531
524
538
538
537
522
505
506
520
529
539
523
492
479
500
502
490
467
473
483
473
440
396
375
371
405
444
450
441
430
421
417
422
396
392
400
395
402
416
428
414
415
417
404
399
409
416
401
385
375
368
368
375
378
383
403
430
445
439
423
424
427
432
444
442
440
457
462
461
451
437
437
444
431
414
400
401
407
411
410
413
408
425
442
446
451
441
422
413
408
410
419
434
424
414
416
420
449
445
439
449
440
416
406
420
459
483
481
453
432
430
454
456
446
444
445
452
459
445
467
451
418
401
413
436
447
431
396
381
421
426
427
420
425
448
472
502
508
476
433
403
405
451
479
494
499
492
486
489
495
493
477
448
440
426
434
452
450
461
460
450
435
444
457
464
455
443
450
457
465
466
467
456
447
448
446
450
466
475
486
475
465
483
493
508
477
431
410
418
441
446
450
442
446
445
445
492
501
473
473
479
462
467
473
476
471
482
508
526
519
501
496
476
461
463
464
453
438
425
449
460
484
515
521
509
501
501
509
495
465
429
425
449
492
521
505
494
503
516
545
536
510
491
490
495
489
467
456
464
469
462
471
472
474
475
457
442
446
456
453
455
459
474
495
497
489
470
459
434
415
415
425
436
443
452
457
442
433
420
419
418
425
437
473
483
477
460
435
400
389
412
454
510
505
473
457
462
478
501
520
516
486
455
448
428
422
423
429
459
502
544
567
562
570
600
635
671
709
743
774
796
834
878
933
950
959
971
989
988
988
988
988
988
988
988
988
989
989
989
956
882
845
801
722
679
632
568
506
435
346
275
228
168
120
91
85
99
117
134
148
148
157
194
219
234
253
272
296
300
305
318
317
321
322
322
330
330
364
447
490
453
429
428
418
387
385
427
449
444
431
440
430
424
430
434
436
427
418
409
415
432
445
441
428
431
452
466
459
466
467
444
400
369
365
368
373
381
394
442
464
468
469
464
443
426
430
427
416
417
437
451
454
452
440
417
414
403
368
379
425
469
484
494
481
464
457
490
518
524
510
487
483
475
482
505
514
522
495
482
468
451
434
455
491
505
528
538
531
522
527
520
518
526
540
540
533
520
510
506
487
498
519
517
512
518
520
511
523
535
548
550
520
507
517
519
482
492
558
635
619
598
596
614
616
586
571
561
549
540
526
520
523
539
564
575
559
540
538
542
547
546
547
561
574
560
548
545
551
550
543
546
553
554
550
544
539
542
550
546
536
536
546
560
548
520
501
500
504
503
527
584
633
629
602
562
549
554
550
542
525
504
490
498
517
528
524
536
596
597
560
498
479
460
422
451
512
535
520
498
487
482
498
510
520
509
489
477
457
428
409
388
393
409
417
421
399
379
387
390
400
400
410
418
424
422
421
398
399
413
413
404
400
396
380
369
368
399
407
387
384
385
394
401
394
393
400
421
439
437
413
402
400
381
375
392
415
421
406
393
394
414
430
428
425
424
422
450
475
466
439
399
379
389
427
443
433
440
451
437
419
404
419
411
413
434
444
446
444
439
436
442
449
456
448
430
409
391
378
415
455
501
516
517
518
510
502
498
499
497
479
474
460
451
446
433
425
444
437
430
437
427
423
440
440
424
411
412
415
419
412
415
413
427
432
431
435
463
466
449
438
415
411
410
419
442
441
438
452
458
464
475
465
435
434
442
459
492
482
471
461
442
429
428
441
457
470
460
451
455
469
476
484
485
478
463
451
452
438
437
468
500
522
491
451
444
468
491
499
493
476
449
428
408
432
494
550
549
512
477
451
438
455
487
488
462
453
472
515
554
573
565
531
469
454
471
494
517
501
490
493
494
487
490
483
494
507
512
520
506
480
475
476
468
473
464
450
449
436
442
451
452
442
427
425
419
407
429
475
489
486
480
469
457
458
458
453
445
425
441
456
470
493
488
470
474
478
463
462
442
438
458
459
476
498
474
458
476
505
528
524
497
492
477
472
475
477
464
445
435
427
425
421
418
417
410
419
423
434
442
471
460
434
446
547
632
680
697
707
724
750
785
848
902
952
969
977
976
970
990
989
988
986
986
986
987
987
988
989
989
989
948
910
870
812
737
679
627
580
528
465
381
290
209
124
71
59
60
67
97
123
156
171
199
207
201
203
211
252
285
307
330
343
353
361
353
362
375
378
394
401
412
419
424
435
463
441
397
382
365
359
363
385
398
418
420
384
367
345
328
328
376
438
458
423
413
408
415
429
421
418
448
445
417
410
426
440
474
490
486
469
447
410
401
404
414
422
412
429
447
450
450
439
432
464
495
486
460
470
497
514
511
501
511
516
489
475
470
474
493
500
506
495
487
486
489
482
484
485
477
481
493
490
476
459
472
484
508
530
503
488
485
486
476
477
496
511
510
496
483
447
428
473
519
529
527
532
537
542
529
513
498
515
532
539
533
538
540
529
534
547
550
548
546
530
526
524
535
537
561
591
589
570
556
498
458
458
482
545
608
616
616
625
615
589
559
571
595
623
655
651
637
613
586
558
553
554
533
515
524
549
607
619
601
591
579
560
555
557
562
534
510
508
498
499
526
561
563
555
555
556
542
524
533
535
530
529
537
534
537
536
522
507
507
475
465
465
441
446
449
426
423
446
455
459
452
433
424
415
418
431
437
394
343
324
354
404
429
441
432
410
379
375
400
432
462
473
469
450
435
411
376
346
358
424
451
440
434
411
381
382
351
299
321
365
429
476
492
488
496
477
460
435
430
445
435
415
399
397
407
415
401
384
390
416
435
433
435
456
444
418
395
384
379
390
398
408
415
403
391
395
392
388
384
393
405
408
419
428
434
434
413
399
393
391
409
479
493
491
477
474
448
432
440
457
461
445
430
446
463
486
478
448
452
457
480
497
470
462
447
438
437
432
425
434
431
453
467
456
451
454
443
417
424
451
456
440
424
424
424
429
451
474
475
476
454
452
446
442
450
442
429
425
460
455
429
426
445
466
468
455
436
431
432
455
482
489
481
489
471
440
427
423
413
433
464
467
476
476
442
415
416
433
432
406
428
466
475
477
468
463
475
493
511
530
534
510
494
483
460
476
496
495
494
505
483
453
460
448
429
435
437
431
452
483
489
477
451
446
453
461
460
458
464
466
464
445
428
432
436
429
431
447
470
497
517
494
479
474
465
455
455
455
473
526
559
564
574
563
535
513
498
497
489
491
493
491
489
502
526
523
513
494
492
483
472
457
447
431
422
426
421
440
476
481
487
497
499
472
440
428
459
501
501
474
479
480
484
474
497
487
450
446
449
459
450
432
452
475
480
476
471
448
422
411
423
468
480
463
453
457
460
457
439
434
447
455
457
461
463
465
452
440
427
399
384
387
422
439
458
469
468
478
490
506
504
487
491
508
535
552
602
645
674
720
777
816
844
880
929
955
983
989
989
989
988
988
988
988
988
988
988
988
988
989
989
989
983
940
849
740
619
586
546
483
408
365
280
198
153
127
116
110
127
140
159
173
176
188
211
238
271
279
248
237
257
291
311
309
353
380
375
389
404
415
424
389
362
368
397
414
425
428
406
371
358
369
394
421
424
430
435
411
372
333
318
325
361
410
440
432
450
454
416
408
399
393
407
419
422
425
431
428
433
428
423
430
453
472
482
495
489
486
490
467
460
459
441
434
442
448
452
445
457
460
460
450
432
432
427
432
453
466
461
438
428
423
465
504
508
491
469
487
493
513
499
473
455
457
467
495
526
524
515
509
507
500
498
507
510
511
502
524
507
489
490
522
536
519
475
441
448
483
539
552
549
559
572
563
560
567
560
548
540
533
546
561
556
534
518
498
495
510
535
534
533
542
570
576
578
584
600
609
607
591
560
556
565
541
543
557
559
564
576
572
548
530
497
511
518
514
505
507
531
536
527
526
538
548
566
585
614
603
585
571
563
553
541
527
514
523
543
532
515
500
507
493
507
555
545
545
538
542
547
563
559
538
518
515
522
511
500
487
467
422
400
397
418
442
450
441
442
430
403
416
448
462
473
471
463
456
436
419
412
415
408
424
440
430
408
394
388
384
391
434
457
451
435
438
433
390
356
334
349
363
392
421
426
419
425
425
397
386
393
411
406
397
398
417
426
425
425
417
434
455
475
475
446
421
411
399
404
424
434
434
435
451
431
402
381
393
411
420
434
442
458
443
419
409
396
385
413
454
459
435
415
411
415
430
446
453
451
450
455
443
430
411
397
393
392
414
453
457
442
463
487
459
451
456
481
485
481
485
464
430
407
389
367
372
400
487
560
565
519
503
495
484
459
452
431
435
434
447
473
479
459
441
430
435
464
470
464
443
433
437
450
466
466
442
440
447
437
442
453
469
475
483
491
488
480
476
466
442
437
432
416
395
430
439
431
443
457
458
455
451
445
451
449
439
437
430
430
441
483
502
493
464
430
413
411
434
473
525
553
559
534
517
505
491
482
483
485
469
473
478
449
404
390
400
428
477
536
556
504
485
475
449
443
461
458
449
461
480
521
537
521
498
493
491
468
460
474
482
463
445
451
449
436
453
474
483
494
492
484
485
477
455
437
434
438
442
461
494
495
475
457
470
486
495
500
492
492
501
536
554
533
496
476
486
504
511
505
502
512
514
492
477
465
456
453
458
474
477
487
494
498
492
485
450
421
442
468
505
504
466
457
460
470
477
471
472
482
462
459
467
472
482
476
480
480
490
490
489
480
483
497
515
489
449
456
456
443
417
408
429
436
445
465
468
448
419
423
459
461
436
418
408
408
421
415
423
423
416
427
429
418
419
446
472
478
469
465
485
534
573
632
692
736
769
810
865
891
907
924
945
981
989
989
989
988
988
987
987
987
987
987
988
988
989
990
989
990
915
823
737
662
591
507
431
351
290
234
181
131
96
99
116
114
110
116
121
140
166
195
220
230
263
286
294
304
306
303
309
324
323
321
320
345
384
406
403
384
363
364
379
411
440
439
427
410
400
396
402
414
423
421
419
410
398
370
352
397
430
435
446
462
467
444
414
397
402
436
452
480
498
476
445
420
406
407
424
437
461
480
499
511
503
486
464
465
462
461
464
465
460
468
478
479
470
460
461
465
466
467
471
473
467
465
451
444
467
475
481
471
467
465
474
494
513
535
568
602
576
516
468
440
423
420
446
464
488
501
497
499
499
498
523
516
478
491
497
482
486
515
510
513
499
492
528
571
590
583
545
495
473
492
535
551
562
568
560
544
528
520
526
540
538
538
561
577
576
580
594
612
618
596
564
547
550
549
549
563
590
606
612
604
588
571
569
571
579
582
585
585
600
602
583
541
513
509
495
488
518
536
540
575
608
590
576
560
553
541
539
536
539
571
596
592
582
526
466
454
472
490
485
477
476
462
475
499
489
475
500
547
567
548
516
493
479
473
479
487
487
487
476
454
429
428
430
452
468
449
416
402
396
403
411
414
422
435
429
414
407
405
405
401
397
405
391
382
388
433
464
455
452
458
439
385
377
411
427
405
388
370
371
395
431
437
431
430
415
411
417
410
393
379
387
397
436
453
451
425
412
427
439
425
394
350
345
373
386
413
470
470
451
426
433
424
404
424
452
469
474
478
471
447
409
413
426
436
443
463
472
466
443
432
433
432
443
457
466
459
438
419
416
420
431
428
434
442
439
448
447
445
444
444
449
456
458
456
461
476
467
450
450
440
437
454
476
462
457
463
466
466
480
489
483
489
490
463
462
431
398
403
423
433
430
459
455
440
423
403
409
403
415
455
497
494
474
490
513
500
467
442
467
493
486
485
487
486
466
433
415
408
409
418
441
448
451
476
517
509
477
457
449
452
457
470
478
484
480
474
474
459
441
427
440
476
489
487
472
442
422
436
462
474
482
478
464
455
466
477
469
448
441
463
476
461
439
425
435
459
471
480
480
470
469
454
473
539
565
533
503
481
474
501
504
494
471
463
473
470
480
476
467
459
451
452
453
457
464
436
471
503
485
475
481
485
479
464
448
469
499
523
531
534
535
521
531
537
525
515
505
497
513
520
523
537
526
517
484
463
471
497
510
502
502
491
487
487
474
457
438
431
444
460
490
508
517
511
493
481
457
450
469
478
472
450
428
413
419
428
441
461
463
477
475
475
479
475
482
467
453
465
474
503
500
479
475
481
482
472
445
414
380
401
436
444
432
445
461
478
477
498
506
495
517
506
466
456
467
471
464
460
455
461
478
475
465
461
447
444
457
502
545
559
583
648
719
766
820
848
857
891
931
972
989
989
988
988
988
988
988
988
987
988
988
988
988
989
989
972
926
867
790
679
615
533
456
405
355
313
251
177
131
117
113
136
153
162
166
187
211
241
262
267
270
277
316
339
340
354
370
369
366
375
373
364
370
362
362
367
373
388
394
396
407
403
410
429
426
398
392
387
396
399
415
464
484
464
421
378
335
325
342
367
397
431
448
460
451
433
420
422
427
420
427
451
460
450
430
415
427
450
466
459
463
446
406
381
366
382
429
488
518
519
493
483
487
482
480
468
450
444
459
477
488
487
476
465
477
492
496
488
490
486
456
434
436
447
459
473
485
506
507
510
502
495
476
474
480
497
516
555
560
556
558
539
512
500
492
500
524
559
596
599
609
606
574
540
502
477
481
473
464
476
495
507
496
497
510
519
518
545
578
586
562
531
521
531
550
536
522
519
531
558
611
612
595
587
588
598
591
577
563
551
532
533
554
576
582
576
571
567
573
572
546
544
545
569
581
586
598
592
571
551
545
551
542
522
502
502
526
552
554
560
578
590
609
600
571
547
514
482
475
470
455
461
469
508
556
571
560
520
467
440
457
496
511
513
527
516
491
481
478
469
442
432
410
387
379
381
380
399
427
442
444
450
444
440
433
429
420
388
386
413
413
401
407
405
398
391
389
401
422
419
402
378
380
393
391
397
403
391
406
418
420
428
434
428
412
404
422
429
423
422
420
420
417
417
405
400
412
421
450
456
447
441
436
431
415
409
397
388
377
376
409
458
464
465
473
508
529
514
483
460
471
451
410
401
410
406
429
433
435
435
427
436
423
414
402
445
496
506
509
500
480
462
465
476
438
420
418
426
437
448
453
468
483
457
431
419
415
424
441
436
432
432
417
397
394
436
471
492
517
525
526
501
463
437
441
446
449
465
479
470
460
446
432
423
423
418
416
429
470
485
478
469
453
451
465
465
484
495
492
481
484
489
464
462
481
489
478
459
437
457
460
457
530
554
508
461
469
477
485
486
480
489
488
459
436
431
457
477
477
482
486
473
433
449
469
471
473
469
474
459
445
454
449
458
449
444
451
453
460
450
424
418
443
457
455
464
466
468
480
471
464
469
463
452
457
473
471
470
448
434
437
455
496
498
472
454
446
452
460
473
481
481
476
481
484
480
499
517
528
536
525
501
481
474
472
489
526
550
540
503
497
501
491
484
489
466
430
406
447
491
521
520
509
482
473
475
474
490
489
493
510
521
521
510
517
532
527
522
514
502
495
496
508
516
516
545
527
489
459
437
459
489
497
510
522
527
503
470
471
482
479
478
464
439
443
439
458
466
465
461
475
488
481
469
457
446
430
425
450
452
450
434
412
400
399
411
432
466
478
479
489
478
453
443
448
472
495
507
514
508
498
479
470
470
462
448
457
480
478
461
443
432
410
400
410
409
428
438
419
415
420
447
503
533
542
553
557
566
589
639
731
804
837
885
923
956
960
953
968
989
989
989
988
988
988
987
988
988
988
988
988
989
989
957
907
830
736
635
546
484
473
426
336
272
229
176
115
70
63
82
120
143
173
197
213
226
238
242
232
241
263
288
307
312
317
336
374
397
392
389
390
389
406
419
415
411
425
460
466
466
444
415
403
413
406
400
413
411
411
415
412
414
410
399
390
400
410
439
464
473
464
462
465
443
410
396
403
410
414
432
437
434
456
458
460
463
431
450
494
528
521
503
504
490
457
453
468
473
475
480
477
462
454
447
431
419
419
437
437
432
436
454
465
481
478
482
494
487
488
496
484
491
497
488
479
462
455
442
428
421
460
496
506
519
527
527
516
499
495
492
509
527
544
553
544
521
503
496
497
488
506
539
538
533
541
527
521
543
553
560
585
618
600
559
529
535
554
557
559
562
558
582
605
604
575
561
555
550
564
561
533
519
519
512
530
548
571
598
616
588
582
581
550
537
547
585
595
604
596
568
549
542
537
543
555
552
553
556
549
545
532
514
513
536
541
524
501
477
476
547
609
605
587
548
540
543
531
513
494
489
491
500
501
497
497
498
488
481
469
447
434
428
425
440
446
440
453
454
456
467
459
456
452
446
437
439
449
460
470
454
433
432
419
418
428
418
413
405
403
408
407
418
440
432
402
379
383
390
385
409
438
415
375
377
369
343
345
373
385
429
434
417
437
429
396
405
435
452
459
464
459
452
450
447
423
405
406
420
431
430
421
408
407
400
407
420
409
376
390
404
405
421
449
462
457
433
424
429
437
440
430
427
440
429
417
430
427
418
437
478
484
467
465
460
438
415
403
401
409
422
417
422
427
440
452
445
442
451
457
461
477
480
466
455
445
465
484
486
486
479
456
438
449
448
440
422
415
430
462
477
471
469
474
466
470
492
494
463
439
446
439
440
451
455
444
417
417
419
413
417
442
483
487
495
484
474
474
472
473
477
481
484
490
478
471
491
507
480
455
451
437
440
464
479
451
432
426
447
450
444
452
469
477
467
451
434
409
431
445
456
500
505
481
438
419
425
445
465
488
487
470
443
453
476
487
496
498
489
467
474
494
482
469
471
472
467
451
451
457
463
465
462
464
468
479
484
496
499
497
489
464
456
471
465
450
438
451
481
500
503
491
464
456
471
475
472
498
523
538
511
486
481
491
487
482
464
454
457
464
463
465
474
466
457
452
471
490
467
464
486
489
516
534
531
520
504
490
473
461
457
436
437
465
512
557
562
559
552
529
517
503
499
499
490
483
461
449
469
506
530
517
470
458
471
457
440
450
481
500
506
516
504
495
467
467
446
429
421
418
423
421
417
416
420
422
452
481
496
499
498
477
470
463
451
449
467
466
462
459
464
481
463
442
427
439
471
503
492
461
449
458
463
452
434
432
430
419
437
456
457
455
456
465
477
494
546
584
583
587
602
616
659
770
836
836
858
885
913
942
969
989
989
989
989
989
989
988
989
989
989
959
876
834
823
791
749
705
645
595
549
506
453
398
335
270
203
143
120
149
168
162
168
199
207
241
281
290
287
267
248
250
273
302
319
348
355
364
367
385
396
406
405
409
424
433
437
419
400
373
351
361
379
395
437
468
477
480
499
495
467
448
435
428
434
434
443
435
415
408
405
404
432
472
467
456
441
414
397
431
455
450
441
446
458
475
495
498
493
488
477
467
456
458
459
451
464
483
501
486
473
475
492
499
516
526
496
465
456
463
472
469
473
477
464
457
465
483
494
487
476
467
471
480
498
514
518
519
520
522
526
525
507
495
462
430
426
440
464
511
543
528
533
579
600
608
606
599
595
586
574
557
553
527
499
483
504
523
534
526
521
525
522
523
533
542
544
541
545
551
550
559
557
547
555
568
586
592
568
550
540
553
559
546
536
528
545
584
612
611
597
578
582
590
586
584
574
578
581
564
528
505
502
528
550
565
566
557
541
529
537
540
539
513
478
464
544
608
613
609
597
592
582
563
535
530
515
520
539
541
532
554
578
562
542
524
506
479
467
479
498
495
513
524
513
478
436
418
426
403
376
367
371
402
441
461
443
432
428
442
440
438
438
440
421
410
411
415
417
420
420
417
408
408
415
408
414
407
400
400
394
362
343
342
326
337
363
380
396
452
496
478
441
414
408
400
375
372
391
406
420
433
439
441
443
440
424
416
413
409
408
405
393
395
403
424
453
464
475
483
470
448
437
421
409
414
426
445
456
451
427
419
401
376
409
441
437
439
442
467
528
523
498
493
488
487
462
401
383
404
451
462
446
442
436
443
429
429
438
452
454
449
462
459
446
440
445
438
420
417
429
440
420
400
425
442
443
416
415
435
431
415
449
492
495
484
486
485
474
475
464
472
485
494
492
490
482
479
471
477
477
444
424
423
427
434
432
445
435
403
420
489
530
514
501
492
468
450
425
423
424
401
400
407
447
482
494
502
497
489
500
514
508
508
499
470
452
451
446
448
474
480
477
467
443
429
451
472
483
479
453
418
422
429
444
458
474
480
460
441
447
445
447
449
458
477
489
487
477
472
459
441
439
459
478
487
484
483
476
472
472
475
478
474
454
450
475
479
476
482
508
525
531
552
568
563
516
471
471
479
482
512
508
472
470
482
498
510
509
520
526
520
512
488
474
461
447
410
385
417
468
491
485
480
485
480
464
457
450
450
462
496
514
505
504
492
468
448
440
454
465
478
478
461
433
434
455
479
467
452
451
452
472
479
477
468
476
471
459
450
449
460
473
471
453
453
459
466
465
450
444
450
458
460
444
441
458
473
473
458
414
386
411
428
468
514
533
556
568
578
619
641
645
676
710
736
788
837
863
884
892
890
890
899
919
960
989
989
988
989
989
989
950
926
908
889
855
818
758
682
616
580
567
526
473
431
358
282
236
205
182
173
183
188
199
195
193
225
254
267
258
222
211
234
289
314
324
338
351
377
395
395
407
415
418
421
402
375
355
350
381
420
434
424
407
407
412
405
426
451
458
458
448
432
436
446
441
433
418
392
394
444
484
483
495
515
508
504
500
496
498
504
512
502
474
441
433
444
453
452
474
486
472
470
485
491
464
449
449
458
457
448
454
462
462
461
463
458
467
466
454
454
486
485
486
494
510
503
477
452
456
491
508
509
508
505
511
520
514
512
503
502
501
501
514
527
517
512
505
486
462
444
455
476
482
483
511
549
567
560
544
556
554
537
527
521
502
510
540
551
552
553
548
530
517
523
531
553
566
558
565
575
579
562
539
542
556
563
572
586
579
563
550
544
552
584
609
608
592
581
583
577
577
586
589
560
545
513
501
526
562
576
571
552
524
521
585
608
581
567
572
589
585
550
524
525
535
537
531
509
489
483
508
537
544
545
532
538
523
517
514
506
514
537
546
541
533
531
505
475
452
449
457
508
537
537
527
484
421
418
433
432
415
417
432
418
408
425
435
424
426
448
459
445
426
416
413
403
403
402
372
346
350
367
382
407
414
406
400
380
362
378
406
451
466
433
412
409
402
400
409
411
409
418
418
414
409
404
408
412
406
400
395
398
409
433
454
448
451
458
445
416
417
412
396
395
400
395
403
400
435
460
468
479
494
495
476
468
471
483
470
456
450
419
428
448
449
454
455
438
413
395
396
395
404
430
459
465
446
440
455
461
459
467
451
417
380
382
396
404
435
472
469
456
451
444
464
501
515
506
498
500
502
472
452
449
451
474
491
496
498
491
463
418
413
430
448
470
477
465
466
454
442
446
458
452
436
443
458
463
461
468
473
475
472
468
449
433
439
441
440
435
429
443
490
506
488
474
458
452
450
456
460
473
499
503
503
460
427
410
398
419
460
485
501
507
479
426
418
464
509
514
502
469
441
441
433
430
452
492
497
478
467
466
460
458
468
476
485
472
434
442
458
482
483
469
472
453
445
443
438
455
477
491
499
500
497
500
483
465
455
454
476
498
510
501
478
445
434
456
498
523
528
515
515
512
503
476
460
471
499
510
510
508
489
452
442
426
423
441
466
510
542
540
541
526
483
458
465
482
485
495
516
552
579
573
550
513
504
494
509
510
483
471
471
426
415
440
457
465
480
485
474
463
475
478
446
423
432
431
424
399
401
442
491
491
483
487
488
475
465
456
461
479
476
456
434
434
460
479
479
468
460
457
450
444
451
465
470
462
439
445
464
453
445
460
463
481
502
496
468
443
480
515
491
472
474
458
445
462
483
462
433
431
441
449
453
458
471
502
532
563
603
636
677
719
787
840
902
943
964
961
969
989
989
989
989
989
989
988
988
988
989
990
915
876
861
820
780
774
766
734
664
608
553
474
382
313
260
210
186
192
197
171
162
175
190
195
205
234
258
281
288
301
311
303
317
338
336
352
378
392
384
373
373
378
382
385
381
378
353
333
357
400
425
466
495
522
507
497
503
461
405
402
425
434
440
420
417
444
432
407
415
431
456
458
450
449
446
470
489
483
463
446
427
409
414
412
428
459
455
435
405
388
406
460
520
530
512
479
463
475
522
533
501
467
433
427
429
443
451
456
464
474
487
472
457
455
458
445
446
451
455
474
471
461
445
435
441
471
519
553
554
530
513
496
485
490
527
527
500
484
506
532
547
551
542
540
563
569
557
542
541
503
492
517
527
535
526
496
493
488
506
544
562
554
551
549
532
508
501
506
529
550
585
598
600
586
563
549
527
519
516
511
516
540
548
559
593
626
638
622
595
572
543
537
560
605
616
627
615
588
553
522
515
527
538
545
551
549
555
559
557
559
557
554
575
559
530
523
541
539
520
523
534
557
596
597
574
526
499
502
512
523
516
521
506
491
493
492
476
477
456
416
417
427
460
476
460
436
430
440
465
470
448
441
448
454
445
449
449
450
430
389
389
388
410
398
379
357
324
331
361
407
422
433
432
434
430
421
429
447
453
448
458
457
445
413
385
381
401
428
442
423
399
415
423
411
387
381
370
386
399
391
437
483
490
475
456
439
436
430
425
432
444
465
467
448
427
422
431
438
419
407
419
408
394
388
415
424
401
404
424
453
462
466
472
450
410
386
379
379
408
430
426
406
391
417
450
470
476
474
465
448
433
430
423
409
422
445
461
468
473
480
485
474
474
454
421
416
426
425
415
414
422
467
544
545
536
540
525
508
484
465
464
445
426
438
461
481
479
478
483
509
542
547
485
423
429
428
429
452
468
449
443
454
463
471
465
423
408
432
442
427
425
430
435
443
481
495
475
455
444
434
417
424
445
470
483
479
477
478
466
453
459
460
456
440
425
427
445
449
452
485
516
517
523
501
482
478
463
454
473
487
510
507
482
456
443
433
437
455
478
506
508
497
472
448
449
455
489
525
517
506
507
507
515
520
535
539
509
476
493
502
497
479
465
471
455
445
443
455
481
470
460
475
477
465
442
428
420
418
422
423
432
436
448
482
496
492
493
493
498
486
465
458
471
502
542
556
543
527
513
499
488
497
524
549
564
542
513
503
484
467
471
505
532
523
487
479
504
515
516
531
515
471
453
453
455
457
436
403
372
382
442
478
480
456
434
440
469
481
486
496
465
437
459
487
485
472
464
472
472
459
450
439
437
453
443
429
440
469
490
470
463
472
478
477
481
483
465
443
424
420
417
432
466
482
483
469
449
438
426
413
439
471
497
493
483
469
485
515
564
610
652
689
709
730
776
832
879
931
976
990
989
989
989
989
988
988
988
988
988
988
988
988
989
989
977
900
804
756
710
644
619
597
549
471
397
322
242
194
157
167
185
204
222
225
216
217
204
184
199
236
250
268
281
302
322
328
346
376
387
374
371
372
377
386
393
389
381
384
386
376
376
384
381
387
401
407
407
407
413
438
454
436
407
407
413
402
415
453
492
490
481
453
404
382
422
485
497
444
423
430
434
424
456
478
458
437
440
464
450
427
464
477
461
485
500
498
492
480
471
448
430
419
431
444
457
474
472
488
481
463
460
456
454
451
449
457
484
516
540
545
527
497
489
493
481
480
469
465
448
454
482
490
490
471
474
476
483
476
463
462
499
546
566
557
535
533
550
542
527
514
502
503
508
506
509
519
526
536
545
560
577
580
590
583
587
619
619
593
558
524
512
515
520
526
528
561
573
574
583
567
548
530
522
516
517
525
538
551
586
626
638
619
612
604
589
572
576
560
543
545
555
557
579
610
613
597
577
549
527
534
575
604
583
548
517
513
512
528
549
544
541
529
515
504
500
492
510
545
561
556
549
536
506
459
446
446
443
455
508
543
531
515
498
484
493
493
489
478
470
474
482
460
435
422
413
412
416
427
423
422
415
409
426
435
420
407
415
389
370
379
387
392
406
408
398
372
330
324
374
402
398
404
394
397
435
465
466
451
443
442
433
412
391
384
390
406
397
375
357
360
351
368
416
451
500
531
520
479
447
436
430
426
437
438
429
424
422
411
393
405
437
459
444
424
430
444
440
445
445
438
447
453
448
452
455
451
444
438
442
429
409
401
425
446
441
439
445
432
423
438
436
425
447
437
444
480
471
464
453
459
465
456
443
429
440
460
489
492
483
487
496
493
490
470
462
465
472
463
451
441
433
434
436
428
425
430
447
454
455
475
491
478
455
460
456
459
484
494
487
477
466
437
412
419
429
455
481
482
483
498
510
510
511
482
422
389
400
412
426
436
439
448
459
454
409
405
424
444
460
481
498
510
510
512
510
487
456
437
451
445
428
415
425
457
480
481
470
461
467
470
455
457
445
443
463
492
506
497
516
539
523
497
486
473
456
442
443
464
480
460
439
445
454
474
480
483
494
481
468
457
443
448
461
468
463
461
460
465
471
462
476
499
496
500
484
456
465
475
477
464
430
437
468
478
478
476
470
462
468
493
503
498
477
448
437
445
469
491
517
540
570
589
572
552
526
491
478
483
486
476
464
478
515
552
551
536
523
509
488
476
481
459
457
495
528
529
527
527
516
500
495
505
502
483
477
474
461
454
446
431
404
398
415
434
450
461
495
522
524
513
497
479
465
464
464
456
447
444
437
447
457
467
466
462
480
491
496
488
465
442
436
441
472
518
523
520
514
498
487
482
472
445
419
398
424
436
420
424
461
461
460
478
492
487
465
455
459
473
487
496
519
567
635
702
758
773
789
813
835
894
959
989
989
988
988
988
988
988
988
988
988
988
988
989
989
975
933
916
877
807
738
663
591
512
439
388
349
315
249
168
118
108
131
177
225
240
243
253
230
204
189
206
221
238
253
273
297
345
380
364
362
380
378
368
364
343
327
371
409
413
394
406
426
417
416
411
413
418
416
416
425
429
435
417
410
408
402
393
380
376
413
437
443
462
465
472
509
498
471
474
453
432
406
394
386
405
470
505
498
501
492
481
468
453
449
450
461
464
462
460
469
481
485
486
461
449
446
479
504
482
467
479
476
463
451
437
444
451
450
445
465
484
498
508
497
477
452
455
477
492
481
466
469
487
508
503
507
518
507
466
461
469
486
521
542
549
526
504
514
532
541
555
551
532
506
517
544
541
518
491
477
495
535
554
577
579
573
574
572
586
603
608
597
601
593
592
581
557
532
546
572
581
594
598
589
574
581
584
590
583
587
582
568
566
565
550
540
548
560
567
585
598
588
581
557
515
501
537
584
597
581
572
560
541
547
564
541
517
489
482
487
482
492
536
564
573
563
557
549
524
497
492
505
530
553
537
509
488
466
452
451
421
395
389
410
448
513
532
523
482
449
453
439
443
430
448
483
478
466
457
446
436
435
431
434
435
423
403
396
407
416
408
398
398
392
396
405
410
413
408
402
393
382
383
392
400
404
403
405
418
424
418
409
403
395
384
363
354
381
390
394
406
422
427
419
398
380
379
384
400
435
465
464
454
453
466
459
456
446
427
381
360
363
400
442
452
446
449
464
460
435
405
409
434
458
469
466
444
430
438
456
459
454
431
430
464
448
399
399
441
480
470
460
449
441
448
451
455
460
466
462
457
454
451
439
435
431
426
431
431
439
464
467
478
479
462
448
435
434
443
449
455
446
428
424
424
438
447
446
444
431
445
461
487
487
468
464
451
433
423
447
476
468
505
546
542
520
493
483
479
495
494
483
452
430
434
450
469
449
432
420
444
460
444
417
413
427
430
416
433
437
435
485
488
469
453
463
475
487
489
492
490
467
462
464
458
459
444
425
426
426
433
461
486
470
458
479
493
485
468
459
466
471
476
470
461
448
441
454
485
512
507
511
511
509
526
529
505
500
496
484
469
456
444
426
429
444
438
417
428
469
514
542
527
516
502
481
457
471
481
486
481
470
456
451
451
430
425
434
434
473
493
513
511
530
543
531
523
500
457
471
510
520
528
558
561
556
544
548
541
525
504
497
504
500
496
483
451
441
445
453
468
461
463
460
450
453
459
462
451
447
447
451
463
478
478
480
470
451
440
444
462
467
481
501
510
472
435
430
440
429
443
495
528
517
512
508
506
490
456
455
487
501
495
493
488
481
461
448
437
428
430
422
416
432
448
432
399
392
401
429
447
450
442
443
447
441
434
439
468
552
611
632
642
665
700
739
782
835
863
885
928
955
990
989
988
988
987
987
987
987
987
987
988
988
989
990
967
908
845
779
721
684
637
556
458
364
301
267
231
198
174
152
148
160
168
177
193
217
229
249
242
230
240
252
265
286
302
310
348
374
384
376
369
407
428
426
426
412
406
397
363
404
453
441
414
406
408
410
410
424
446
442
423
400
381
391
399
397
406
403
396
395
407
402
404
415
432
441
432
440
437
414
397
385
376
382
391
444
449
429
421
441
439
449
465
487
486
475
481
483
483
500
504
502
500
477
464
464
470
478
482
484
484
473
466
456
455
453
460
492
502
509
495
471
473
484
495
494
488
489
474
457
449
445
455
492
524
528
526
518
509
502
508
540
569
546
521
545
584
570
541
527
526
532
543
571
560
533
521
520
520
527
549
546
530
528
534
534
526
519
533
560
576
583
585
590
580
572
546
536
548
554
559
567
587
611
598
565
551
557
569
561
553
552
545
533
529
554
586
636
645
614
588
565
557
556
545
539
556
575
584
571
532
505
560
621
618
587
559
563
575
586
593
573
531
510
523
568
614
593
542
513
509
510
513
508
494
479
469
462
469
467
465
460
469
482
462
426
427
447
455
466
455
438
436
422
409
380
361
377
384
398
403
395
395
426
450
436
408
364
362
396
389
396
421
419
407
402
405
398
400
397
362
363
364
347
365
398
395
395
397
408
392
373
382
399
430
454
477
484
473
453
431
425
417
404
410
421
429
441
444
467
484
481
480
462
448
433
427
390
364
373
397
408
410
410
409
428
439
431
428
439
441
441
453
456
454
463
441
411
410
411
390
369
402
449
446
442
456
476
489
502
482
447
417
447
459
476
496
505
499
493
457
435
424
392
374
384
408
447
473
489
494
515
527
501
481
471
467
468
467
453
427
409
396
406
417
422
442
471
478
474
489
490
483
473
461
457
453
438
444
466
471
477
474
465
466
463
450
428
431
445
466
475
470
461
451
448
472
486
467
447
421
430
468
479
471
442
434
437
468
476
465
457
458
446
435
423
420
447
462
500
513
466
464
478
475
466
470
475
511
527
511
486
471
470
445
429
448
468
461
455
467
458
451
436
445
465
467
453
461
462
463
464
476
501
513
501
492
482
470
480
473
462
473
463
441
451
474
496
509
510
502
479
464
456
455
459
459
467
473
476
494
512
505
482
469
464
462
464
467
471
472
479
487
506
520
526
506
483
461
462
456
451
449
453
458
454
451
442
451
440
427
436
471
479
488
543
551
522
543
568
553
528
526
545
549
537
522
505
493
483
486
495
529
552
546
527
521
525
536
535
522
504
486
474
469
474
480
490
492
494
490
480
485
491
478
459
440
440
473
488
477
459
449
447
455
471
480
490
505
493
468
458
469
463
439
425
429
449
467
463
467
466
457
450
442
439
432
439
474
499
495
477
478
480
482
481
488
484
458
429
425
438
416
402
402
394
389
426
458
457
455
467
484
468
473
452
437
503
595
663
731
787
818
862
884
908
947
984
989
989
989
988
988
988
988
988
988
988
988
987
988
989
990
957
912
861
809
729
664
611
552
489
409
322
247
192
166
137
118
124
141
159
183
192
190
195
212
219
240
256
264
277
306
340
370
377
379
382
402
415
403
394
394
387
381
405
417
398
400
424
422
413
403
409
407
397
383
385
390
405
425
430
426
422
423
413
401
404
416
421
420
407
393
416
426
424
428
447
444
434
437
433
455
476
490
499
504
495
475
465
466
461
475
479
461
438
420
445
477
493
505
510
496
480
471
475
477
490
493
483
475
470
462
451
452
455
462
482
511
502
471
466
513
522
511
519
519
504
497
512
514
508
508
502
478
452
463
479
483
489
519
543
547
528
528
519
514
521
529
540
544
560
570
582
585
558
545
542
517
486
516
550
568
561
557
538
534
554
563
565
576
586
588
603
597
581
564
556
555
560
570
574
574
579
588
589
590
582
570
562
561
577
577
574
566
546
521
530
578
610
615
589
591
598
584
566
555
558
576
584
598
593
575
559
529
521
523
554
553
531
523
532
528
509
513
520
523
513
512
508
492
466
486
537
544
536
529
502
476
466
480
484
473
467
474
470
456
476
483
472
447
396
394
398
392
384
402
416
421
417
399
400
398
396
405
406
430
446
437
420
401
394
401
405
400
400
393
382
381
389
385
408
418
422
425
427
416
400
385
388
393
406
426
426
417
413
408
388
387
387
417
439
411
394
403
413
395
388
392
400
428
461
483
470
452
467
474
462
443
438
416
396
398
412
425
460
499
497
473
444
429
424
428
432
422
425
435
410
396
422
429
411
392
388
412
428
453
466
455
445
437
428
447
474
482
474
449
444
439
414
408
432
453
457
467
473
476
470
464
464
446
428
420
420
423
437
463
490
480
460
459
465
449
434
455
479
486
464
453
457
455
446
439
444
454
464
485
506
474
426
402
403
435
454
463
466
461
462
469
451
428
425
418
420
449
482
501
513
471
427
423
462
486
477
459
452
459
470
485
499
515
501
451
416
393
389
438
458
459
463
460
441
424
421
431
450
472
511
520
488
457
453
446
434
427
446
471
493
488
491
481
473
488
513
502
464
455
435
440
461
464
462
453
441
434
439
433
433
440
464
475
471
455
442
435
452
475
485
493
480
459
445
440
456
502
535
511
461
432
421
447
482
511
509
513
515
519
514
509
512
496
487
470
451
451
458
466
485
494
492
476
473
487
468
454
465
495
503
501
508
498
499
494
474
465
468
465
451
439
448
477
495
504
520
521
505
493
495
506
504
534
570
561
547
564
540
502
500
509
507
492
484
489
503
497
504
494
475
457
463
506
515
477
435
430
434
468
492
492
478
469
466
469
465
447
448
451
460
463
441
436
460
465
446
432
437
447
457
464
465
461
455
442
432
422
425
455
456
445
451
481
478
469
477
476
481
482
447
421
463
506
520
497
465
442
430
427
428
430
437
446
442
449
465
469
480
492
471
441
477
560
626
690
771
812
830
871
891
902
924
964
989
989
989
988
988
988
988
988
988
988
988
989
989
990
970
941
896
833
731
629
560
506
457
412
337
270
210
154
130
146
172
191
194
182
186
192
198
205
232
251
259
254
248
254
285
321
366
425
428
389
371
372
363
360
351
350
398
450
472
463
446
433
432
426
411
397
398
411
420
421
419
421
419
408
413
433
424
400
411
435
446
439
435
443
452
462
463
466
476
465
443
440
461
451
449
459
483
475
456
462
479
479
482
484
477
448
415
415
419
414
421
470
501
499
474
462
468
468
487
493
505
496
470
446
435
447
455
468
463
469
471
472
482
488
491
490
487
483
486
489
475
458
455
480
508
513
518
520
532
575
563
519
493
492
518
536
545
528
520
518
528
550
548
538
550
555
578
597
621
628
600
575
563
565
571
553
529
513
539
584
609
608
588
579
564
554
546
559
586
621
618
606
610
605
597
583
573
572
562
562
563
574
595
596
616
627
594
558
547
536
541
544
547
561
577
578
571
557
544
556
577
568
521
495
483
497
537
554
572
557
557
568
565
588
594
579
562
553
546
541
520
503
517
507
499
498
500
493
523
536
522
509
484
472
461
430
412
466
483
450
435
412
432
474
496
496
478
448
431
436
443
439
426
426
423
420
400
394
382
369
366
377
400
405
397
384
379
390
404
395
377
379
417
435
438
424
368
345
365
377
378
388
383
371
375
384
427
447
455
457
444
424
409
431
452
446
431
440
436
414
426
427
428
442
437
438
445
439
445
441
437
428
409
394
400
417
443
485
523
527
507
494
483
471
461
437
420
408
415
445
455
472
472
479
491
501
464
421
405
437
466
469
468
467
453
441
445
449
444
443
443
453
466
484
492
483
447
439
454
426
426
448
476
489
470
447
432
431
439
460
466
450
438
419
411
409
450
490
483
477
469
452
468
462
457
512
496
446
401
387
403
426
458
488
480
469
490
514
514
493
490
486
479
465
461
474
485
495
486
471
462
462
470
497
497
485
487
502
504
509
507
498
491
493
496
505
491
473
454
447
434
447
451
464
493
507
507
479
458
470
467
438
437
464
473
488
497
492
469
451
440
444
450
467
472
469
469
464
470
469
469
480
495
520
532
502
464
432
415
424
464
491
477
449
440
441
462
489
485
463
468
489
480
487
491
491
487
488
477
479
486
479
495
498
486
478
499
502
498
485
477
463
441
471
545
571
545
519
504
492
504
523
535
547
558
546
524
512
507
514
512
484
477
486
510
546
555
535
528
525
526
536
545
540
537
538
538
541
539
534
533
536
534
526
523
519
527
528
525
517
497
495
496
496
497
511
520
512
486
471
471
469
466
471
479
471
445
425
457
469
450
448
478
492
478
463
463
487
483
480
488
512
529
509
507
503
492
483
480
486
489
497
493
476
484
520
514
477
450
446
446
445
420
396
413
442
472
474
461
458
464
460
430
449
484
491
461
465
481
506
519
509
516
513
521
536
587
653
701
756
815
850
872
905
914
931
948
968
989
989
989
988
988
988
988
987
988
988
988
988
989
975
922
858
791
735
689
637
583
539
484
405
297
216
166
130
132
149
155
163
175
207
211
206
198
211
254
280
306
316
304
326
348
366
364
383
396
413
426
428
410
397
389
380
393
433
462
495
499
442
400
399
408
416
405
402
390
394
403
409
418
422
423
405
405
421
436
448
446
442
436
430
427
434
423
427
452
446
455
457
447
438
427
423
425
430
449
472
480
456
447
460
479
496
492
479
452
461
474
477
513
549
522
502
516
522
508
473
467
508
523
512
513
503
468
446
429
483
548
580
573
550
539
545
528
501
487
476
495
524
485
465
501
546
575
598
591
575
563
560
560
547
522
507
515
527
527
507
491
503
518
511
522
555
560
569
601
610
598
594
588
568
559
564
583
588
574
556
543
532
508
538
584
615
625
607
573
569
599
616
604
593
611
637
649
630
613
600
576
558
564
596
607
624
626
611
597
621
646
655
669
678
659
620
571
548
535
567
603
597
575
568
560
547
545
572
588
566
546
542
546
545
534
521
511
512
509
518
526
534
537
515
510
499
507
510
505
471
451
454
478
495
473
451
437
452
451
439
436
426
407
403
425
425
413
425
428
413
421
430
436
408
365
373
403
411
430
419
408
405
395
389
383
377
370
367
382
419
467
460
389
355
382
419
445
435
411
418
420
419
407
405
412
415
405
398
416
435
445
451
457
463
458
452
459
449
441
435
431
426
418
403
409
408
450
492
474
458
442
419
425
449
462
470
471
471
459
441
411
401
417
437
447
445
448
438
409
400
419
447
480
488
481
471
456
444
445
445
456
462
466
466
451
419
414
444
466
466
454
451
436
426
448
461
475
471
450
441
444
473
482
462
446
457
463
472
483
505
518
513
497
462
448
451
450
448
458
471
481
504
521
507
478
461
448
427
414
435
507
520
502
470
458
448
428
438
482
480
482
504
506
502
501
499
498
508
493
437
436
458
461
465
474
472
479
473
463
452
458
458
457
468
494
507
501
478
480
488
477
466
472
454
434
416
412
414
431
449
472
464
452
481
508
537
528
513
506
469
455
490
503
483
475
464
467
469
470
484
464
454
452
472
494
502
503
515
537
520
504
481
477
485
492
523
540
500
465
460
477
491
473
439
456
484
497
487
470
481
516
538
529
512
519
514
478
460
467
479
475
477
492
478
444
425
417
434
438
444
464
496
521
535
529
518
505
509
532
539
531
525
491
450
462
491
514
516
513
516
515
510
505
515
516
523
536
530
523
508
496
499
499
481
515
554
528
501
495
508
515
514
522
540
535
540
549
539
518
515
510
499
499
516
513
495
477
463
463
474
464
452
477
517
525
549
548
526
507
507
482
456
451
443
433
448
502
530
535
533
510
479
469
500
515
475
437
421
438
466
496
512
512
484
461
442
452
477
494
503
518
499
445
412
394
397
403
412
439
461
452
440
448
445
427
414
419
422
429
440
448
443
466
496
514
513
521
531
536
546
572
638
682
708
735
746
786
834
876
904
910
925
959
989
988
988
988
988
988
987
987
987
988
988
989
989
989
985
941
879
800
710
623
548
475
431
362
283
214
154
112
102
98
106
138
189
221
205
219
255
265
275
316
341
352
347
347
363
366
368
370
372
364
362
371
378
392
394
382
378
387
361
353
365
344
329
348
361
376
425
469
481
476
467
463
418
374
378
412
440
459
463
442
422
430
462
477
478
466
436
412
410
433
472
479
451
444
459
465
477
482
475
465
451
455
479
478
463
465
449
435
444
460
480
486
493
484
477
489
504
509
497
476
469
477
471
462
474
489
494
496
505
508
509
500
498
487
478
474
467
469
466
494
531
542
542
533
530
534
545
544
533
526
521
529
537
537
554
553
551
555
540
533
548
562
570
555
516
497
526
565
595
594
567
562
565
555
562
582
611
620
625
620
603
595
593
582
587
591
578
575
573
587
605
602
604
604
605
603
601
599
586
593
604
603
587
589
591
580
581
589
583
603
590
541
543
581
597
599
600
606
622
618
609
580
551
528
509
502
524
538
532
533
536
541
538
539
540
537
530
516
497
482
503
515
512
511
521
515
502
494
508
519
493
461
418
360
374
409
450
488
524
508
503
505
482
459
436
424
428
455
457
446
421
405
401
409
403
391
401
400
387
377
391
419
428
433
428
419
427
438
420
393
406
440
442
433
429
429
436
429
397
393
389
360
345
382
442
454
429
412
400
399
408
397
393
400
399
395
374
376
414
435
430
424
417
410
401
412
415
429
462
461
448
443
444
438
436
436
428
427
438
451
474
443
416
382
376
382
400
445
468
477
466
444
427
438
469
496
489
491
492
494
489
477
472
469
455
446
459
460
452
450
449
435
429
417
435
457
466
478
499
506
500
500
473
447
464
482
481
460
443
431
448
456
470
476
470
457
453
453
446
446
462
467
469
465
482
518
521
500
476
455
431
433
451
454
459
479
487
475
451
431
428
435
450
466
480
490
489
485
483
465
440
427
440
456
446
430
419
420
440
505
546
534
491
474
466
462
459
464
466
481
488
471
463
475
475
484
464
439
433
434
458
465
501
525
519
510
501
472
430
437
463
464
446
419
439
465
461
466
485
500
483
477
478
476
480
486
482
475
462
453
447
459
477
489
491
491
488
489
494
477
459
465
471
475
485
488
481
483
480
474
465
461
467
484
467
456
476
477
490
505
504
499
489
468
433
400
402
418
468
516
525
512
494
496
482
478
494
500
508
484
471
474
492
501
508
535
531
515
500
499
508
521
518
498
475
469
472
465
460
458
462
465
473
482
477
497
510
513
493
489
511
523
524
526
513
498
502
500
508
533
553
556
550
524
491
483
487
493
489
491
519
512
489
489
487
482
492
481
478
477
478
478
485
480
467
467
465
470
468
462
452
448
456
474
498
507
512
498
480
453
440
441
444
450
464
477
479
476
470
470
474
467
460
444
421
409
422
444
460
467
474
477
478
485
486
465
449
446
441
438
435
427
428
422
414
413
407
402
411
441
459
476
504
509
513
532
565
579
584
624
700
776
830
869
893
928
944
955
960
989
989
988
987
986
986
987
987
988
988
988
989
989
963
923
882
813
726
647
578
517
455
392
332
293
238
171
140
123
128
169
209
221
215
208
199
195
210
267
305
322
333
335
340
347
350
357
385
405
404
399
404
397
400
408
439
467
458
415
384
375
386
400
404
413
426
429
427
429
434
429
412
390
390
395
432
453
434
405
384
377
375
388
451
484
477
460
457
443
416
384
383
414
463
525
549
529
497
485
492
502
490
478
468
464
469
471
467
462
465
471
468
454
481
481
472
464
469
493
509
515
506
486
479
468
463
477
513
533
524
507
486
462
469
507
537
558
570
555
538
528
516
507
516
517
502
510
510
506
512
524
540
546
545
522
494
485
499
522
512
489
483
508
553
568
530
517
527
553
563
573
577
569
559
562
569
554
545
526
519
529
540
562
585
616
645
631
628
610
563
549
575
564
557
543
554
561
561
552
561
571
566
565
594
635
633
612
612
605
584
568
561
553
549
532
526
527
566
604
624
618
599
593
585
564
559
559
528
503
516
549
587
613
594
575
558
555
534
497
497
497
500
504
508
504
502
493
483
465
454
462
475
506
508
469
444
432
436
442
455
480
472
440
428
418
424
431
448
456
430
397
370
374
381
391
400
405
394
373
359
361
356
355
362
359
355
340
345
347
372
392
399
390
374
390
391
392
406
424
426
429
440
450
459
441
405
371
384
412
437
438
426
425
435
440
435
425
405
393
388
415
437
428
423
424
425
435
444
450
442
432
427
415
402
436
470
463
439
441
439
426
424
422
425
422
427
430
422
415
399
414
453
484
503
482
444
435
439
443
456
469
467
469
472
468
473
461
428
393
399
406
400
418
440
444
441
432
428
428
435
453
451
463
480
466
464
453
452
457
462
465
487
492
476
462
467
480
486
473
464
466
451
449
471
498
515
512
493
472
460
455
436
401
369
351
389
467
520
520
510
490
479
480
485
487
473
465
461
448
444
453
462
462
446
433
443
502
538
529
517
502
485
478
471
459
445
440
457
486
514
513
504
481
463
482
507
510
500
505
502
497
459
435
437
437
451
472
460
438
428
405
402
405
436
456
481
479
476
474
476
468
468
499
505
496
483
468
474
468
449
448
455
457
460
445
453
466
473
461
454
456
485
511
504
502
503
491
476
463
441
442
461
469
489
492
496
490
451
424
437
449
458
447
436
462
495
497
485
490
523
508
521
516
512
498
464
454
451
444
433
421
428
482
542
531
497
473
468
489
512
526
512
497
496
499
501
524
538
539
532
515
520
539
540
505
483
492
523
540
538
519
510
487
510
562
565
541
523
493
486
498
509
526
532
524
529
519
499
498
495
477
465
471
484
490
495
504
496
484
462
434
414
422
450
474
502
505
473
443
436
436
426
430
437
445
472
520
511
484
469
461
445
470
488
496
492
450
420
446
457
451
466
469
463
472
476
459
451
457
451
437
436
430
403
406
446
461
451
432
444
462
480
505
524
532
522
524
547
572
577
600
633
666
713
768
829
884
919
943
960
968
967
982
988
989
989
989
988
988
988
988
988
989
990
933
871
819
784
729
658
595
529
460
408
389
342
269
210
165
157
170
183
199
197
201
212
191
193
230
247
250
266
282
296
332
338
341
381
402
384
374
372
344
332
353
375
382
378
368
375
383
405
428
432
421
416
409
397
395
426
429
424
431
424
419
424
413
403
408
420
424
439
453
461
458
426
391
389
418
456
478
501
501
470
449
439
426
435
451
462
464
463
471
482
490
484
482
485
481
485
483
489
477
478
486
477
474
490
484
446
384
376
416
436
489
547
566
553
518
497
502
500
505
506
519
530
518
509
505
525
531
548
542
527
539
549
524
499
486
481
482
485
482
484
495
503
510
509
512
508
502
514
523
522
509
501
501
495
503
523
532
537
548
547
537
537
550
544
538
547
567
587
578
584
577
535
536
548
562
573
574
584
598
608
607
618
622
622
619
601
590
581
607
589
564
541
521
537
555
574
603
639
657
645
607
576
563
570
582
601
583
568
568
563
549
534
529
530
528
528
539
564
573
565
545
521
488
485
497
504
508
497
496
488
499
517
516
497
482
475
463
459
446
421
418
428
440
456
467
454
440
423
407
415
427
431
416
414
427
427
407
392
389
399
420
436
438
420
424
429
434
431
404
399
403
420
431
428
398
371
354
354
367
372
384
371
360
369
384
397
410
421
434
417
378
343
332
341
368
432
479
501
490
465
433
407
410
417
439
458
443
429
426
438
452
447
443
437
431
440
430
423
409
388
384
403
406
408
426
456
487
472
447
448
434
412
408
428
437
435
435
447
460
467
466
465
461
444
429
438
485
502
482
454
454
455
426
394
392
400
436
473
481
490
486
450
428
448
449
444
422
418
442
470
473
452
439
443
473
476
478
479
476
462
433
400
375
370
362
400
475
538
540
523
508
497
496
486
459
452
447
436
448
465
461
461
478
508
495
476
478
479
455
445
458
468
483
482
475
475
463
453
437
436
443
447
452
455
441
417
404
419
439
443
444
455
461
452
451
442
440
440
438
413
398
423
472
491
479
469
474
473
457
435
426
435
461
488
506
505
540
529
481
450
435
450
473
491
505
503
481
462
462
469
462
459
484
505
492
487
489
488
493
493
495
485
455
439
456
491
510
520
520
501
498
476
461
457
466
463
468
464
468
495
497
468
466
475
482
492
496
502
496
501
493
501
509
513
517
497
484
501
516
542
549
535
518
488
476
495
504
514
520
527
493
464
487
495
461
454
464
464
455
444
444
450
462
468
463
458
451
425
414
420
420
430
445
456
438
432
453
506
517
499
470
459
468
483
492
491
493
503
497
488
492
486
474
475
478
459
453
483
480
462
430
424
449
450
444
473
473
424
397
418
461
488
495
482
451
423
422
429
444
446
440
449
454
449
455
472
484
490
503
512
544
597
657
688
695
703
719
762
834
897
924
973
984
988
990
989
989
989
989
989
989
978
965
945
921
896
864
844
802
729
658
619
608
570
545
486
362
246
191
179
172
175
178
182
195
209
217
234
226
218
217
222
224
256
296
312
316
327
341
343
352
356
376
405
414
416
415
417
421
425
426
422
406
395
390
415
422
430
433
410
409
424
438
452
447
435
422
443
464
464
471
473
463
449
445
452
461
463
453
448
451
454
457
438
420
403
381
415
499
553
552
529
504
504
506
491
463
473
484
488
485
477
487
483
475
465
468
470
469
475
471
465
482
496
488
467
455
458
476
518
512
485
487
500
509
513
471
447
456
459
464
489
501
511
513
519
501
473
474
490
503
514
520
519
513
508
521
517
502
485
454
487
531
525
510
514
527
524
517
531
547
544
538
528
539
552
573
575
575
570
577
579
570
563
564
564
561
545
559
569
591
592
581
585
606
616
614
612
602
588
566
550
550
565
552
532
555
581
598
597
585
586
592
594
578
561
548
540
544
561
562
560
593
593
558
547
542
540
558
550
524
504
482
470
494
535
573
586
580
565
531
482
471
451
439
446
432
403
414
413
388
428
464
456
420
442
472
476
466
468
459
437
430
406
397
420
422
420
424
444
462
460
432
439
436
414
408
411
412
393
360
349
363
403
433
447
442
428
425
414
396
384
361
366
387
400
395
384
403
440
430
406
408
412
407
395
378
368
380
395
417
449
461
440
412
399
390
396
409
400
375
364
371
397
410
398
387
396
389
401
411
443
462
459
446
437
453
457
439
436
449
456
454
447
404
360
369
395
422
453
478
478
470
448
439
421
416
421
418
431
462
493
498
481
466
461
461
472
486
499
490
485
485
477
470
468
461
457
468
457
458
454
422
404
421
463
497
502
506
504
488
464
458
459
470
468
451
448
448
448
447
450
456
465
457
450
457
467
478
476
474
491
497
479
441
412
395
408
420
427
445
451
443
446
461
470
460
468
488
491
464
435
424
433
437
423
434
447
469
473
448
435
448
484
515
503
478
467
463
460
456
440
442
463
477
485
468
464
456
441
468
527
559
540
490
468
482
494
503
519
518
510
530
531
500
494
500
495
456
447
432
442
450
434
426
441
459
467
483
475
480
489
502
508
523
524
519
514
521
540
531
500
478
469
473
466
462
499
505
485
476
473
483
495
497
501
489
472
464
460
470
490
509
525
496
451
445
436
431
454
460
451
444
434
435
451
489
516
493
477
465
462
477
493
487
474
470
478
475
480
480
479
469
447
418
414
413
469
532
520
487
462
448
434
438
478
523
515
500
493
467
453
464
480
485
478
469
461
443
426
411
390
381
399
450
476
489
496
477
470
466
483
513
536
539
514
532
553
579
598
627
641
656
701
735
772
794
810
871
931
935
951
984
989
989
989
989
989
989
989
990
963
916
888
858
832
794
740
670
617
556
513
491
449
368
291
234
196
169
155
175
196
196
187
170
162
174
209
272
311
329
345
358
366
370
383
385
383
395
408
403
387
404
413
408
401
417
432
437
436
435
421
419
407
388
380
385
411
445
465
464
446
423
426
449
458
467
467
436
418
437
466
470
461
453
456
449
463
487
501
500
475
459
456
452
452
441
421
418
425
442
466
469
472
478
460
451
441
438
469
496
491
462
445
440
450
468
478
506
504
477
454
446
440
436
454
501
517
474
471
473
454
458
476
500
520
524
518
513
502
494
516
524
494
484
486
512
530
518
524
532
523
543
549
524
472
481
512
531
523
509
512
526
530
517
529
550
561
547
529
526
516
522
530
542
567
598
619
628
618
610
596
568
527
509
546
557
552
543
533
543
540
555
576
594
590
577
581
587
583
584
583
570
572
609
626
647
639
624
619
590
552
558
566
559
551
540
526
517
507
500
497
508
522
553
561
546
526
508
517
554
581
574
551
512
505
527
537
532
504
481
479
470
479
483
468
447
428
422
444
467
474
474
472
457
459
447
408
384
408
435
460
462
459
460
452
438
401
388
387
392
414
423
423
440
445
437
421
402
399
413
437
442
445
449
425
393
385
383
375
377
383
380
369
362
359
349
352
388
430
422
403
408
435
441
436
423
401
391
389
410
421
423
424
434
440
427
410
402
395
394
399
402
386
384
394
385
405
440
453
473
486
478
474
472
463
453
450
446
439
418
385
374
396
411
440
480
487
494
511
501
480
492
501
486
454
447
427
383
361
375
406
458
475
481
471
446
440
445
440
432
453
475
479
472
467
452
456
478
496
492
491
495
484
476
476
457
437
433
435
426
419
409
403
431
472
506
508
482
469
466
463
472
478
470
467
460
453
452
452
464
465
465
479
484
479
476
465
457
453
458
460
453
464
463
457
440
433
426
434
468
480
466
431
432
447
463
453
449
456
467
450
433
435
442
449
449
456
451
437
415
433
469
490
452
426
427
415
431
464
473
494
543
553
525
503
477
479
476
462
462
472
469
472
481
494
487
464
455
454
457
459
465
476
477
477
490
496
492
492
494
486
481
484
486
485
490
511
496
482
463
454
461
478
466
460
472
475
491
505
503
488
483
465
452
455
441
438
461
480
530
591
601
599
589
574
562
555
533
517
510
507
502
481
467
480
479
461
458
475
483
466
463
479
483
477
494
499
482
451
445
439
433
440
448
446
452
456
468
474
462
463
468
459
437
444
450
464
495
491
475
472
474
477
486
492
469
447
440
433
435
473
491
500
517
500
473
455
458
469
478
494
515
507
503
488
473
490
480
443
439
449
450
442
436
452
476
478
492
486
468
463
461
446
432
431
443
460
480
521
544
548
546
549
584
608
640
677
705
737
777
832
888
902
925
969
990
989
989
989
989
989
989
989
989
989
989
970
936
888
831
811
782
715
629
583
548
490
423
370
303
249
205
188
186
189
203
218
247
259
265
277
265
256
269
284
293
307
325
373
403
399
384
386
392
405
414
412
397
382
388
418
448
452
460
422
375
359
368
375
388
379
359
368
420
450
439
424
431
443
436
436
445
439
415
385
394
434
453
441
447
437
441
447
436
434
438
444
460
465
454
423
426
444
461
458
463
477
482
473
450
440
429
414
418
456
482
502
502
476
459
449
444
482
497
493
485
481
489
529
562
554
518
495
472
474
471
469
488
526
550
541
533
513
489
464
466
491
494
475
463
465
478
489
490
492
514
508
493
493
478
466
478
483
491
509
533
542
555
547
544
518
514
519
530
567
563
548
568
582
573
564
552
549
554
558
557
562
574
574
568
562
564
573
594
598
587
584
574
567
547
510
501
516
530
565
614
637
620
578
554
581
595
588
598
608
607
600
580
575
587
605
608
596
574
565
581
579
554
535
531
533
530
534
540
517
502
514
510
487
482
497
491
476
464
457
454
463
470
481
489
472
461
459
465
463
467
453
439
446
475
469
451
456
453
452
471
480
478
482
469
446
422
385
387
397
409
419
424
428
418
399
400
399
372
338
347
372
380
385
389
379
379
415
460
466
460
445
425
418
417
408
399
372
359
375
376
404
445
435
428
434
443
441
440
458
465
450
425
385
360
360
390
411
394
378
395
414
431
435
409
398
402
414
430
443
442
418
407
417
435
452
462
455
438
424
415
413
420
448
469
471
454
448
443
441
442
446
438
429
430
430
428
412
401
440
476
485
464
446
435
443
460
465
467
467
457
435
428
454
463
485
501
477
449
433
439
439
431
409
385
392
400
410
499
590
603
567
533
518
502
483
457
440
415
411
425
437
454
475
496
503
472
453
465
474
490
478
448
433
438
438
440
440
448
468
470
460
457
449
437
454
471
488
498
490
469
451
446
448
451
459
469
462
453
454
454
488
492
467
484
486
438
421
414
408
434
459
467
463
458
478
512
511
492
490
493
495
490
502
499
471
457
476
473
482
487
450
428
429
432
432
452
467
482
508
533
532
493
488
514
522
522
548
564
546
524
496
462
436
423
430
448
455
468
468
445
445
476
479
469
466
463
448
434
435
451
458
471
505
516
498
490
509
508
488
493
512
527
531
521
507
488
462
450
469
487
494
508
515
521
530
537
530
502
468
490
499
487
505
530
533
516
478
422
412
438
431
410
426
447
473
477
485
502
546
538
484
448
450
454
470
472
457
451
452
451
446
446
447
432
426
427
427
437
478
522
523
503
483
454
434
440
447
463
474
462
453
429
458
479
483
488
481
483
459
451
458
458
469
467
441
431
418
407
426
462
456
449
446
439
424
424
439
449
464
481
499
525
560
602
637
664
681
722
772
805
820
862
891
916
926
960
989
989
989
988
988
988
988
988
988
988
988
989
956
908
861
826
780
731
659
583
530
474
427
371
308
257
201
168
156
154
179
200
200
210
231
241
248
257
267
281
291
311
323
339
353
369
378
374
379
346
350
383
401
401
387
362
357
382
388
407
401
390
382
391
437
480
476
449
433
416
403
406
418
420
410
421
441
455
445
442
432
412
401
429
412
389
380
384
422
448
454
455
452
457
464
452
447
443
441
449
457
451
461
473
479
494
502
499
488
455
429
422
432
453
456
455
459
483
488
477
471
482
497
506
502
494
491
494
474
453
461
466
449
447
494
518
511
504
496
496
506
492
480
473
494
531
500
469
487
524
536
536
522
508
520
536
555
560
547
540
537
537
527
511
489
476
514
558
569
589
587
563
521
503
521
535
538
543
541
554
563
545
531
533
543
536
543
567
603
588
576
575
576
578
575
556
553
559
566
589
604
609
596
588
600
614
614
606
593
597
606
608
614
619
595
538
522
551
559
570
576
585
595
592
567
537
520
524
498
499
520
530
546
536
521
523
522
502
509
523
525
499
493
484
484
482
470
459
463
456
451
464
463
476
490
488
476
454
422
412
419
421
409
403
408
409
386
370
361
348
374
419
455
468
454
459
449
418
414
412
398
376
366
369
401
415
412
420
415
390
374
370
389
399
393
369
361
385
414
428
427
421
430
436
432
425
411
394
380
379
390
433
437
405
394
399
415
424
423
418
435
439
425
412
427
442
460
466
470
460
445
445
461
438
409
410
395
383
388
408
424
432
430
435
450
440
440
441
440
426
410
391
374
367
376
417
451
459
452
452
446
460
472
463
449
445
435
440
436
448
492
505
487
460
441
416
397
413
458
513
527
512
491
467
478
473
460
436
436
452
445
425
410
404
420
441
448
486
499
503
486
467
471
471
470
458
462
480
500
503
486
465
451
446
435
433
441
457
478
495
488
482
474
477
476
467
463
455
465
469
459
447
445
465
493
490
467
446
445
474
499
484
428
446
463
448
440
440
442
453
449
430
405
409
423
454
461
463
474
489
516
531
522
503
478
462
447
459
477
484
483
481
480
474
480
471
438
415
421
442
483
527
506
466
450
445
466
467
450
454
464
472
487
482
462
444
425
440
455
459
484
492
470
457
454
469
488
489
485
485
479
474
477
477
478
470
463
460
465
462
472
488
491
494
494
496
475
469
485
504
508
531
532
521
515
507
479
457
475
506
522
534
538
516
493
495
485
471
461
456
458
466
490
513
533
528
516
521
521
521
502
521
551
548
532
510
478
446
430
440
484
507
502
497
501
496
491
487
473
473
480
478
488
483
449
431
435
432
408
408
411
439
449
458
485
480
481
493
495
477
467
473
480
479
467
464
457
451
451
461
469
455
446
447
463
485
493
493
484
483
475
440
407
408
422
446
465
494
521
511
491
475
450
432
427
433
446
459
490
506
510
493
468
460
481
504
526
527
535
567
597
637
692
756
817
860
888
895
915
947
975
989
988
988
988
988
988
988
988
988
988
989
989
989
987
940
860
772
689
638
590
529
472
424
374
298
203
129
114
119
133
161
190
217
217
233
239
234
259
287
292
314
317
309
317
355
378
381
388
389
371
364
374
384
391
387
396
404
410
416
416
414
420
404
409
404
387
391
416
442
470
478
464
451
426
407
405
410
396
372
354
369
408
432
448
468
490
507
492
472
439
401
390
427
449
443
453
448
444
460
475
471
456
449
458
468
482
501
489
455
451
477
488
487
479
452
438
435
434
443
469
487
493
503
521
518
511
500
479
451
434
448
492
503
494
511
526
520
508
514
525
527
532
538
507
499
526
512
478
454
470
477
494
499
500
502
506
502
518
519
512
514
504
514
527
560
584
565
533
538
555
555
552
540
531
535
550
563
557
545
533
527
522
529
554
587
611
635
611
585
574
573
565
568
585
603
621
621
615
611
619
600
572
565
567
569
563
590
611
608
614
592
581
586
585
556
552
539
521
531
570
572
547
536
535
526
526
511
499
505
532
565
590
577
584
586
563
511
499
495
490
503
499
491
481
482
479
451
443
451
468
461
457
450
426
431
456
458
443
430
441
460
463
461
461
462
464
436
395
387
390
406
396
364
390
423
432
423
406
416
448
433
415
409
398
394
399
406
412
406
417
423
404
384
360
369
386
402
415
416
439
445
413
397
400
402
393
378
363
359
369
386
423
446
441
440
427
418
407
399
405
434
490
486
454
413
395
397
408
412
418
410
409
433
461
483
477
449
422
419
435
426
431
428
415
410
407
392
396
414
421
439
485
510
506
507
486
466
447
421
405
427
455
460
461
475
477
467
461
455
436
432
450
470
468
457
450
466
457
433
438
441
436
416
428
450
447
448
446
439
428
458
470
487
488
477
464
441
436
474
485
457
457
468
468
471
478
477
464
457
461
470
465
448
448
475
466
449
457
462
451
446
442
439
448
471
491
495
485
473
461
451
434
417
409
415
425
435
444
456
459
465
467
468
457
445
428
410
420
482
504
524
513
488
466
471
483
505
521
505
482
486
481
459
440
425
431
467
493
491
490
466
456
454
462
468
465
461
447
454
474
499
488
475
468
470
494
497
455
407
413
437
464
482
479
479
492
495
481
460
452
452
459
483
483
476
468
465
467
475
467
446
450
475
497
498
497
503
491
483
490
489
500
510
502
490
480
444
408
413
460
485
513
537
507
483
501
516
515
499
499
522
536
528
491
473
473
468
462
465
472
473
477
492
496
496
495
507
531
524
491
479
484
490
487
485
490
502
523
536
523
491
484
489
514
522
508
516
521
498
477
483
508
516
505
489
494
513
508
511
503
459
431
451
450
443
439
438
428
430
439
442
464
470
454
444
420
415
448
445
431
418
429
463
503
501
497
495
503
506
489
489
494
500
498
469
465
495
465
420
427
457
516
539
540
523
487
461
446
434
444
474
484
479
472
456
437
443
450
458
447
439
457
469
461
451
442
439
476
521
559
573
574
561
554
572
600
659
748
819
856
896
908
896
899
942
978
990
989
989
988
988
988
988
989
989
985
930
889
841
767
718
690
660
624
611
561
515
464
411
347
252
195
194
184
168
163
173
200
227
219
212
200
202
211
226
293
350
366
371
366
360
369
390
394
393
386
387
394
413
443
457
455
426
400
394
398
404
384
360
384
401
413
439
446
429
425
416
408
422
428
444
449
443
433
427
446
466
473
470
467
470
486
492
462
428
418
433
474
481
455
430
417
410
421
446
453
491
512
518
510
487
487
487
463
456
458
452
447
471
475
464
453
443
434
438
452
469
474
472
498
539
550
561
564
550
539
540
553
538
511
514
523
507
506
514
492
485
500
528
530
507
492
480
448
440
470
493
512
506
494
494
505
512
522
530
556
573
575
562
536
519
521
534
548
555
553
554
575
557
532
540
559
569
556
546
547
556
570
596
587
581
584
539
514
550
587
620
627
631
615
596
591
591
577
556
567
565
569
612
631
627
618
607
573
562
570
560
558
579
604
601
578
552
544
540
555
576
584
587
580
568
577
577
567
556
547
542
531
516
518
526
517
513
495
468
448
425
429
465
503
525
525
495
462
479
493
491
490
492
460
439
446
443
440
442
439
429
447
465
473
467
453
420
398
381
381
390
366
346
328
343
372
380
394
399
384
381
386
372
350
340
342
369
421
439
426
407
388
406
421
448
459
452
441
437
437
419
406
412
427
419
402
373
353
345
350
394
435
447
460
470
460
459
465
485
470
447
431
431
425
415
403
402
416
429
425
419
413
394
374
394
441
459
465
460
459
454
438
421
417
415
414
431
454
469
484
506
502
465
428
429
434
416
408
420
440
433
426
441
459
456
458
455
463
466
476
467
445
431
430
450
451
445
464
459
399
369
390
418
488
520
516
505
492
467
453
429
436
450
454
453
449
457
493
511
503
500
539
552
526
493
457
445
456
456
458
465
477
479
483
480
474
479
457
422
406
419
435
451
475
483
486
497
494
478
450
429
432
421
426
436
444
453
473
470
479
494
497
482
480
476
442
421
421
447
443
420
419
422
440
455
460
465
469
476
482
499
527
516
496
475
450
442
445
471
476
482
477
464
450
457
459
458
480
496
486
502
526
506
502
514
504
486
482
488
480
437
407
415
445
485
502
498
489
484
491
515
514
510
509
499
489
498
494
496
497
477
459
441
435
444
458
475
511
562
561
545
539
550
566
542
530
528
507
501
497
489
501
520
525
515
502
499
472
465
461
471
470
461
453
441
446
479
485
486
493
483
463
458
456
477
499
506
483
467
450
420
424
448
441
454
445
433
434
444
449
454
458
477
476
470
456
454
490
515
518
504
473
495
517
485
451
440
436
443
456
442
433
451
462
468
503
533
513
480
477
481
476
469
453
419
405
422
434
440
449
470
484
484
483
487
488
505
541
567
556
535
549
580
627
683
731
771
810
853
884
896
908
918
942
980
989
989
989
989
989
989
989
989
972
943
899
854
830
800
729
651
619
582
522
488
452
403
337
261
188
155
142
163
178
171
165
192
237
278
295
279
266
274
293
293
297
308
314
329
351
371
386
412
413
385
373
376
401
427
454
456
455
451
432
407
422
456
476
482
466
464
464
429
387
378
386
404
428
427
440
447
442
438
448
447
436
433
430
427
435
474
499
482
450
430
441
451
462
468
452
439
438
456
488
483
469
462
436
431
457
457
449
454
449
448
468
490
504
494
486
501
489
479
480
499
509
500
482
499
509
494
448
430
429
452
498
534
525
516
525
530
554
567
570
549
529
537
512
492
497
514
528
527
519
512
501
503
509
498
505
520
535
532
526
497
522
550
534
513
531
546
546
546
560
574
575
563
568
585
594
585
570
550
555
574
578
578
581
574
570
576
587
594
596
583
578
598
618
620
612
594
577
572
562
553
543
545
540
538
544
547
561
575
557
552
555
556
573
600
584
543
527
530
512
517
549
582
606
603
605
592
563
529
521
535
587
606
565
526
493
499
515
526
548
542
514
477
463
467
473
472
496
526
514
477
430
383
363
382
416
433
468
485
459
428
416
426
442
429
422
436
433
408
390
386
384
417
448
467
433
397
383
375
388
405
390
388
415
399
364
347
340
338
363
416
423
414
406
401
394
390
395
400
392
393
391
380
387
400
408
415
413
374
343
348
383
419
470
482
463
451
435
437
443
458
448
428
420
420
446
477
491
478
435
423
436
441
429
422
430
443
449
450
443
436
445
445
429
416
443
452
443
441
462
476
480
469
442
407
392
403
422
431
423
436
461
472
470
474
458
431
424
434
453
456
440
439
439
430
438
453
466
468
504
493
453
452
455
439
429
430
444
452
437
428
419
418
438
446
469
470
471
477
466
457
455
467
483
497
479
461
463
484
489
461
446
447
448
435
450
486
485
468
473
490
488
493
482
488
499
492
483
458
446
443
471
492
495
477
452
438
419
418
443
466
482
493
495
479
455
444
445
437
429
443
448
438
434
437
441
445
450
462
463
467
459
474
487
508
516
485
453
438
428
422
413
419
465
502
508
506
505
490
477
444
424
437
465
475
488
527
546
534
512
495
494
501
495
483
498
504
501
499
492
489
489
462
431
420
432
449
466
474
464
466
480
494
493
490
467
448
446
426
426
450
481
502
523
537
531
521
506
507
513
507
485
475
465
457
474
487
488
489
495
490
467
456
472
489
470
448
455
457
445
449
463
485
481
479
499
538
539
521
510
498
485
487
499
513
537
551
534
505
467
439
442
481
510
522
499
467
443
439
501
541
557
546
536
524
509
498
493
489
479
468
462
463
443
443
442
436
466
518
526
503
499
511
531
504
475
463
474
486
474
467
467
468
468
469
473
476
464
466
461
451
448
435
448
465
479
492
496
469
454
476
475
459
447
448
462
485
476
463
461
448
429
432
425
413
435
480
503
503
482
463
456
466
466
463
477
480
479
494
501
513
542
585
636
685
714
748
775
764
764
790
851
910
959
989
989
989
989
989
989
989
989
989
989
989
989
971
917
839
817
803
761
697
641
585
520
462
397
328
265
246
233
207
181
187
200
201
208
202
200
231
278
302
313
313
309
315
330
367
407
422
412
397
377
378
379
371
374
378
413
441
437
426
430
432
414
417
443
461
445
441
419
386
391
416
432
416
389
370
378
395
393
400
411
455
464
473
488
474
461
471
474
468
464
455
449
441
433
424
436
448
467
481
469
433
412
401
393
397
402
443
458
467
492
506
501
505
526
514
506
516
523
523
522
515
506
487
474
466
446
462
477
495
516
507
505
488
463
451
456
479
497
514
526
521
518
510
497
483
497
516
515
518
516
518
528
528
519
521
513
496
494
501
479
495
535
523
521
547
557
549
539
534
541
545
543
553
572
577
576
581
563
549
557
572
583
607
615
596
571
569
582
584
586
586
564
552
567
594
590
573
586
597
575
575
589
585
573
571
579
587
595
588
567
539
539
557
568
566
557
578
622
671
648
619
585
557
540
528
536
545
575
596
573
532
521
527
521
540
558
558
540
519
509
498
495
488
494
530
536
487
449
430
417
419
454
449
449
451
438
445
457
452
432
418
407
414
426
448
463
445
425
425
426
418
399
389
397
429
435
416
408
395
412
424
425
433
425
403
406
401
368
331
316
326
353
370
387
426
431
410
411
416
420
423
431
425
417
432
420
398
361
369
377
384
373
391
457
475
467
460
446
445
446
415
389
388
403
426
444
451
466
484
447
421
442
464
449
421
418
426
425
418
418
424
426
413
405
432
458
454
451
448
430
424
425
423
428
436
455
445
440
446
455
471
453
444
464
483
479
463
440
426
410
404
397
408
430
452
490
498
479
465
470
468
450
435
427
453
466
483
503
496
477
449
434
452
481
482
466
466
456
444
433
426
417
413
434
469
486
497
489
447
424
429
460
525
542
541
519
477
463
459
443
427
435
443
445
453
449
444
442
450
426
432
494
510
508
486
467
464
470
474
463
456
458
460
475
483
466
451
465
487
486
481
474
478
478
461
445
435
457
464
465
472
492
506
498
484
479
468
471
482
475
502
515
486
441
408
386
384
412
463
495
495
476
459
453
455
451
451
458
467
461
460
457
470
470
471
492
508
511
502
474
443
433
443
477
526
554
526
503
499
484
471
452
438
462
479
482
506
518
516
507
494
502
487
464
438
445
498
531
539
533
519
500
464
445
459
465
471
494
533
549
536
518
503
499
507
521
535
536
542
532
516
503
496
495
485
473
483
501
501
499
491
475
465
469
455
439
446
450
445
449
457
446
445
445
448
446
477
500
500
487
467
466
490
499
450
430
428
427
431
437
457
478
473
453
448
455
479
512
513
487
467
467
450
448
468
493
495
460
426
412
414
431
471
488
466
456
467
490
503
505
497
490
485
481
476
451
426
423
427
437
440
453
449
455
495
521
515
516
505
495
519
555
590
623
649
693
730
771
812
842
865
899
946
978
990
990
989
989
988
988
988
988
988
989
989
989
965
924
886
846
804
752
679
606
567
531
469
404
331
271
222
181
149
151
167
173
173
169
180
244
284
291
285
286
296
319
325
333
354
372
379
379
383
377
376
375
371
379
366
366
380
412
421
416
401
402
391
384
382
382
378
384
428
448
419
406
428
458
475
478
476
463
445
447
457
467
475
481
491
480
465
465
454
435
425
431
448
472
487
481
459
448
445
448
455
445
440
444
445
458
484
497
474
466
463
443
421
421
434
438
447
463
470
471
470
473
479
486
493
491
486
498
491
480
495
503
506
503
502
515
509
441
370
380
457
514
502
473
478
513
544
552
512
502
535
530
507
503
509
522
549
554
554
542
543
537
524
497
492
497
498
530
555
573
603
620
609
581
550
512
508
523
550
582
600
594
591
579
561
530
532
563
590
612
622
611
603
605
604
600
600
582
566
570
574
555
567
578
578
587
580
591
595
574
575
598
609
595
576
555
534
521
539
571
587
600
592
580
562
549
536
530
539
568
588
574
534
508
503
504
519
523
530
539
523
497
474
472
491
470
469
508
528
525
495
448
455
453
419
392
391
422
435
427
417
400
377
382
392
429
463
468
469
474
469
443
425
422
404
387
386
394
398
391
373
370
395
422
434
422
399
378
368
355
361
390
402
403
399
419
435
423
415
411
401
396
387
383
391
403
417
411
416
420
424
420
410
404
424
441
444
445
441
435
422
403
376
389
441
466
457
425
383
355
398
450
450
435
406
418
439
438
444
439
442
451
433
420
427
437
442
444
438
440
465
469
464
438
436
450
448
450
447
437
429
433
431
424
417
409
421
453
483
487
474
461
457
447
441
466
470
468
452
443
455
458
454
436
403
427
473
497
509
500
471
440
438
455
457
466
447
426
417
427
447
468
487
498
501
485
472
472
464
454
427
393
409
442
477
505
488
482
485
482
488
480
469
472
467
463
458
438
415
420
443
469
494
478
457
441
433
435
453
476
481
487
486
485
481
496
487
458
422
418
407
417
448
472
468
468
481
483
471
473
478
474
451
436
438
464
479
475
485
477
465
461
471
481
496
484
464
458
451
457
477
478
473
475
473
491
496
500
495
471
453
446
463
476
481
495
493
486
499
510
508
489
469
433
416
448
462
476
476
474
477
482
491
491
497
498
495
489
479
464
465
467
476
492
493
464
412
434
454
472
505
522
506
477
461
469
471
478
483
474
477
492
507
515
497
507
526
533
529
520
518
537
549
544
540
531
501
474
478
488
497
504
512
514
523
530
509
497
508
524
502
475
462
457
444
423
417
439
472
491
495
487
480
469
457
447
439
446
442
447
433
435
492
541
542
508
485
463
440
453
457
451
455
452
474
481
480
479
464
450
463
470
464
457
456
455
456
472
470
459
463
491
516
517
503
487
464
440
428
428
450
472
475
465
447
430
413
396
401
430
465
494
509
490
475
458
447
461
483
510
533
563
608
628
649
696
733
765
835
882
910
925
941
947
975
989
989
989
989
989
989
989
989
989
989
960
924
886
846
824
764
679
590
541
540
489
409
330
233
182
184
188
193
209
217
229
252
251
228
228
244
251
260
274
286
288
294
317
336
340
354
363
369
375
384
404
420
421
420
409
404
397
378
385
404
429
421
405
396
400
397
407
411
403
420
434
423
408
430
471
482
501
515
494
470
467
467
465
459
461
468
440
420
411
400
401
392
402
441
454
438
476
510
513
500
503
523
508
487
473
462
444
442
465
504
526
504
476
465
468
470
461
444
468
495
495
501
501
492
493
497
497
496
485
475
472
471
480
514
528
498
479
478
479
486
495
498
497
493
496
510
525
535
515
501
490
494
496
475
459
460
465
458
481
527
554
563
577
599
596
563
548
548
516
503
524
558
575
573
557
552
562
564
573
592
594
596
615
630
617
588
568
549
540
561
573
578
586
581
573
574
586
595
596
594
581
576
568
574
583
600
610
609
600
599
605
592
572
565
561
556
544
555
563
567
545
538
558
577
586
578
565
558
549
542
536
547
553
545
513
489
489
473
483
526
541
538
519
488
465
469
460
452
446
451
452
450
460
453
449
468
462
460
456
444
426
432
437
426
410
410
399
378
379
405
435
457
462
432
398
393
399
422
427
427
420
406
392
394
400
394
374
342
329
339
326
336
376
445
496
466
426
407
415
425
426
434
444
448
429
416
408
397
393
403
416
410
393
390
388
378
383
399
409
406
400
405
416
412
418
428
426
399
395
403
407
393
388
410
440
508
512
481
467
466
452
439
429
429
433
419
429
423
420
430
441
450
458
451
435
437
428
426
426
425
414
427
436
435
425
428
453
484
488
488
487
493
492
487
480
474
468
467
456
448
443
424
412
401
391
430
505
511
479
470
469
449
437
441
434
433
439
454
455
457
481
486
494
483
467
462
452
444
447
440
437
454
485
505
494
461
441
422
422
475
491
495
483
473
484
498
483
475
477
468
483
483
484
475
462
460
472
495
490
469
459
457
423
414
422
428
420
407
411
452
491
492
494
498
480
474
507
526
514
492
472
472
468
463
460
462
469
481
488
481
455
422
412
419
423
435
479
517
518
478
436
405
420
469
506
503
470
438
433
435
435
448
458
472
482
488
499
504
492
484
485
487
485
479
476
483
469
446
425
447
493
498
498
488
501
524
522
501
495
486
478
491
504
506
498
496
480
471
467
460
462
510
563
533
479
470
471
479
503
520
514
490
509
537
532
509
492
484
472
462
461
468
493
503
488
492
515
523
521
522
531
530
519
500
487
497
508
505
491
468
442
410
397
424
479
503
484
466
451
455
475
489
486
475
462
460
470
475
466
462
470
456
436
442
453
472
475
479
472
469
464
472
466
442
434
457
477
469
471
480
497
507
489
467
472
466
464
473
476
475
473
460
465
461
443
418
403
409
418
425
419
414
438
461
461
466
467
482
474
473
503
540
553
555
553
567
610
658
715
759
786
821
849
903
960
989
989
989
990
989
989
989
989
989
989
990
978
939
890
843
798
764
730
667
614
580
539
483
424
361
314
265
227
195
175
168
172
180
196
200
191
198
231
268
280
276
283
283
295
307
312
328
368
413
428
425
416
380
370
391
387
374
356
369
407
421
395
378
405
440
435
416
407
426
455
466
454
441
455
471
464
456
458
449
447
439
448
442
423
403
406
410
392
373
399
444
450
473
487
485
475
485
484
469
463
481
492
469
453
448
462
493
516
508
477
448
445
443
446
457
486
498
496
485
487
515
516
501
496
492
491
474
474
458
448
444
436
427
437
456
474
482
496
505
509
503
532
552
556
549
552
560
535
504
492
492
494
500
490
481
483
490
479
462
468
494
533
567
580
569
545
533
520
524
546
561
556
555
559
572
575
546
532
529
518
545
581
594
583
581
582
585
588
592
590
585
586
581
569
562
559
556
567
568
584
597
599
591
585
580
588
588
590
584
557
528
530
551
575
586
599
623
627
608
581
586
571
567
542
512
504
506
544
559
556
547
551
540
547
555
551
567
556
541
507
492
505
553
560
544
529
489
466
451
457
460
458
454
417
386
412
417
419
445
465
471
462
435
423
442
443
428
423
436
444
419
385
374
384
388
386
388
369
370
371
382
388
400
407
395
378
373
384
373
387
424
433
417
397
402
391
370
370
369
376
390
409
429
431
416
418
441
462
450
423
402
406
412
443
415
382
394
424
430
431
421
416
423
434
431
426
427
430
435
437
417
400
408
411
404
406
418
414
415
391
398
431
438
440
457
473
474
495
489
482
463
442
435
432
415
393
391
389
426
435
418
418
426
438
442
429
419
448
485
489
474
465
462
459
456
452
436
416
415
414
443
496
525
498
483
479
470
473
480
486
477
450
432
428
428
449
445
437
444
456
484
499
496
484
481
465
468
455
431
418
407
433
456
467
461
451
443
454
456
476
510
492
437
402
428
452
467
462
457
440
425
404
399
426
445
459
496
509
474
475
469
458
455
461
476
487
499
494
484
483
477
472
466
453
456
465
453
441
430
429
438
468
495
494
483
466
451
457
474
484
488
487
492
482
450
423
418
443
460
440
439
475
512
521
511
500
494
475
461
462
461
443
474
508
519
522
512
499
494
475
459
430
432
463
489
490
465
452
463
463
429
415
434
473
500
504
497
503
511
504
493
468
449
455
505
546
536
516
500
503
514
518
516
511
497
480
484
499
521
535
528
515
516
524
530
535
541
542
539
540
534
514
500
485
485
486
482
474
479
485
490
493
479
457
411
372
378
404
443
474
479
468
460
460
478
480
453
444
458
463
463
462
473
470
459
459
485
515
517
507
478
457
460
469
470
455
436
432
446
450
436
439
447
464
479
473
463
456
457
449
431
394
402
460
517
529
501
494
471
451
462
463
477
483
464
445
444
454
463
459
453
444
433
451
471
477
509
546
568
584
609
643
689
735
779
819
842
854
861
877
894
934
981
989
989
989
989
989
989
989
989
989
989
957
900
861
829
788
722
658
605
580
546
474
405
351
296
227
181
171
185
193
206
206
230
268
293
280
238
216
224
232
246
259
285
303
331
357
374
354
332
334
396
463
479
495
488
469
451
454
427
406
422
427
420
420
421
417
410
406
414
416
414
420
414
414
422
423
408
397
405
425
454
470
467
483
476
473
445
428
432
454
453
467
472
439
420
414
419
441
481
503
501
475
452
467
501
501
485
477
476
468
463
467
465
463
467
462
463
457
450
460
464
462
477
523
535
519
513
514
495
495
488
450
413
387
387
411
464
503
515
528
534
532
519
518
523
513
496
494
490
470
439
430
458
482
507
534
547
531
515
511
525
549
543
537
534
533
535
537
541
548
547
565
559
552
564
562
540
525
546
572
605
623
627
606
573
563
559
550
556
567
566
558
538
540
551
560
580
585
589
592
593
582
562
574
590
584
568
556
552
567
572
576
566
558
574
598
610
617
623
616
576
544
540
553
577
578
562
553
555
560
567
554
533
535
537
526
499
476
485
509
507
508
531
541
510
461
449
425
422
434
456
491
491
450
395
381
371
361
421
443
428
423
424
418
394
378
393
394
386
387
410
414
410
406
419
416
398
387
389
401
409
407
397
398
408
413
417
432
443
419
396
377
358
356
374
373
379
401
428
420
399
384
394
402
406
415
397
387
391
416
415
414
424
456
477
462
427
413
420
425
411
399
421
464
460
449
472
468
424
400
394
397
414
449
466
457
445
435
427
431
445
444
433
418
408
392
393
421
445
441
446
456
442
435
435
424
433
464
470
458
459
456
466
462
444
447
434
445
461
454
436
445
439
440
420
388
384
442
475
459
445
433
441
468
458
438
450
471
455
455
469
457
440
424
426
442
475
512
529
509
481
470
486
492
482
463
439
431
430
413
447
491
489
477
461
456
453
468
469
453
448
463
471
469
459
449
416
408
423
437
438
446
469
475
464
466
471
473
477
478
474
480
469
459
459
465
453
440
466
474
468
459
456
445
453
472
475
471
457
438
428
433
444
460
456
435
434
467
491
496
526
536
509
485
483
494
495
492
499
520
524
517
512
491
465
435
458
489
498
479
463
454
470
488
483
484
494
521
499
457
461
495
495
461
443
441
447
460
469
473
496
507
482
448
435
442
467
472
489
496
461
453
473
482
473
478
524
544
555
556
534
512
518
524
505
489
481
473
473
487
511
532
535
522
517
528
527
494
470
471
483
471
454
454
451
447
460
459
453
435
434
437
443
448
468
489
500
478
454
419
395
426
483
506
531
512
470
446
452
470
503
502
483
460
450
446
449
453
470
515
514
500
490
484
468
458
475
488
498
488
465
438
429
435
441
436
434
448
447
441
428
421
440
408
418
433
404
408
426
485
523
516
504
502
509
522
558
624
635
635
671
721
749
774
808
822
853
921
964
990
989
989
989
989
989
989
989
989
989
989
989
989
963
918
879
852
810
744
652
590
549
497
398
318
260
200
146
104
101
171
244
258
249
246
236
239
260
277
288
297
310
323
336
345
347
348
358
385
423
447
458
469
465
461
430
381
355
344
370
390
376
366
394
416
428
430
432
400
366
390
393
405
423
440
426
400
397
410
437
442
415
400
422
457
471
482
480
462
459
450
451
457
466
484
499
489
468
448
443
446
453
459
460
464
475
494
474
428
412
404
402
448
479
475
470
468
466
472
455
452
450
445
434
422
429
438
453
463
468
464
463
484
508
543
538
516
512
515
515
493
475
477
488
487
486
504
546
567
528
493
494
497
486
471
471
480
484
486
477
489
519
534
532
523
519
505
509
520
558
588
594
591
586
572
557
542
525
536
549
554
550
546
552
574
590
591
575
561
568
577
579
580
577
574
564
567
574
570
562
570
586
578
573
613
633
613
583
538
543
612
627
604
603
607
580
536
535
570
602
611
598
572
556
556
561
569
565
550
509
478
490
509
528
535
529
528
518
514
503
498
494
465
461
475
472
461
474
473
458
443
419
402
408
433
460
465
455
435
446
449
432
438
419
409
403
391
407
465
480
462
440
394
351
343
345
339
368
396
400
381
367
373
376
384
388
404
407
407
405
420
427
426
426
430
442
415
403
398
406
413
409
385
367
359
336
328
369
414
441
449
439
416
416
448
487
496
485
449
435
429
449
469
475
459
441
425
415
405
393
398
403
414
417
407
413
430
449
444
454
475
450
422
422
433
459
465
433
409
423
412
387
394
411
422
423
425
442
457
473
457
459
452
433
425
426
416
433
454
446
435
430
419
428
439
443
444
451
456
442
442
439
431
442
423
400
426
455
449
454
442
430
435
441
478
478
435
412
403
396
396
414
446
473
493
492
502
516
511
497
494
490
477
473
478
482
483
476
486
496
494
477
474
488
485
450
406
412
433
448
432
434
460
461
455
453
456
455
478
499
500
497
483
466
463
468
466
473
466
464
470
468
471
461
452
459
450
437
467
482
473
467
466
487
508
504
485
464
437
431
438
446
456
476
481
467
458
470
497
494
467
441
429
407
414
451
492
513
506
524
521
516
495
456
443
455
476
489
496
492
516
542
540
528
521
523
533
558
555
535
513
484
476
497
514
523
540
532
516
512
530
544
529
498
480
493
493
492
485
490
497
492
475
464
467
483
497
495
481
462
444
428
415
419
425
427
432
425
426
433
447
472
475
465
452
437
430
447
480
495
492
475
463
446
450
457
464
473
474
472
438
422
450
466
497
528
498
455
456
461
485
497
466
449
444
464
497
504
495
482
451
437
443
437
433
449
442
450
466
461
458
464
476
498
510
522
532
542
554
564
572
574
586
627
673
711
759
822
852
907
963
990
989
989
989
988
988
988
988
989
988
988
989
989
986
941
899
857
800
730
679
623
562
490
432
386
332
270
217
175
161
169
191
200
192
177
191
233
250
262
264
270
295
326
348
361
355
352
354
363
378
400
429
454
465
451
406
393
373
379
388
402
406
413
416
413
406
383
370
363
365
396
420
420
419
451
452
429
417
416
415
434
437
435
440
447
441
438
432
419
422
432
431
460
490
492
487
490
502
489
473
480
495
487
474
463
453
447
431
435
446
447
445
469
506
505
481
455
443
448
456
458
449
429
432
438
441
453
477
483
476
460
454
459
450
433
451
479
506
505
509
502
503
507
510
503
489
493
508
525
534
522
510
489
483
495
513
508
498
504
500
538
558
561
548
535
532
529
531
545
553
532
510
491
465
465
497
569
605
620
619
601
598
591
566
554
546
557
588
614
614
601
599
572
550
541
550
553
569
575
579
575
578
583
578
582
598
600
590
577
563
560
556
551
568
581
592
590
572
544
522
522
531
547
571
576
595
584
548
530
509
508
523
538
535
533
536
531
507
494
478
444
432
437
465
486
484
488
476
463
470
451
444
443
451
440
429
419
415
413
407
416
437
451
425
395
409
427
433
432
414
402
399
395
401
418
415
409
397
382
349
357
374
385
428
465
460
432
414
396
386
395
420
443
449
432
429
424
421
402
366
352
353
364
391
429
440
435
424
435
454
454
461
454
443
433
409
396
399
396
414
434
428
405
387
407
409
402
421
461
474
462
444
435
433
464
470
443
417
404
418
436
447
473
467
429
431
461
474
464
408
371
396
425
440
455
458
447
439
445
454
442
442
456
453
432
445
469
473
477
480
473
460
435
408
430
462
469
475
473
463
450
454
456
451
431
412
397
377
381
415
456
503
503
494
496
490
502
532
513
466
452
461
492
518
515
490
458
445
442
450
454
460
453
447
447
431
422
453
471
463
459
467
478
461
440
438
435
447
464
471
468
479
487
498
529
533
494
461
423
402
427
440
450
462
479
486
463
417
409
421
453
471
481
482
468
463
456
456
476
503
495
482
490
488
482
471
482
495
468
452
455
465
460
476
473
477
488
484
467
473
502
527
514
482
465
492
515
520
520
543
539
501
472
457
460
481
489
483
474
488
495
474
472
493
500
492
472
495
547
545
512
491
480
496
484
474
471
473
486
497
495
490
490
493
498
482
482
489
489
483
489
483
469
476
480
476
466
454
444
438
442
444
462
467
463
464
471
476
465
453
468
497
488
463
432
431
451
461
477
501
493
479
475
462
447
451
460
453
441
435
422
432
464
481
470
464
468
496
521
528
515
496
491
493
489
481
475
462
457
445
433
412
393
393
401
428
447
445
446
454
453
447
440
450
458
471
473
503
575
623
630
647
693
717
733
750
791
846
879
917
941
952
988
989
989
989
988
989
989
989
989
989
989
968
925
891
844
802
749
672
590
533
485
466
446
383
322
261
213
190
180
172
187
203
227
240
234
229
243
255
270
292
315
347
353
347
369
377
374
380
383
395
402
424
440
454
440
416
389
394
374
383
399
395
392
397
403
414
414
407
416
425
446
471
468
437
422
437
457
451
428
428
422
416
420
424
413
413
439
478
487
472
483
498
487
497
500
471
445
442
420
408
412
402
392
391
396
408
431
445
464
487
507
494
475
472
480
498
487
479
464
443
440
473
504
506
499
486
470
464
486
523
534
508
456
440
461
488
509
513
500
478
451
457
494
515
520
515
516
524
509
485
482
481
490
506
494
464
446
487
531
541
532
550
580
570
550
555
562
546
530
538
552
542
520
531
552
558
561
567
579
574
558
555
557
566
576
591
612
612
591
583
582
572
565
563
572
572
574
564
560
560
558
575
587
575
576
591
607
598
572
568
548
529
526
530
539
563
576
566
552
522
498
486
504
574
612
592
561
542
516
496
500
495
489
493
499
522
523
512
486
485
513
515
509
518
501
494
482
465
444
466
462
446
440
438
439
445
437
420
394
383
386
394
405
420
441
439
426
421
429
434
432
407
395
391
383
366
367
378
387
408
424
423
399
398
415
429
441
452
438
416
389
366
350
335
337
351
391
443
478
472
460
449
425
409
410
428
433
421
414
406
387
386
421
447
444
442
438
417
388
391
398
422
424
431
458
472
457
443
446
455
472
503
499
458
441
433
408
410
422
435
461
460
458
470
464
432
407
406
413
416
416
431
433
429
418
439
454
446
437
439
445
450
439
436
424
407
426
427
416
425
444
474
489
485
482
489
493
492
447
405
405
442
472
487
490
481
478
484
493
477
454
426
419
445
458
449
453
506
532
529
490
461
468
484
483
493
483
448
445
447
446
455
452
431
413
436
455
474
478
458
431
419
431
439
455
486
482
465
464
478
474
461
470
480
476
464
450
439
434
432
465
489
482
469
464
465
453
446
467
481
470
446
428
436
451
472
488
492
475
444
426
414
437
488
515
515
497
463
448
459
454
452
460
491
495
513
513
481
466
442
470
511
553
560
533
496
478
476
455
432
450
448
461
500
518
516
496
481
486
486
488
500
506
497
490
487
477
468
458
458
455
455
458
469
480
507
519
524
532
527
506
499
495
483
456
457
459
471
508
500
495
492
490
489
490
484
471
454
441
467
500
509
503
490
473
467
459
453
457
432
403
425
470
487
478
474
477
470
464
463
449
440
440
430
439
464
468
458
474
495
520
531
519
516
508
498
486
479
480
490
497
493
489
483
472
466
454
446
443
453
466
474
473
452
439
435
450
449
453
464
453
444
432
428
444
450
450
463
464
436
436
467
483
480
485
495
498
501
514
521
539
581
618
660
729
772
802
871
920
963
977
989
989
989
989
989
988
988
988
988
988
989
989
990
970
938
878
813
749
676
602
529
470
429
380
321
258
205
165
140
140
155
170
198
221
211
217
231
225
220
245
278
286
294
315
331
344
348
346
354
356
371
373
379
396
401
412
405
391
403
428
432
435
448
454
464
465
435
423
428
429
445
445
414
387
369
371
398
468
515
520
484
454
455
461
457
468
477
468
455
455
461
453
453
441
400
386
428
449
462
473
468
454
450
458
459
448
446
471
483
469
464
466
461
460
472
522
538
509
489
474
452
449
450
458
473
463
447
442
447
455
464
464
461
482
480
471
478
503
513
506
519
519
513
510
505
493
504
521
515
521
522
534
542
551
529
504
484
489
490
475
481
495
490
491
520
546
542
532
520
519
558
568
551
537
532
532
544
573
591
594
600
588
573
576
597
590
576
578
608
617
634
628
609
594
607
607
600
588
583
572
572
568
558
554
564
558
558
568
582
586
585
583
582
568
574
578
573
575
579
569
561
564
551
535
527
525
523
520
513
500
497
508
524
525
515
506
497
478
463
461
465
468
466
465
456
442
451
465
465
489
485
468
478
477
476
457
434
426
437
464
468
448
443
440
414
417
445
436
414
396
410
403
396
386
377
385
381
368
390
403
412
428
438
423
396
391
410
429
431
436
427
401
367
374
402
431
444
442
435
429
425
415
408
411
405
406
420
429
433
436
448
465
463
444
432
415
387
364
353
366
381
391
392
391
408
400
399
439
469
470
456
453
438
417
412
419
435
458
459
458
468
468
460
452
441
434
436
441
438
438
436
419
405
413
427
440
455
457
457
451
440
431
440
459
435
402
383
411
461
499
500
484
455
455
454
450
450
449
465
466
461
478
494
495
489
477
483
476
465
476
491
503
486
471
457
448
444
456
476
473
445
444
472
476
461
464
486
489
476
475
478
459
447
442
433
454
485
492
492
499
498
479
465
440
415
419
423
414
408
413
432
440
431
424
418
429
440
441
462
481
471
465
468
471
478
476
460
440
447
457
452
458
445
432
419
402
419
473
509
523
493
496
510
508
479
442
427
434
441
448
449
469
499
515
509
501
494
490
501
498
478
477
497
478
463
457
458
458
452
446
454
475
471
472
497
508
508
489
465
471
469
463
485
496
497
482
480
483
479
477
480
470
469
483
496
500
509
505
502
511
514
495
485
504
532
543
543
525
515
519
517
497
470
460
463
497
521
520
517
511
507
510
501
496
487
486
478
456
436
446
464
481
456
449
464
470
465
465
454
453
474
491
491
480
466
455
447
436
448
478
493
458
440
452
463
476
480
473
472
486
492
485
464
448
448
440
430
433
449
503
542
538
514
490
474
458
442
447
463
489
484
468
458
465
494
491
473
462
461
460
448
437
440
423
417
443
483
495
498
498
504
515
512
480
451
447
464
487
517
563
616
663
727
782
814
853
864
844
848
879
921
976
989
989
989
988
988
988
988
988
988
989
989
954
911
845
764
707
682
679
656
598
499
407
341
283
230
188
141
127
142
162
183
198
211
222
238
251
261
268
286
302
305
314
320
316
315
340
364
384
401
430
436
429
413
398
410
422
402
397
408
393
371
365
381
395
395
395
400
405
401
405
395
404
420
433
438
436
439
446
467
455
429
426
439
436
423
416
430
431
426
437
441
435
438
445
439
430
427
431
439
454
486
499
486
458
453
479
481
472
474
481
474
457
465
481
496
485
464
465
457
437
435
448
457
458
453
461
469
480
491
492
469
449
448
443
439
465
483
503
533
552
556
527
536
579
602
578
539
535
546
554
542
515
540
573
578
567
558
543
528
517
526
534
541
554
553
557
573
576
565
569
578
581
571
562
537
527
534
552
553
557
575
585
569
565
576
586
603
591
595
616
605
574
550
533
538
551
557
561
562
558
564
560
535
498
550
616
638
634
660
657
640
623
608
577
566
554
547
554
555
534
517
515
505
499
501
494
502
515
520
525
521
511
519
531
527
523
513
512
542
529
496
463
451
475
499
502
508
512
499
477
462
463
460
452
441
437
437
438
434
441
449
447
435
418
398
393
396
383
386
381
368
375
388
407
421
422
418
423
417
409
417
418
409
407
403
400
386
376
387
400
394
362
359
381
408
413
408
413
405
400
402
431
436
425
421
417
414
402
401
401
409
423
447
482
485
475
439
400
389
384
378
397
434
472
481
453
408
382
408
438
447
444
446
460
466
452
443
423
399
392
427
434
434
480
525
511
471
436
413
425
448
459
480
497
485
456
446
446
452
465
470
469
466
464
458
460
453
462
465
447
429
427
439
457
479
486
480
482
458
431
433
435
454
474
465
452
430
448
466
467
455
442
437
441
441
445
461
450
427
409
404
404
406
434
477
486
475
472
476
467
446
419
413
391
385
425
494
515
522
542
547
527
509
484
471
464
485
499
475
451
444
445
447
470
482
494
497
464
436
436
453
466
473
472
455
438
435
452
463
465
448
417
416
432
449
465
460
445
448
456
491
514
497
486
477
466
473
473
464
458
455
463
472
506
514
514
500
477
464
466
485
501
483
451
436
440
441
437
463
479
502
496
489
505
509
513
498
485
494
505
502
487
454
426
419
397
416
453
509
548
548
529
507
492
493
497
495
485
500
520
521
535
535
514
501
479
477
486
511
536
533
517
511
518
540
550
513
489
478
484
487
485
473
448
421
404
414
465
491
515
504
490
479
483
501
522
503
477
491
498
476
457
447
451
436
405
403
426
470
482
486
493
497
491
468
457
449
455
462
453
449
452
455
463
469
466
463
462
457
451
449
454
460
463
447
407
387
421
444
461
476
472
464
450
427
389
363
345
361
411
476
516
555
539
517
509
517
540
544
545
567
614
652
678
721
747
777
814
840
861
879
912
960
989
989
988
988
988
987
987
987
987
987
989
989
981
942
888
841
784
707
631
583
555
499
420
335
244
167
114
77
49
62
91
116
159
189
198
217
239
262
274
287
300
319
325
332
321
325
391
432
410
381
382
374
382
389
397
398
376
360
348
329
323
353
408
424
430
438
421
404
391
400
407
414
449
473
469
478
471
453
436
425
426
431
433
427
416
418
418
426
434
447
453
434
414
433
446
435
447
480
485
464
442
442
449
464
478
488
498
502
508
508
508
501
524
539
525
485
450
446
452
447
448
463
476
470
468
457
437
426
455
494
503
479
455
457
489
497
493
499
529
559
558
552
521
491
482
483
489
529
562
556
550
538
532
506
482
460
448
444
453
461
477
489
485
484
504
523
546
551
548
520
502
493
511
560
606
615
597
580
556
540
553
573
587
587
577
578
578
576
567
568
564
556
568
629
669
658
632
621
607
607
604
616
604
585
596
584
573
576
568
561
565
568
575
581
576
588
580
536
498
483
491
504
549
583
574
555
541
550
559
567
572
541
528
542
532
518
521
512
495
494
473
453
446
438
457
463
452
447
453
459
452
452
450
450
455
453
417
410
404
399
400
393
411
442
446
426
388
359
358
374
392
391
372
365
396
402
385
373
414
429
438
427
391
366
373
389
402
417
441
436
409
386
386
416
419
420
422
419
413
403
395
398
404
378
388
427
446
426
391
388
417
448
459
448
432
427
415
408
409
412
428
435
440
438
440
441
432
418
420
436
462
503
509
486
447
421
424
431
413
409
412
416
416
417
416
424
433
435
440
446
445
439
425
426
449
449
444
441
440
436
436
440
427
406
386
377
391
440
479
467
487
498
459
422
405
428
473
486
473
469
456
439
432
456
467
485
478
447
416
418
483
502
505
498
480
457
433
436
457
454
451
469
470
470
461
449
441
432
433
450
469
466
454
438
423
432
441
461
479
494
505
504
489
480
477
466
466
455
470
475
476
465
447
448
446
460
452
455
463
468
475
474
458
453
454
452
449
463
471
456
437
428
439
463
496
501
497
476
461
457
452
447
440
426
389
373
410
449
480
502
524
521
507
488
478
481
485
484
467
467
471
481
479
487
504
530
530
522
512
507
484
461
455
465
461
445
433
444
445
454
464
469
488
493
486
474
476
485
489
491
501
505
510
505
504
523
522
526
536
550
535
517
506
492
481
490
492
499
530
528
485
469
484
501
497
495
494
484
456
448
432
437
458
480
481
467
450
455
446
430
450
467
483
503
509
504
494
491
472
469
478
484
464
453
471
470
448
420
402
392
409
445
461
451
419
395
427
443
427
420
451
481
489
495
513
543
546
513
466
448
455
456
445
442
448
453
452
436
445
441
429
423
422
432
432
437
444
457
460
478
487
492
502
513
543
570
594
623
665
726
790
832
863
898
927
970
989
989
988
988
988
988
988
988
987
988
987
988
989
989
971
943
913
886
838
757
676
608
529
467
392
334
263
196
163
157
148
154
159
158
176
202
207
211
217
231
238
251
260
266
293
332
323
313
320
333
356
401
412
374
344
329
309
298
346
378
392
425
445
437
435
425
426
440
441
438
452
445
417
405
429
442
431
427
425
427
431
432
428
429
418
414
423
425
414
405
408
414
437
461
457
451
451
450
457
467
436
411
432
460
470
466
453
446
441
439
444
453
450
449
471
483
479
476
463
442
464
479
469
484
495
494
479
466
478
486
485
473
478
484
476
473
488
506
510
496
477
461
455
487
524
495
482
510
523
487
483
495
514
510
515
525
536
548
548
542
534
522
532
556
549
526
521
545
567
570
563
553
564
566
576
566
548
551
555
553
562
561
552
540
534
526
513
514
571
626
630
612
589
582
584
587
600
591
582
576
571
575
584
583
576
575
568
563
551
552
569
584
562
550
556
570
563
556
565
576
570
549
548
556
554
538
520
509
497
495
523
544
529
514
501
496
523
557
549
533
514
493
469
450
447
459
473
484
497
493
479
490
477
450
446
460
475
466
465
451
437
415
399
406
393
384
389
412
417
406
402
404
396
401
416
419
413
413
390
357
357
362
361
368
364
375
393
396
401
373
364
363
352
357
370
386
392
397
388
375
365
375
386
414
439
447
453
476
483
458
424
407
402
406
400
377
377
417
441
453
456
445
424
427
447
457
441
421
406
404
433
447
464
479
470
444
420
413
431
432
434
457
487
493
482
478
460
454
447
438
455
447
452
443
438
437
439
438
442
449
448
454
452
456
462
458
450
435
420
427
444
445
442
439
425
402
399
426
443
450
442
450
456
459
465
457
447
445
446
454
460
474
470
453
447
445
456
454
454
442
444
444
449
437
447
471
476
459
445
459
479
483
484
467
441
438
457
472
465
459
463
467
465
462
451
448
448
449
452
458
481
503
506
500
485
475
465
455
447
434
431
452
468
486
496
489
475
467
474
470
474
472
464
459
462
452
444
438
440
445
464
479
492
469
458
462
462
463
477
486
489
482
485
482
482
505
527
524
499
465
459
484
493
480
449
430
427
435
440
449
459
461
450
458
503
543
549
517
484
441
407
416
453
489
518
524
526
530
531
490
471
481
475
463
469
476
499
538
548
531
524
495
484
496
514
523
526
549
577
575
549
532
477
423
426
471
498
496
475
466
454
447
436
453
487
508
501
460
426
425
442
461
468
465
463
454
438
438
460
476
489
479
462
463
477
469
451
462
462
462
461
463
462
459
447
430
426
456
475
456
420
428
500
543
525
484
458
451
458
468
469
475
475
467
463
458
460
442
416
391
384
372
386
448
502
550
543
521
499
489
466
439
440
495
588
645
655
675
721
760
786
819
863
900
936
967
989
989
989
989
988
988
988
988
988
988
988
989
989
955
917
895
875
825
767
698
612
535
476
409
322
237
159
125
128
129
116
120
152
181
194
205
206
210
221
235
250
256
259
277
296
318
346
359
358
356
357
357
365
382
407
421
413
404
414
402
404
428
453
450
459
445
432
414
400
407
422
419
400
400
407
406
423
441
428
402
395
421
447
464
465
456
464
450
436
431
461
500
503
493
470
451
414
398
416
460
483
474
455
430
413
436
466
474
473
478
494
495
472
471
473
462
464
468
466
460
462
471
483
491
492
498
492
487
501
503
488
483
473
467
467
460
447
443
445
449
474
498
512
514
511
506
524
550
555
528
509
502
488
478
480
519
545
532
515
510
516
527
527
494
466
471
486
549
643
641
617
620
592
571
558
560
568
562
560
550
570
589
575
576
586
588
576
554
534
514
501
511
545
567
609
642
647
631
610
598
580
555
545
554
560
577
572
563
563
573
593
604
595
570
565
574
557
526
520
518
509
517
517
516
531
544
530
520
533
546
540
535
541
537
523
505
489
472
467
469
469
480
470
468
466
468
463
446
426
413
393
413
477
475
441
422
423
441
460
478
443
423
416
432
436
417
390
393
390
372
375
382
400
434
440
439
439
431
417
408
399
408
413
396
380
386
422
428
411
423
443
431
419
405
391
379
360
351
350
351
364
383
399
401
406
401
389
411
444
449
434
428
440
445
446
437
427
427
420
416
442
455
437
445
444
431
426
428
417
402
402
402
419
441
455
462
446
428
414
406
402
395
388
408
445
465
477
455
411
418
428
424
441
441
415
426
456
474
500
514
524
521
502
487
481
479
486
494
474
453
451
459
456
456
464
456
425
399
396
414
446
464
471
462
458
449
432
448
464
463
452
445
461
482
471
457
437
417
425
451
479
499
482
451
434
430
448
492
507
499
490
499
490
487
490
473
445
424
398
399
409
406
429
451
462
480
496
500
492
480
455
450
451
441
416
413
445
473
458
446
426
399
393
422
441
456
442
440
457
471
477
485
477
466
469
478
497
516
531
543
541
504
491
464
461
458
444
445
456
464
447
438
439
451
464
480
484
479
477
476
499
505
485
464
464
481
497
497
491
484
486
516
528
525
522
513
476
462
476
489
510
518
486
481
494
497
503
502
502
487
459
440
425
432
457
470
454
446
450
449
462
481
509
495
475
464
474
493
469
440
439
457
468
449
428
416
419
449
464
481
485
452
453
460
452
433
424
432
481
497
533
552
547
506
484
480
476
463
439
436
449
485
499
494
473
454
443
423
425
435
443
436
433
449
459
457
464
478
489
502
519
524
534
554
569
576
573
588
639
681
752
810
832
849
864
900
940
967
990
989
989
989
989
989
989
989
965
946
954
917
865
802
755
716
710
668
603
544
494
444
390
318
228
177
171
155
131
128
137
162
194
205
229
246
262
265
259
247
247
270
328
362
374
428
432
403
400
403
395
395
408
419
433
416
390
386
387
395
431
441
429
427
425
411
412
423
434
429
415
398
391
406
425
448
454
456
460
457
457
470
491
488
479
470
457
440
432
447
458
461
455
459
456
427
405
413
416
436
472
485
471
488
481
464
462
487
492
482
488
483
469
476
502
494
468
461
463
476
481
475
478
480
476
468
453
449
471
497
517
532
527
503
487
488
493
500
486
469
464
488
531
557
545
534
543
533
509
513
523
527
497
474
449
461
500
554
601
611
590
558
556
550
542
526
531
544
554
558
558
561
555
554
557
559
553
548
552
553
570
570
564
567
581
575
554
543
553
568
577
602
610
569
539
544
558
599
621
620
622
616
599
581
571
566
544
537
563
583
585
580
546
556
582
578
563
541
541
559
585
577
556
541
533
527
525
517
504
500
496
499
514
504
493
479
489
510
498
473
484
484
479
477
476
475
488
498
503
491
448
434
439
459
466
420
372
352
377
414
438
430
418
404
391
399
436
447
434
420
409
416
410
399
401
405
384
380
380
377
371
357
386
402
382
363
371
380
397
394
377
385
399
405
426
441
440
436
428
419
408
385
377
388
402
421
430
423
416
418
432
441
439
427
403
383
372
390
386
409
455
453
429
426
441
452
436
405
401
415
432
451
467
464
448
430
418
413
406
413
412
406
393
426
479
508
520
519
514
508
492
474
469
450
428
416
413
411
418
447
480
482
483
497
511
500
496
481
451
442
450
466
467
471
464
439
424
432
438
441
436
430
411
401
412
429
445
447
461
458
481
498
502
498
493
486
483
496
479
454
433
407
425
466
492
494
478
456
455
456
465
470
473
465
440
424
433
460
471
469
461
475
484
485
468
460
460
447
436
438
449
452
464
459
442
436
446
458
475
491
481
474
469
449
440
455
467
465
456
453
465
474
485
478
440
438
457
461
452
442
447
443
433
437
440
467
497
506
491
487
481
466
455
468
473
461
461
454
457
476
492
511
513
497
497
493
485
457
427
435
457
456
452
449
447
452
469
509
512
480
453
440
468
511
531
517
507
518
509
504
526
556
568
559
543
515
502
491
490
502
519
