0.000:524
0.001:524
0.001:530
0.001:533
0.001:533
0.002:529
0.002:528
0.002:530
0.003:537
0.005:545
0.013:550
0.013:549
0.014:554
0.014:547
0.017:549
0.018:556
0.019:556
0.020:555
0.020:558
0.020:549
0.020:549
0.021:555
0.021:555
0.021:557
0.021:561
0.021:563
0.021:567
0.022:575
0.022:575
0.022:579
0.023:583
0.023:578
0.023:578
0.023:577
0.023:580
0.024:586
0.024:585
0.024:585
0.024:587
0.029:586
0.031:587
0.031:596
0.032:613
0.032:601
0.032:591
0.032:585
0.033:587
0.033:592
0.033:594
0.033:593
0.034:596
0.034:601
0.035:596
0.035:591
0.036:599
0.036:605
0.036:605
0.037:602
0.037:601
0.037:601
0.038:604
0.038:608
0.039:606
0.039:603
0.039:600
0.040:602
0.040:601
0.040:593
0.048:593
0.048:598
0.049:604
0.049:597
0.049:591
0.049:591
0.049:592
0.050:592
0.050:585
0.050:582
0.051:579
0.051:577
0.051:572
0.051:569
0.051:569
0.051:569
0.052:571
0.052:573
0.052:577
0.052:571
0.052:562
0.052:560
0.053:551
0.053:549
0.053:542
0.053:533
0.054:545
0.054:540
0.054:530
0.055:516
0.055:502
0.055:495
0.055:491
0.056:481
0.056:472
0.056:459
0.056:457
0.057:455
0.057:454
0.061:450
0.065:442
0.065:437
0.065:430
0.066:432
0.066:425
0.066:417
0.066:410
0.067:405
0.067:400
0.067:395
0.067:388
0.068:383
0.068:376
0.068:369
0.068:368
0.069:358
0.069:350
0.069:343
0.070:339
0.070:339
0.070:338
0.070:334
0.070:330
0.071:330
0.071:328
0.071:325
0.072:323
0.072:322
0.072:323
0.073:321
0.073:319
0.073:318
0.081:317
0.082:316
0.082:316
0.083:313
0.083:304
0.083:303
0.084:334
0.084:310
0.084:301
0.085:299
0.085:301
0.086:304
0.086:308
0.086:304
0.087:304
0.087:307
0.087:308
0.088:313
0.088:316
0.089:317
0.089:318
0.089:317
0.090:314
0.090:315
0.090:313
0.094:312
0.096:316
0.096:321
0.098:321
0.098:325
0.098:324
0.098:325
0.098:327
0.098:322
0.099:323
0.099:326
0.099:332
0.099:332
0.099:326
0.099:323
0.100:328
0.100:335
0.100:343
0.101:347
0.102:344
0.102:339
0.102:338
0.102:343
0.102:347
0.102:344
0.102:346
0.103:351
0.103:353
0.103:355
0.104:355
0.104:358
0.105:362
0.105:399
0.105:378
0.105:363
0.106:355
0.106:349
0.106:349
0.106:353
0.106:357
0.106:358
0.107:357
0.113:356
0.114:361
0.114:363
0.115:358
0.115:358
0.115:364
0.115:366
0.115:365
0.115:367
0.115:371
0.115:374
0.115:378
0.116:382
0.116:381
0.116:372
0.116:370
0.116:371
0.116:376
0.116:375
0.116:374
0.117:376
0.117:374
0.117:369
0.117:373
0.117:378
0.117:380
0.117:383
0.117:384
0.117:385
0.118:388
0.118:388
0.119:392
0.119:387
0.119:387
0.119:385
0.119:384
0.120:382
0.120:387
0.120:387
0.120:386
0.121:387
0.121:387
0.121:389
0.121:416
0.122:403
0.122:398
0.122:400
0.122:392
0.122:389
0.123:391
0.123:396
0.123:398
0.123:398
0.126:400
0.127:396
0.131:396
0.132:399
0.132:403
0.132:403
0.132:402
0.132:397
0.132:387
0.133:393
0.133:397
0.133:399
0.133:401
0.134:401
0.134:401
0.134:402
0.134:406
0.135:403
0.135:405
0.135:405
0.135:400
0.136:398
0.136:397
0.136:402
0.136:401
0.137:396
0.137:395
0.137:400
0.137:403
0.138:400
0.138:404
0.139:405
0.139:401
0.139:400
0.139:408
0.139:412
0.139:413
0.139:409
0.142:409
0.142:413
0.143:412
0.144:438
0.146:422
0.146:413
0.146:412
0.147:415
0.147:409
0.147:409
0.147:410
0.148:410
0.148:406
0.148:406
0.148:398
0.148:402
0.149:409
0.149:412
0.149:413
0.150:414
0.150:420
0.150:423
0.150:423
0.150:414
0.152:414
0.152:402
0.152:397
0.152:396
0.152:399
0.152:400
0.152:397
0.152:400
0.152:405
0.153:401
0.153:401
0.154:401
0.154:400
0.154:407
0.155:411
0.155:414
0.155:417
0.156:418
0.159:412
0.164:402
0.166:406
0.166:414
0.167:419
0.168:421
0.168:422
0.169:414
0.169:407
0.170:405
0.171:399
0.171:397
0.172:394
0.172:415
0.172:413
0.172:413
0.173:414
0.173:414
0.174:411
0.176:410
0.177:414
0.178:415
0.180:418
0.182:415
0.182:409
0.183:404
0.183:412
0.183:410
0.183:409
0.184:403
0.184:400
0.184:391
0.185:392
0.185:400
0.185:406
0.186:414
0.186:411
0.187:408
0.187:403
0.187:404
0.188:404
0.188:404
0.188:404
0.189:406
0.189:407
0.189:413
0.189:412
0.190:405
0.192:398
0.194:403
0.197:406
0.197:410
0.198:411
0.198:410
0.198:408
0.199:412
0.199:416
0.201:419
0.201:420
0.201:419
0.201:419
0.201:421
0.201:416
0.202:410
0.202:406
0.202:418
0.203:425
0.203:413
0.203:405
0.203:404
0.203:407
0.204:408
0.204:405
0.204:405
0.204:406
0.204:408
0.205:416
0.205:418
0.205:414
0.205:413
0.206:414
0.206:411
0.206:405
0.206:404
0.208:410
0.209:408
0.209:404
0.209:402
0.211:399
0.214:394
0.214:396
0.214:402
0.215:402
0.215:400
0.215:404
0.215:407
0.216:409
0.216:408
0.216:408
0.216:414
0.216:416
0.217:420
0.217:420
0.217:420
0.217:414
0.217:410
0.218:409
0.218:407
0.218:408
0.218:410
0.219:412
0.219:410
0.219:411
0.219:405
0.219:400
0.220:405
0.221:411
0.221:419
0.221:445
0.221:429
0.222:422
0.222:425
0.222:422
0.223:415
0.223:410
0.223:405
0.226:403
0.227:400
0.228:400
0.230:400
0.232:403
0.232:407
0.233:413
0.233:411
0.233:407
0.234:406
0.234:406
0.234:412
0.234:414
0.234:417
0.234:414
0.234:410
0.235:414
0.235:413
0.235:410
0.235:407
0.235:410
0.236:411
0.236:412
0.236:402
0.236:396
0.237:400
0.237:403
0.237:405
0.237:402
0.237:403
0.238:413
0.238:415
0.238:417
0.238:414
0.238:418
0.239:418
0.239:418
0.239:422
0.239:415
0.239:412
0.239:411
0.242:408
0.242:406
0.246:410
0.248:430
0.249:416
0.249:410
0.249:413
0.249:411
0.249:403
0.250:397
0.250:400
0.251:412
0.251:416
0.251:416
0.252:418
0.252:418
0.252:419
0.252:419
0.252:409
0.252:402
0.253:407
0.253:407
0.253:405
0.253:403
0.253:407
0.253:410
0.254:414
0.254:417
0.254:416
0.254:409
0.254:407
0.254:413
0.255:416
0.255:417
0.255:418
0.255:415
0.255:413
0.256:415
0.256:412
0.256:409
0.256:407
0.256:407
0.257:414
0.257:414
0.258:406
0.259:407
0.259:404
0.260:401
0.262:404
0.264:407
0.264:410
0.264:413
0.265:417
0.265:413
0.265:438
0.265:438
0.265:428
0.265:417
0.266:410
0.266:411
0.266:413
0.266:414
0.267:416
0.267:415
0.267:411
0.267:410
0.267:420
0.268:425
0.268:417
0.268:415
0.268:416
0.269:418
0.269:423
0.269:423
0.269:422
0.269:419
0.269:419
0.269:418
0.270:418
0.270:419
0.270:414
0.270:408
0.270:409
0.271:413
0.271:414
0.271:420
0.271:428
0.271:421
0.271:416
0.272:413
0.272:410
0.272:410
0.272:415
0.273:411
0.273:413
0.273:417
0.273:423
0.275:430
0.276:431
0.277:431
0.277:423
0.279:420
0.280:419
0.281:420
0.281:415
0.281:417
0.281:458
0.282:439
0.282:426
0.282:414
0.282:419
0.282:431
0.282:429
0.283:420
0.283:416
0.283:416
0.283:422
0.283:420
0.284:412
0.284:413
0.284:406
0.284:404
0.285:410
0.285:411
0.285:411
0.285:405
0.285:410
0.286:425
0.286:432
0.286:433
0.286:435
0.286:436
0.287:431
0.287:431
0.287:430
0.287:424
0.288:424
0.288:430
0.288:435
0.288:435
0.288:432
0.289:430
0.289:430
0.289:433
0.289:440
0.289:441
0.290:442
0.290:439
0.290:436
0.293:435
0.293:435
0.294:430
0.296:434
0.297:440
0.298:444
0.298:448
0.299:451
0.299:451
0.299:477
0.299:453
0.299:447
0.299:440
0.300:437
0.300:439
0.300:435
0.300:437
0.300:447
0.301:456
0.301:460
0.301:455
0.301:455
0.302:452
0.302:454
0.302:461
0.302:464
0.302:464
0.303:466
0.303:474
0.303:475
0.303:469
0.303:467
0.304:462
0.304:456
0.304:453
0.304:450
0.304:449
0.305:443
0.305:444
0.305:446
0.305:446
0.306:446
0.306:454
0.306:461
0.306:461
0.309:468
0.310:460
0.310:454
0.312:451
0.313:453
0.313:457
0.314:460
0.314:455
0.315:446
0.315:445
0.315:444
0.315:445
0.315:444
0.316:442
0.316:444
0.316:444
0.316:461
0.316:433
0.317:418
0.317:414
0.317:421
0.317:419
0.318:416
0.318:412
0.318:414
0.318:416
0.319:414
0.319:405
0.319:402
0.319:401
0.319:400
0.320:397
0.320:392
0.320:397
0.320:393
0.320:389
0.321:386
0.321:388
0.321:389
0.321:393
0.322:397
0.322:397
0.322:405
0.322:400
0.323:399
0.323:406
0.323:411
0.323:412
0.325:416
0.326:415
0.327:415
0.328:415
0.329:416
0.330:411
0.330:402
0.331:396
0.331:398
0.331:394
0.331:397
0.331:400
0.332:404
0.332:405
0.332:409
0.332:408
0.332:401
0.333:406
0.333:408
0.333:402
0.333:427
0.333:419
0.334:411
0.334:407
0.334:402
0.334:396
0.335:398
0.335:401
0.335:402
0.335:398
0.335:400
0.336:400
0.336:398
0.336:407
0.336:413
0.336:414
0.337:414
0.337:418
0.337:423
0.337:422
0.337:416
0.339:411
0.339:412
0.339:411
0.339:408
0.339:403
0.340:401
0.340:396
0.342:386
0.342:382
0.343:392
0.345:389
0.346:387
0.347:387
0.348:386
0.348:371
0.349:361
0.349:351
0.349:354
0.350:356
0.350:346
0.350:339
0.351:336
0.351:341
0.351:346
0.351:346
0.352:351
0.352:357
0.352:362
0.352:372
0.352:386
0.353:409
0.353:437
0.354:468
0.354:487
0.355:511
0.355:544
0.355:584
0.355:634
0.356:681
0.356:718
0.356:756
0.356:792
0.356:834
0.357:883
0.357:933
0.360:979
0.363:989
0.365:988
0.365:988
0.365:987
0.365:987
0.365:986
0.366:985
0.366:985
0.367:986
0.367:986
0.367:987
0.368:987
0.368:987
0.370:988
0.370:988
0.370:988
0.371:989
0.371:987
0.372:945
0.372:901
0.372:850
0.373:793
0.373:723
0.373:650
0.375:576
0.376:497
0.377:497
0.379:417
0.380:347
0.381:285
0.381:241
0.382:214
0.382:198
0.382:186
0.382:171
0.382:163
0.383:157
0.383:167
0.384:185
0.384:176
0.384:165
0.384:161
0.384:172
0.384:189
0.385:196
0.385:206
0.385:216
0.385:231
0.386:247
0.386:265
0.386:282
0.386:297
0.387:310
0.387:322
0.388:325
0.389:323
0.389:325
0.393:329
0.394:333
0.395:333
0.395:331
0.396:331
0.397:332
0.397:338
0.397:341
0.397:342
0.398:342
0.398:347
0.398:351
0.399:356
0.399:360
0.400:366
0.400:368
0.400:371
0.402:378
0.402:374
0.402:367
0.402:369
0.403:369
0.403:369
0.404:367
0.405:366
0.405:374
0.405:379
0.405:374
0.406:375
0.410:375
0.414:378
0.415:381
0.415:389
0.415:412
0.415:398
0.416:395
0.416:393
0.416:392
0.416:390
0.417:389
0.417:382
0.417:382
0.418:388
0.418:395
0.418:401
0.419:402
0.419:403
0.419:399
0.419:402
0.420:408
0.420:405
0.420:407
0.421:411
0.421:415
0.421:417
0.422:422
0.422:425
0.422:428
0.423:425
0.423:423
0.425:416
0.427:418
0.428:426
0.429:438
0.430:444
0.430:445
0.430:441
0.431:435
0.431:429
0.431:432
0.431:436
0.432:442
0.432:443
0.432:439
0.433:439
0.433:443
0.433:445
0.433:448
0.433:448
0.434:441
0.434:433
0.434:438
0.435:445
0.435:449
0.435:480
0.436:469
0.436:457
0.436:459
0.437:461
0.437:461
0.437:466
0.438:469
0.438:473
0.439:476
0.439:477
0.442:473
0.444:478
0.445:482
0.445:486
0.445:482
0.447:474
0.447:474
0.447:479
0.447:485
0.448:482
0.449:478
0.449:475
0.449:472
0.449:472
0.449:474
0.449:478
0.449:485
0.449:490
0.450:489
0.450:499
0.450:547
0.450:529
0.450:523
0.450:512
0.450:502
0.450:496
0.451:494
0.451:498
0.451:497
0.451:491
0.451:491
0.452:496
0.453:499
0.453:499
0.453:499
0.453:498
0.453:493
0.453:501
0.453:519
0.454:526
0.454:524
0.454:566
0.455:559
0.455:551
0.455:552
0.458:554
0.458:555
0.459:554
0.461:546
0.463:539
0.464:540
0.465:543
0.465:548
0.465:554
0.465:554
0.465:560
0.466:558
0.466:557
0.466:564
0.467:568
0.467:566
0.467:563
0.468:572
0.468:582
0.469:587
0.469:585
0.469:581
0.471:581
0.471:587
0.471:589
0.472:583
0.472:580
0.472:588
0.472:594
0.473:597
0.475:597
0.475:598
0.475:598
0.476:601
0.477:599
0.478:599
0.478:602
0.481:608
0.481:612
0.481:611
0.481:610
0.482:611
0.482:610
0.482:611
0.483:613
0.483:609
0.483:607
0.484:611
0.484:647
0.485:624
0.485:619
0.485:615
0.486:612
0.486:611
0.486:612
0.487:609
0.487:611
0.488:615
0.488:617
0.488:610
0.489:603
0.489:595
0.489:590
0.491:588
0.492:586
0.496:583
0.497:588
0.498:587
0.498:582
0.498:582
0.498:576
0.499:578
0.499:580
0.499:577
0.499:575
0.500:577
0.500:574
0.500:572
0.500:572
0.500:566
0.501:560
0.501:549
0.501:540
0.501:531
0.502:526
0.502:524
0.502:521
0.502:512
0.502:503
0.503:495
0.503:487
0.503:482
0.503:474
0.504:468
0.504:463
0.504:455
0.504:448
0.504:444
0.505:444
0.505:440
0.505:466
0.505:439
0.505:418
0.506:406
0.508:400
0.509:397
0.510:390
0.513:384
0.514:383
0.516:381
0.516:379
0.517:371
0.517:357
0.517:349
0.517:350
0.518:350
0.518:344
0.519:338
0.519:334
0.521:334
0.521:333
0.521:333
0.521:330
0.521:330
0.522:329
0.522:330
0.522:340
0.525:338
0.525:336
0.526:336
0.527:333
0.529:328
0.530:325
0.530:319
0.531:310
0.531:310
0.531:316
0.532:320
0.532:326
0.533:326
0.533:329
0.533:334
0.534:328
0.534:322
0.534:327
0.535:334
0.535:336
0.536:329
0.536:326
0.536:329
0.537:332
0.537:326
0.537:324
0.538:332
0.538:364
0.539:349
0.539:339
0.539:336
0.541:333
0.542:335
0.543:349
0.545:358
0.546:355
0.546:351
0.547:353
0.547:351
0.548:354
0.548:355
0.548:356
0.548:355
0.549:360
0.550:361
0.550:361
0.550:362
0.550:361
0.551:365
0.551:370
0.551:370
0.551:366
0.551:368
0.551:375
0.551:378
0.551:374
0.552:373
0.552:373
0.552:374
0.552:376
0.552:373
0.553:371
0.553:371
0.553:373
0.553:375
0.553:377
0.554:373
0.554:375
0.554:380
0.554:386
0.555:387
0.555:389
0.555:390
0.556:399
0.556:400
0.556:397
0.556:395
0.556:407
0.556:411
0.556:407
0.557:410
0.558:406
0.559:401
0.562:397
0.562:397
0.563:396
0.564:397
0.564:399
0.564:402
0.564:408
0.564:410
0.565:411
0.565:412
0.565:415
0.566:415
0.566:412
0.566:415
0.567:419
0.567:418
0.568:415
0.568:416
0.569:421
0.569:415
0.569:415
0.570:423
0.570:420
0.571:417
0.571:420
0.571:421
0.571:418
0.571:426
0.571:432
0.572:433
0.572:436
0.572:436
0.575:433
0.575:432
0.575:429
0.577:425
0.578:433
0.579:440
0.581:440
0.581:440
0.581:434
0.581:425
0.581:424
0.581:427
0.581:435
0.581:442
0.581:453
0.581:466
0.582:449
0.582:443
0.582:443
0.582:445
0.582:453
0.583:452
0.583:445
0.583:440
0.583:441
0.583:443
0.584:450
0.584:452
0.584:448
0.584:443
0.584:442
0.586:438
0.586:433
0.586:430
0.586:428
0.586:432
0.586:433
0.586:445
0.586:461
0.586:465
0.586:457
0.586:457
0.587:461
0.587:456
0.587:456
0.587:456
0.588:458
0.588:457
0.588:456
0.588:457
0.588:457
0.589:452
0.590:449
0.591:443
0.591:446
0.591:453
0.594:458
0.595:458
0.595:456
0.595:459
0.596:463
0.596:462
0.596:452
0.596:446
0.596:448
0.596:452
0.596:487
0.597:487
0.597:469
0.597:458
0.597:456
0.598:456
0.598:455
0.598:454
0.598:456
0.598:456
0.600:463
0.600:464
0.600:461
0.600:461
0.600:464
0.600:465
0.600:463
0.601:457
0.601:454
0.601:455
0.601:457
0.601:462
0.601:462
0.601:457
0.602:457
0.602:458
0.602:462
0.602:459
0.602:458
0.602:457
0.602:467
0.603:470
0.603:469
0.603:466
0.603:465
0.603:465
0.603:466
0.603:465
0.603:464
0.604:462
0.604:459
0.604:456
0.604:454
0.604:449
0.605:454
0.605:455
0.605:451
0.605:446
0.606:455
0.606:457
0.606:454
0.606:451
0.606:483
0.609:471
0.610:473
0.611:477
0.612:481
0.613:476
0.613:466
0.614:461
0.614:462
0.614:462
0.614:471
0.615:471
0.615:465
0.615:470
0.615:476
0.615:472
0.616:464
0.616:466
0.616:471
0.616:479
0.616:480
0.617:470
0.617:464
0.617:465
0.617:467
0.618:468
0.618:468
0.618:467
0.618:467
0.618:468
0.619:473
0.620:469
0.620:464
0.620:466
0.620:462
0.621:463
0.621:460
0.621:459
0.621:459
0.621:466
0.622:469
0.622:468
0.622:467
0.622:472
0.623:482
0.623:487
0.623:477
0.625:474
0.625:469
0.626:463
0.626:463
0.627:460
0.629:493
0.630:470
0.631:471
0.631:472
0.631:475
0.631:474
0.632:473
0.632:478
0.632:479
0.633:480
0.633:486
0.633:491
0.633:489
0.634:481
0.634:478
0.634:471
0.634:471
0.635:471
0.635:475
0.635:473
0.635:476
0.635:482
0.636:485
0.636:486
0.636:480
0.636:475
0.636:472
0.637:469
0.637:474
0.637:478
0.637:480
0.637:479
0.638:478
0.638:475
0.638:476
0.638:479
0.639:479
0.639:475
0.639:473
0.639:473
0.639:465
0.641:466
0.642:470
0.643:470
0.644:464
0.645:461
0.645:467
0.646:467
0.646:474
0.646:478
0.647:476
0.647:477
0.647:516
0.647:494
0.648:483
0.648:485
0.648:491
0.648:491
0.648:487
0.649:487
0.649:483
0.649:482
0.649:480
0.651:482
0.651:482
0.651:480
0.651:486
0.651:481
0.652:488
0.652:485
0.653:481
0.653:483
0.653:481
0.654:483
0.654:488
0.655:484
0.655:485
0.655:485
0.656:486
0.658:488
0.659:483
0.661:478
0.662:479
0.663:488
0.663:491
0.663:486
0.663:481
0.664:480
0.664:481
0.664:485
0.664:486
0.665:481
0.665:483
0.665:482
0.665:487
0.665:485
0.666:483
0.666:480
0.666:482
0.666:483
0.666:486
0.667:483
0.667:483
0.667:483
0.667:525
0.667:508
0.668:495
0.668:485
0.668:483
0.668:487
0.669:490
0.669:489
0.669:490
0.669:494
0.669:494
0.670:493
0.671:496
0.671:492
0.671:491
0.671:488
0.671:478
0.671:476
0.671:481
0.671:485
0.672:484
0.672:474
0.672:469
0.672:486
0.675:497
0.675:500
0.675:499
0.677:496
0.678:493
0.678:495
0.680:501
0.681:492
0.681:487
0.681:487
0.681:481
0.681:479
0.681:480
0.681:480
0.682:475
0.683:474
0.683:480
0.683:484
0.683:485
0.683:486
0.683:487
0.683:491
0.683:498
0.684:493
0.684:488
0.684:482
0.684:483
0.685:490
0.685:512
0.685:505
0.685:491
0.685:482
0.686:481
0.686:483
0.686:482
0.686:482
0.686:487
0.687:490
0.687:488
0.687:494
0.687:499
0.687:499
0.688:503
0.688:500
0.688:497
0.688:494
0.689:496
0.692:496
0.692:496
0.695:496
0.695:495
0.696:496
0.696:491
0.697:494
0.697:497
0.697:502
0.697:503
0.698:503
0.698:499
0.698:497
0.698:500
0.698:503
0.700:512
0.700:513
0.700:508
0.700:506
0.701:514
0.701:515
0.701:510
0.701:510
0.702:510
0.702:512
0.702:515
0.702:513
0.702:513
0.703:511
0.703:511
0.703:513
0.703:516
0.703:514
0.704:518
0.704:524
0.704:512
0.704:510
0.705:505
0.705:512
0.705:510
0.705:516
0.705:523
0.706:521
0.706:515
0.706:515
0.706:512
0.708:512
0.709:517
0.709:522
0.709:531
0.712:531
0.713:533
0.713:536
0.714:540
0.714:540
0.714:542
0.714:545
0.714:540
0.715:534
0.715:531
0.715:532
0.715:536
0.715:528
0.716:526
0.716:521
0.717:518
0.717:519
0.717:520
0.717:516
0.717:513
0.717:518
0.717:526
0.718:529
0.718:528
0.719:530
0.719:528
0.719:531
0.719:532
0.719:527
0.719:521
0.719:523
0.720:522
0.720:522
0.720:520
0.720:518
0.721:524
0.721:537
0.721:512
0.721:505
0.722:491
0.722:481
0.722:481
0.724:481
0.725:477
0.725:474
0.726:474
0.727:475
0.728:477
0.728:476
0.729:478
0.730:481
0.730:479
0.731:480
0.731:478
0.731:470
0.731:468
0.731:472
0.732:471
0.732:468
0.732:465
0.732:467
0.732:470
0.732:474
0.732:468
0.732:463
0.732:466
0.734:468
0.734:474
0.734:476
0.734:475
0.734:474
0.734:477
0.734:479
0.734:477
0.734:476
0.735:471
0.735:470
0.735:468
0.735:472
0.735:470
0.737:474
0.737:483
0.737:483
0.737:476
0.737:473
0.737:475
0.737:474
0.737:507
0.737:495
0.738:490
0.738:488
0.738:489
0.738:489
0.738:484
0.739:475
0.742:476
0.745:477
0.746:469
0.747:467
0.747:468
0.747:465
0.748:468
0.748:470
0.748:470
0.748:469
0.748:466
0.748:466
0.749:471
0.749:473
0.749:474
0.750:477
0.750:480
0.750:480
0.750:484
0.750:478
0.751:477
0.751:476
0.751:471
0.751:467
0.752:464
0.752:460
0.752:459
0.752:460
0.752:456
0.753:441
0.753:426
0.753:420
0.753:417
0.753:415
0.754:407
0.754:403
0.754:403
0.754:414
0.754:417
0.755:411
0.755:415
0.755:423
0.755:439
0.755:450
0.758:496
0.758:510
0.758:526
0.759:555
0.759:581
0.761:606
0.764:647
0.764:689
0.764:730
0.764:767
0.764:801
0.765:837
0.765:877
0.765:877
0.765:915
0.765:967
0.766:989
0.766:989
0.766:988
0.766:987
0.767:987
0.767:986
0.767:985
0.767:985
0.767:985
0.768:985
0.768:986
0.768:986
0.768:986
0.768:987
0.769:987
0.770:987
0.770:988
0.770:988
0.770:989
0.770:989
0.770:971
0.770:929
0.771:874
0.771:816
0.771:741
0.771:671
0.771:593
0.772:513
0.772:435
0.773:378
0.775:332
0.778:290
0.780:261
0.781:244
0.781:240
0.782:238
0.782:265
0.783:246
0.783:236
0.783:231
0.783:227
0.784:227
0.784:227
0.784:235
0.784:246
0.785:254
0.785:262
0.785:279
0.785:299
0.785:322
0.786:337
0.786:346
0.786:361
0.786:377
0.786:387
0.787:394
0.787:396
0.787:396
0.787:397
0.787:399
0.789:401
0.789:402
0.789:402
0.789:405
0.792:407
0.792:403
0.793:404
0.794:404
0.795:402
0.796:400
0.797:400
0.797:402
0.797:406
0.797:407
0.797:415
0.798:422
0.798:420
0.799:413
0.799:411
0.799:419
0.799:426
0.799:424
0.800:418
0.800:417
0.800:419
0.800:431
0.801:435
0.801:431
0.801:468
0.801:450
0.802:440
0.802:436
0.802:434
0.802:434
0.803:439
0.803:445
0.803:452
0.803:453
0.803:450
0.804:452
0.804:455
0.804:453
0.804:446
0.805:451
0.805:453
0.805:451
0.805:452
0.806:452
0.807:458
0.808:465
0.809:469
0.809:468
0.810:465
0.811:464
0.812:464
0.812:469
0.813:469
0.814:469
0.814:469
0.814:471
0.814:478
0.814:482
0.814:475
0.814:468
0.815:472
0.815:477
0.815:479
0.815:481
0.815:480
0.816:487
0.816:491
0.816:493
0.816:492
0.816:488
0.817:486
0.817:492
0.817:495
0.817:497
0.817:498
0.818:499
0.818:528
0.818:519
0.818:510
0.819:510
0.819:505
0.819:506
0.819:508
0.819:510
0.819:511
0.820:511
0.820:510
0.820:510
0.820:509
0.820:511
0.820:511
0.821:516
0.821:519
0.821:522
0.821:528
0.821:531
0.822:526
0.822:519
0.824:515
0.824:513
0.825:514
0.826:517
0.828:525
0.828:525
0.828:522
0.828:526
0.829:532
0.829:535
0.829:537
0.829:542
0.831:549
0.831:549
0.831:547
0.831:547
0.831:540
0.831:539
0.831:543
0.832:549
0.832:551
0.832:552
0.832:555
0.832:550
0.832:550
0.833:550
0.833:546
0.833:546
0.833:558
0.833:562
0.834:587
0.834:582
0.834:578
0.834:575
0.834:579
0.835:581
0.835:576
0.835:575
0.835:579
0.836:585
0.836:591
0.836:594
0.836:594
0.836:590
0.836:600
0.837:602
0.837:600
0.837:599
0.837:598
0.837:599
0.838:603
0.838:593
0.838:595
0.838:600
0.839:607
0.839:612
0.839:621
0.839:625
0.841:625
0.841:627
0.842:625
0.843:623
0.845:625
0.845:623
0.846:630
0.846:627
0.846:628
0.847:635
0.847:642
0.847:643
0.847:644
0.847:641
0.848:641
0.848:635
0.848:642
0.848:642
0.849:646
0.849:646
0.849:651
0.849:654
0.849:659
0.850:658
0.850:656
0.850:679
0.850:664
0.851:666
0.851:668
0.851:655
0.851:643
0.852:633
0.852:637
0.852:642
0.852:639
0.852:636
0.853:637
0.853:634
0.853:635
0.853:631
0.854:636
0.854:645
0.854:646
0.854:638
0.854:632
0.855:634
0.855:629
0.855:619
0.855:616
0.857:613
0.858:606
0.861:606
0.862:606
0.862:603
0.863:597
0.863:589
0.863:580
0.864:580
0.864:582
0.864:580
0.864:574
0.864:571
0.865:566
0.865:556
0.865:546
0.865:546
0.865:544
0.866:538
0.866:528
0.866:521
0.866:508
0.866:489
0.867:481
0.867:475
0.867:472
0.867:475
0.867:491
0.868:491
0.868:479
0.868:466
0.869:455
0.869:444
0.869:439
0.869:431
0.870:427
0.870:426
0.870:426
0.870:424
0.871:417
0.871:404
0.871:395
0.871:393
0.871:387
0.872:389
0.872:389
0.875:386
0.876:380
0.877:377
0.878:379
0.878:378
0.878:376
0.879:375
0.879:371
0.879:375
0.880:376
0.880:378
0.880:376
0.880:371
0.880:362
0.881:358
0.881:362
0.881:361
0.881:361
0.882:361
0.882:358
0.882:354
0.882:352
0.883:355
0.883:368
0.883:367
0.883:366
0.884:364
0.884:363
0.884:365
0.884:371
0.885:371
0.885:374
0.885:370
0.885:386
0.886:374
0.886:370
0.886:366
0.886:367
0.887:375
0.887:376
0.887:376
0.888:381
0.888:381
0.888:382
0.892:384
0.894:385
0.895:383
0.895:387
0.896:395
0.896:403
0.896:402
0.897:395
0.897:385
0.897:388
0.897:395
0.897:396
0.898:394
0.898:387
0.898:387
0.898:390
0.899:393
0.899:395
0.899:393
0.899:394
0.899:401
0.900:407
0.900:405
0.900:408
0.901:411
0.901:413
0.901:411
0.902:414
0.902:416
0.902:417
0.903:425
0.903:429
0.904:427
0.904:427
0.904:425
0.905:418
0.905:418
0.905:419
0.911:417
0.912:415
0.914:422
0.914:456
0.914:442
0.914:434
0.914:432
0.914:426
0.914:427
0.915:428
0.915:431
0.915:435
0.915:433
0.916:432
0.916:433
0.916:435
0.916:439
0.916:440
0.917:438
0.917:436
0.917:436
0.917:436
0.917:438
0.918:443
0.918:450
0.918:453
0.918:456
0.919:457
0.919:452
0.919:454
0.919:454
0.919:451
0.920:450
0.920:454
0.920:458
0.920:456
0.920:449
0.921:446
0.921:447
0.921:451
0.921:456
0.921:457
0.921:452
0.922:457
0.924:463
0.924:462
0.925:465
0.925:466
0.928:469
0.930:470
0.931:467
0.931:462
0.931:457
0.932:460
0.932:461
0.932:490
0.933:472
0.933:469
0.933:470
0.934:468
0.934:464
0.935:458
0.935:457
0.935:458
0.936:460
0.936:462
0.936:468
0.937:481
0.937:487
0.938:488
0.938:484
0.938:482
0.939:479
0.939:474
0.942:472
0.945:472
0.946:473
0.947:475
0.947:475
0.947:472
0.948:472
0.948:470
0.948:468
0.948:471
0.948:477
0.948:484
0.949:486
0.949:484
0.949:480
0.949:478
0.949:480
0.949:476
0.949:473
0.950:472
0.950:472
0.950:476
0.950:473
0.950:466
0.950:468
0.950:472
0.950:471
0.951:471
0.951:474
0.951:473
0.951:484
0.952:489
0.952:489
0.952:533
0.952:508
0.952:501
0.953:492
0.953:483
0.953:479
0.953:475
0.954:478
0.954:476
0.954:475
0.954:471
0.954:473
0.955:482
0.955:484
0.955:481
0.957:479
0.957:478
0.959:482
0.961:482
0.962:489
0.963:498
0.963:500
0.964:498
0.964:491
0.964:486
0.964:492
0.965:496
0.965:491
0.965:487
0.965:483
0.966:499
0.966:503
0.966:489
0.967:489
0.967:488
0.967:483
0.968:483
0.968:486
0.969:487
0.969:490
0.969:485
0.970:492
0.970:491
0.970:492
0.971:491
0.971:484
0.971:478
0.971:475
0.971:475
0.972:483
0.972:485
0.972:482
0.972:514
0.975:495
0.975:488
0.976:484
0.978:486
0.979:492
0.980:498
0.980:492
0.980:489
0.981:488
0.981:496
0.982:499
0.982:492
0.983:487
0.983:485
0.983:488
0.984:495
0.984:497
0.984:489
0.985:485
0.986:491
0.986:492
0.986:493
0.986:491
0.987:494
0.987:492
0.988:492
0.988:490
0.989:487
0.992:488
0.994:490
0.995:492
0.996:493
0.997:486
0.997:485
0.997:488
0.997:487
0.998:483
0.999:483
0.999:484
0.999:491
0.999:491
0.999:497
0.999:490
0.999:482
1.000:492
1.000:494
1.000:495
1.000:491
1.000:485
1.001:487
1.001:495
1.001:524
1.001:519
1.002:504
1.002:492
1.002:488
1.002:494
1.002:497
1.003:498
1.003:494
1.003:495
1.004:496
1.004:498
1.004:496
1.005:496
1.005:492
1.007:500
1.007:509
1.008:510
1.012:505
1.012:504
1.014:507
1.014:498
1.014:496
1.014:492
1.014:485
1.014:485
1.014:490
1.014:489
1.015:491
1.015:498
1.016:495
1.016:494
1.016:499
1.017:504
1.017:501
1.017:
1.019:462
1.019:456
1.020:456
1.020:468
1.020:478
1.020:480
1.020:480
1.021:475
1.021:454
1.021:469
1.021:466
1.021:458
1.022:453
1.022:453
1.022:454
1.022:450
1.025:447
1.025:450
1.028:457
1.029:465
1.030:465
1.030:469
1.031:471
1.031:477
1.032:479
1.032:478
1.032:465
1.033:454
1.033:454
1.034:460
1.034:492
1.034:480
1.034:465
1.035:456
1.035:460
1.035:460
1.035:465
1.035:470
1.036:474
1.036:470
1.036:471
1.036:471
1.036:470
1.037:471
1.037:476
1.037:484
1.037:482
1.038:468
1.038:467
1.038:468
1.038:464
1.038:466
1.039:467
1.039:464
1.041:465
1.042:470
1.046:466
1.047:455
1.048:464
1.048:473
1.049:482
1.049:496
1.050:496
1.050:484
1.051:480
1.051:484
1.051:484
1.051:480
1.052:476
1.052:477
1.052:477
1.052:473
1.053:463
1.053:459
1.053:461
1.053:474
1.053:485
1.054:482
1.054:479
1.054:477
1.054:479
1.054:475
1.055:475
1.055:477
1.055:479
1.055:482
1.057:484
1.057:480
1.058:470
1.058:466
1.058:469
1.059:473
1.061:475
1.061:473
1.062:475
1.063:475
1.063:473
1.063:468
1.063:465
1.063:469
1.064:466
1.064:471
1.064:477
1.064:475
1.064:474
1.064:481
1.065:487
1.065:481
1.065:481
1.065:482
1.066:474
1.066:475
1.066:475
1.066:475
1.066:485
1.066:469
1.067:456
1.067:469
1.067:469
1.067:466
1.067:467
1.067:475
1.068:477
1.068:481
1.068:480
1.068:483
1.069:488
1.069:485
1.069:481
1.069:477
1.069:478
1.069:479
1.069:479
1.069:484
1.070:485
1.070:470
1.070:466
1.070:461
1.071:464
1.071:468
1.071:469
1.071:480
1.071:485
1.072:482
1.074:481
1.074:484
1.076:495
1.077:501
1.078:497
1.078:491
1.079:486
1.079:486
1.079:483
1.079:480
1.079:478
1.079:478
1.079:484
1.080:487
1.080:485
1.080:480
1.080:491
1.081:506
1.084:516
1.084:498
1.084:465
1.084:462
1.084:489
1.084:486
1.085:483
1.085:479
1.085:477
1.085:471
1.085:471
1.086:476
1.086:477
1.086:478
1.086:476
1.086:477
1.087:479
1.087:483
1.087:480
1.087:484
1.087:489
1.088:488
1.088:487
1.088:482
1.091:485
1.091:498
1.094:504
1.095:495
1.096:487
1.096:485
1.096:490
1.096:497
1.096:494
1.097:476
1.097:473
1.097:477
1.098:475
1.098:475
1.098:474
1.098:475
1.098:484
1.099:484
1.099:482
1.099:483
1.101:492
1.101:496
1.101:495
1.101:491
1.101:485
1.101:480
1.101:481
1.101:487
1.102:491
1.102:491
1.102:496
1.102:498
1.102:522
1.103:498
1.103:488
1.103:479
1.103:478
1.103:487
1.104:490
1.104:489
1.104:492
1.104:493
1.104:497
1.105:499
1.112:497
1.113:494
1.113:489
1.114:486
1.114:485
1.114:487
1.114:486
1.115:484
1.115:487
1.115:483
1.115:484
1.115:488
1.116:487
1.116:495
1.116:502
1.116:503
1.116:492
1.117:489
1.117:488
1.117:496
1.117:496
1.117:494
1.118:490
1.118:492
1.118:491
1.118:492
1.119:493
1.119:497
1.119:500
1.119:485
1.120:462
1.120:465
1.120:475
1.120:488
1.120:493
1.121:487
1.121:483
1.121:481
1.121:485
1.122:524
1.124:508
1.124:500
1.124:495
1.125:491
1.126:490
1.128:490
1.128:487
1.130:490
1.131:493
1.131:489
1.131:485
1.131:483
1.131:485
1.132:489
1.132:494
1.132:491
1.132:490
1.133:488
1.133:490
1.133:493
1.133:495
1.134:492
1.134:493
1.134:494
1.134:496
1.134:499
1.135:494
1.135:490
1.135:488
1.135:489
1.136:488
1.136:483
1.136:481
1.136:485
1.136:498
1.137:498
1.137:496
1.137:494
1.137:495
1.137:497
1.138:492
1.138:486
1.138:486
1.138:491
1.139:499
1.139:503
1.141:503
1.142:500
1.143:505
1.144:508
1.144:504
1.144:538
1.145:509
1.145:494
1.146:492
1.146:492
1.146:490
1.146:486
1.146:488
1.147:492
1.147:498
1.147:503
1.147:504
1.147:506
1.148:505
1.148:505
1.148:506
1.148:504
1.149:498
1.149:498
1.149:497
1.149:498
1.149:499
1.150:501
1.150:506
1.150:507
1.150:492
1.151:490
1.151:496
1.151:502
1.151:508
1.152:504
1.152:501
1.152:499
1.152:497
1.152:500
1.153:501
1.153:495
1.153:491
1.153:489
1.153:493
1.154:501
1.154:510
1.154:513
1.154:516
1.154:520
1.155:518
1.155:518
1.155:520
1.155:527
1.158:529
1.158:534
1.161:524
1.162:544
1.163:531
1.163:525
1.163:523
1.163:516
1.163:508
1.164:510
1.164:514
1.164:504
1.164:499
1.164:497
1.165:499
1.165:510
1.165:517
1.165:527
1.165:535
1.166:539
1.166:544
1.166:540
1.166:538
1.167:529
1.167:538
1.167:538
1.167:547
1.167:556
1.168:551
1.168:532
1.168:525
1.168:536
1.168:544
1.169:537
1.170:519
1.170:521
1.170:535
1.170:553
1.170:537
1.170:507
1.170:505
1.171:511
1.171:523
1.171:523
1.171:514
1.171:515
1.174:521
1.174:534
1.174:527
1.176:521
1.178:518
1.179:518
1.179:515
1.179:514
1.180:516
1.180:544
1.180:539
1.180:523
1.180:519
1.181:519
1.181:519
1.181:516
1.181:509
1.181:503
1.182:495
1.182:490
1.182:480
1.182:478
1.183:479
1.183:483
1.183:485
1.183:486
1.184:484
1.184:492
1.184:495
1.184:498
1.184:488
1.185:452
1.185:446
1.185:467
1.185:488
1.186:498
1.186:484
1.186:476
1.186:469
1.186:469
1.187:468
1.187:475
1.187:477
1.187:474
1.187:480
1.188:481
1.188:482
1.188:477
1.188:463
1.191:466
1.192:476
1.193:477
1.195:478
1.196:477
1.197:462
1.197:469
1.197:482
1.197:490
1.197:480
1.198:469
1.198:473
1.198:495
1.198:508
1.198:482
1.198:480
1.199:487
1.200:487
1.200:472
1.200:449
1.200:449
1.200:462
1.200:477
1.200:484
1.200:488
1.201:490
1.201:492
1.201:490
1.201:487
1.201:479
1.202:473
1.202:469
1.202:469
1.202:469
1.203:463
1.203:465
1.203:470
1.203:470
1.203:469
1.204:473
1.204:479
1.204:476
1.204:478
1.204:482
1.205:483
1.207:482
1.207:482
1.209:479
1.210:472
1.212:466
1.213:466
1.213:462
1.213:455
1.213:445
1.214:437
1.214:425
1.214:420
1.214:418
1.215:429
1.215:436
1.215:431
1.215:425
1.216:427
1.216:437
1.216:462
1.216:493
1.216:471
1.217:454
1.217:464
1.217:492
1.217:524
1.218:551
1.218:592
1.218:624
1.218:662
1.218:696
1.219:746
1.219:787
1.219:822
1.219:858
1.219:896
1.219:930
1.220:974
1.220:990
1.220:989
1.220:988
1.221:987
1.221:987
1.221:985
1.221:986
1.224:985
1.224:985
1.224:986
1.225:986
1.226:986
1.227:987
1.227:987
1.227:987
1.228:988
1.228:988
1.229:988
1.230:989
1.230:982
1.230:950
1.230:901
1.230:837
1.230:777
1.230:716
1.231:651
1.231:580
1.231:580
1.231:502
1.232:426
1.232:363
1.232:316
1.232:278
1.232:255
1.233:244
1.233:258
1.233:238
1.233:226
1.233:223
1.234:228
1.234:238
1.234:249
1.234:249
1.234:248
1.235:254
1.235:266
1.235:279
1.235:291
1.235:298
1.236:303
1.236:318
1.236:340
1.236:359
1.237:369
1.237:378
1.237:396
1.237:416
1.237:417
1.238:417
1.241:419
1.241:411
1.245:406
1.245:409
1.246:400
1.247:400
1.247:413
1.247:410
1.247:394
1.247:413
1.247:432
1.248:433
1.248:424
1.248:413
1.249:411
1.249:412
1.249:429
1.249:437
1.250:437
1.250:439
1.250:446
1.250:443
1.251:428
1.251:427
1.251:425
1.251:410
1.252:446
1.252:435
1.252:435
1.252:432
1.252:431
1.253:435
1.253:429
1.253:434
1.253:440
1.254:442
1.254:439
1.254:444
1.254:443
1.255:450
1.255:459
1.257:464
1.258:472
1.258:477
1.259:466
1.262:453
1.263:458
1.264:476
1.264:482
1.264:480
1.264:480
1.265:481
1.265:486
1.265:493
1.265:480
1.265:478
1.266:476
1.266:476
1.266:475
1.266:471
1.267:470
1.267:474
1.267:480
1.267:484
1.267:488
1.268:481
1.268:473
1.268:487
1.268:502
1.268:514
1.269:521
1.269:519
1.269:506
1.269:488
1.269:483
1.270:484
1.270:499
1.270:515
1.270:540
1.270:509
1.271:503
1.271:502
1.271:495
1.274:500
1.274:504
1.277:504
1.277:498
1.278:510
1.279:510
1.280:532
1.280:542
1.280:535
1.280:530
1.281:525
1.281:523
1.281:526
1.281:532
1.281:536
1.281:519
1.281:511
1.282:510
1.282:517
1.282:526
1.282:532
1.283:541
1.283:541
1.283:539
1.283:545
1.283:550
1.284:533
1.284:545
1.284:544
1.284:533
1.285:524
1.285:520
1.285:520
1.285:522
1.285:528
1.286:542
1.286:556
1.286:560
1.286:563
1.287:570
1.287:575
1.287:580
1.287:580
1.287:577
1.288:565
1.288:563
1.293:561
1.294:601
1.295:583
1.296:578
1.296:574
1.296:569
1.296:571
1.296:577
1.296:574
1.297:576
1.297:579
1.297:579
1.297:583
1.298:579
1.299:580
1.299:594
1.299:604
1.299:610
1.299:610
1.300:610
1.300:608
1.301:601
1.301:599
1.301:606
1.301:605
1.302:609
1.302:607
1.302:607
1.302:616
1.303:618
1.303:619
1.303:624
1.303:622
1.303:620
1.304:621
1.304:628
1.304:629
1.304:629
1.304:632
1.307:629
1.307:636
1.308:643
1.309:647
1.313:638
1.313:633
1.314:634
1.314:635
1.314:635
1.315:633
1.315:630
1.315:638
1.315:649
1.315:656
1.316:685
1.316:674
1.316:666
1.316:667
1.316:667
1.317:651
1.317:635
1.317:648
1.317:658
1.317:660
1.317:652
1.317:646
1.318:643
1.318:640
1.318:640
1.318:637
1.319:638
1.319:650
1.319:655
1.319:654
1.319:656
1.319:652
1.320:629
1.320:632
1.320:629
1.320:628
1.320:628
1.320:627
1.321:626
1.321:626
1.321:622
1.321:617
1.321:616
1.322:622
1.323:617
1.324:612
1.324:603
1.324:590
1.325:589
1.326:582
1.327:557
1.327:549
1.328:561
1.328:565
1.328:570
1.329:571
1.329:565
1.329:555
1.329:549
1.329:547
1.330:543
1.330:540
1.330:556
1.330:537
1.330:515
1.330:502
1.330:485
1.330:476
1.331:469
1.331:466
1.331:462
1.331:457
1.331:449
1.331:454
1.332:458
1.332:455
1.332:443
1.332:421
1.332:414
1.332:412
1.332:405
1.332:398
1.332:391
1.333:393
1.333:385
1.333:387
1.333:380
1.333:381
1.333:377
1.334:362
1.334:360
1.334:362
1.334:365
1.334:365
1.334:364
1.334:358
1.335:358
1.335:357
1.335:359
1.335:363
1.335:360
1.336:351
1.336:347
1.336:348
1.336:355
1.336:351
1.337:344
1.337:348
1.337:352
1.337:358
1.338:357
1.338:352
1.338:355
1.339:358
1.340:358
1.342:397
1.343:382
1.344:374
1.345:375
1.346:376
1.346:376
1.346:375
1.346:378
1.347:382
1.347:379
1.347:378
1.347:377
1.348:374
1.348:371
1.348:369
1.349:371
1.349:374
1.350:379
1.350:384
1.350:386
1.351:393
1.351:392
1.351:390
1.351:390
1.352:390
1.352:389
1.352:382
1.353:383
1.353:380
1.353:386
1.354:395
1.354:397
1.355:390
1.355:386
1.358:392
1.361:397
1.363:393
1.363:396
1.363:407
1.364:410
1.364:413
1.364:413
1.364:416
1.365:417
1.365:419
1.366:418
1.366:418
1.366:420
1.367:421
1.367:421
1.368:419
1.368:421
1.368:438
1.369:405
1.369:407
1.369:419
1.370:428
1.371:429
1.371:428
1.372:418
1.372:423
1.376:433
1.377:429
1.379:424
1.379:423
1.380:430
1.380:434
1.380:433
1.380:436
1.381:439
1.381:443
1.381:441
1.382:431
1.382:432
1.383:435
1.383:440
1.383:443
1.384:442
1.384:429
1.384:429
1.385:428
1.385:434
1.386:436
1.386:440
1.386:444
1.387:451
1.387:453
1.388:454
1.388:449
1.388:441
1.391:430
1.392:435
1.393:444
1.394:439
1.395:434
1.395:436
1.396:443
1.396:446
1.396:453
1.397:462
1.397:464
1.398:464
1.398:466
1.398:459
1.399:476
1.399:466
1.399:470
1.399:473
1.400:468
1.400:463
1.401:462
1.401:465
1.401:461
1.402:459
1.402:455
1.402:447
1.403:449
1.403:456
1.404:455
1.404:454
1.406:457
1.407:462
1.413:470
1.413:475
1.413:484
1.413:485
1.413:470
1.414:471
1.414:465
1.415:463
1.415:461
1.415:461
1.416:461
1.416:463
1.416:461
1.417:462
1.417:471
1.418:479
1.418:478
1.418:475
1.419:468
1.419:450
1.419:465
1.420:483
1.420:483
1.420:478
1.421:478
1.421:478
1.421:476
1.421:483
1.421:483
1.421:470
1.423:462
1.423:460
1.424:461
1.426:461
1.427:498
1.428:485
1.429:475
1.429:467
1.429:457
1.429:457
1.429:460
1.429:464
1.429:475
1.430:478
1.430:480
1.430:488
1.430:488
1.430:480
1.430:476
1.430:473
1.431:474
1.432:474
1.432:479
1.432:474
1.432:471
1.432:465
1.432:464
1.433:466
1.433:466
1.433:469
1.434:470
1.434:474
1.434:474
1.435:476
1.435:477
1.436:486
1.436:489
1.436:485
1.437:480
1.437:475
1.437:477
1.441:479
1.441:482
1.441:484
1.443:485
1.445:483
1.445:482
1.446:476
1.446:473
1.447:476
1.447:478
1.447:483
1.448:480
1.448:482
1.449:488
1.450:484
1.450:495
1.450:481
1.450:481
1.450:480
1.451:483
1.451:489
1.451:493
1.452:486
1.452:478
1.452:471
1.453:483
1.453:477
1.453:474
1.454:474
1.454:484
1.455:476
1.455:484
1.457:480
1.458:477
1.459:478
1.462:481
1.464:489
1.464:492
1.465:485
1.465:475
1.466:462
1.466:457
1.466:452
1.467:453
1.467:459
1.467:469
1.468:484
1.468:489
1.469:492
1.469:494
1.469:500
1.470:501
1.470:498
1.470:494
1.471:487
1.471:491
1.474:491
1.475:489
1.477:488
1.477:484
1.481:483
1.481:486
1.481:494
1.482:490
1.482:487
1.482:487
1.482:518
1.483:499
1.483:498
1.483:494
1.485:496
1.485:491
1.485:488
1.486:491
1.486:493
1.486:499
1.486:507
1.487:509
1.487:509
1.489:499
1.490:480
1.490:480
1.492:485
1.494:483
1.495:482
1.495:491
1.496:490
1.496:482
1.506:482
1.510:474
1.512:475
1.512:490
1.513:496
1.513:499
1.513:496
1.513:493
1.514:497
1.514:505
1.514:503
1.514:497
1.515:492
1.515:486
1.515:482
1.516:491
1.516:490
1.516:501
1.516:501
1.516:487
1.518:480
1.518:480
1.518:486
1.518:493
1.518:498
1.518:492
1.518:482
1.519:489
1.519:504
1.519:509
1.538:532
1.539:506
1.540:491
1.540:485
1.542:483
1.544:484
1.545:485
1.546:487
1.546:491
1.546:495
1.546:493
1.546:491
1.547:494
1.547:498
1.547:506
1.548:509
1.548:509
1.548:505
1.549:489
1.549:493
1.549:499
1.549:499
1.549:493
1.549:495
1.549:498
1.549:492
1.549:474
1.550:463
1.550:479
1.550:487
1.567:487
1.567:487
1.567:485
1.568:490
1.568:493
1.568:495
1.568:499
1.571:496
1.571:494
1.571:497
1.571:502
1.571:506
1.573:502
1.573:498
1.574:502
1.577:502
1.578:504
1.579:495
1.579:491
1.579:493
1.579:496
1.580:492
1.580:515
1.580:514
1.580:513
1.580:521
1.580:517
1.581:502
1.581:494
1.581:501
1.595:507
1.596:509
1.596:507
1.600:505
1.600:502
1.600:500
1.600:500
1.601:489
1.601:485
1.601:491
1.601:500
1.602:497
1.602:492
1.604:499
1.604:500
1.604:498
1.605:478
1.605:475
1.606:490
1.606:499
1.607:506
1.609:504
1.611:504
1.612:499
1.612:499
1.612:499
1.612:503
1.612:505
1.612:509
1.612:512
1.626:512
1.628:512
1.629:509
1.630:505
1.630:494
1.630:494
1.630:498
1.631:498
1.631:502
1.631:501
1.631:503
1.631:509
1.632:510
1.633:506
1.633:522
1.633:524
1.633:508
1.634:500
1.634:498
1.634:496
1.634:498
1.634:499
1.636:500
1.637:494
1.637:492
1.637:495
1.637:502
1.637:511
1.638:507
1.638:503
1.658:508
1.658:502
1.662:508
1.663:519
1.663:530
1.663:535
1.664:530
1.664:509
1.664:485
1.664:488
1.665:493
1.665:490
1.665:488
1.665:489
1.665:489
1.666:494
1.666:499
1.666:499
1.666:495
1.666:497
1.667:504
1.667:505
1.667:503
1.667:502
1.668:499
1.668:497
1.668:496
1.668:493
1.669:493
1.669:490
1.685:490
1.685:493
1.685:493
1.686:494
1.686:497
1.686:500
1.686:512
1.686:529
1.693:521
1.696:527
1.696:524
1.696:525
1.697:524
1.697:522
1.697:516
1.697:511
1.698:515
1.698:518
1.698:520
1.698:521
1.698:522
1.699:518
1.699:517
1.699:504
1.699:510
1.700:519
1.700:526
1.700:530
1.700:528
1.700:526
1.713:532
1.714:535
1.714:539
1.715:536
1.715:531
1.718:522
1.718:516
1.718:518
1.718:523
1.719:532
1.719:533
1.719:513
1.719:501
1.720:515
1.722:520
1.722:515
1.723:535
1.724:556
1.725:561
1.726:533
1.727:526
1.727:530
1.728:547
1.728:544
1.728:539
1.729:530
1.730:536
1.730:539
1.730:559
1.731:546
1.744:546
1.745:540
1.746:536
1.746:532
1.747:526
1.747:525
1.747:523
1.747:527
1.747:533
1.748:536
1.748:540
1.748:540
1.748:534
1.750:532
1.751:532
1.751:533
1.751:534
1.751:535
1.752:536
1.752:542
1.752:543
1.752:536
1.752:543
1.756:537
1.756:530
1.757:528
1.759:530
1.760:535
1.762:536
1.763:528
1.772:518
1.775:506
1.776:494
1.777:497
1.777:499
1.777:497
1.777:493
1.778:493
1.778:498
1.779:489
1.779:473
1.779:466
1.780:468
1.780:466
1.780:468
1.781:463
1.781:455
1.781:461
1.782:471
1.782:472
1.784:506
1.785:496
1.785:497
1.785:494
1.785:496
1.786:501
1.786:490
1.786:481
1.787:475
1.789:473
1.804:473
1.805:473
1.806:473
1.806:470
1.806:469
1.807:469
1.807:471
1.807:473
1.807:475
1.808:480
1.808:484
1.808:486
1.809:488
1.810:491
1.810:481
1.810:473
1.810:468
1.810:473
1.811:478
1.812:475
1.812:473
1.812:474
1.813:481
1.813:485
1.813:486
1.814:481
1.814:476
1.814:478
1.816:485
1.816:484
1.833:470
1.833:474
1.833:479
1.834:484
1.835:489
1.836:492
1.837:482
1.837:482
1.837:491
1.839:497
1.839:498
1.841:488
1.842:502
1.842:471
1.842:466
1.843:469
1.843:470
1.844:467
1.844:465
1.845:465
1.846:467
1.846:460
1.846:462
1.847:464
1.848:464
1.848:452
1.848:440
1.849:437
1.849:432
1.850:416
1.862:416
1.863:400
1.863:399
1.864:404
1.864:410
1.865:412
1.866:413
1.867:425
1.867:432
1.867:445
1.868:462
1.868:475
1.869:496
1.869:527
1.869:555
1.871:589
1.872:625
1.872:665
1.872:698
1.874:723
1.874:762
1.874:806
1.874:843
1.874:887
1.875:926
1.876:969
1.876:989
1.876:989
1.877:988
1.877:988
1.890:987
1.891:986
1.894:986
1.895:985
1.895:985
1.896:984
1.896:985
1.897:985
1.897:986
1.898:986
1.898:987
1.899:987
1.899:987
1.900:988
1.900:988
1.901:988
1.901:989
1.902:970
1.902:917
1.902:855
1.903:786
1.903:719
1.904:650
1.906:568
1.906:486
1.907:412
1.907:348
1.908:310
1.908:277
1.909:255
1.919:255
1.923:235
1.923:225
1.924:223
1.925:218
1.925:216
1.926:211
1.926:209
1.927:214
1.927:224
1.927:238
1.928:250
1.928:263
1.929:272
1.929:289
1.929:311
1.930:331
1.931:346
1.931:356
1.931:364
1.931:372
1.931:378
1.931:383
1.932:382
1.933:382
1.933:383
1.933:416
1.934:404
1.934:392
1.934:388
1.952:393
1.952:398
1.952:400
1.952:397
1.953:401
1.953:404
1.954:407
1.956:403
1.956:402
1.957:405
1.957:407
1.957:408
1.958:408
1.958:402
1.958:402
1.959:409
1.959:412
1.959:415
1.959:418
1.959:405
1.961:408
1.961:417
1.961:420
1.961:424
1.961:429
1.962:438
1.962:436
1.963:431
1.963:432
1.964:431
1.980:431
1.980:433
1.980:436
1.980:437
1.980:433
1.980:435
1.980:438
1.984:434
1.984:426
1.985:425
1.986:427
1.986:435
1.986:443
1.986:449
1.986:455
1.986:454
1.989:451
1.989:455
1.989:488
1.989:491
1.989:488
1.989:486
1.991:480
1.991:473
1.991:467
1.991:466
1.992:468
1.992:471
1.993:472
1.993:477
2.008:478
2.009:478
2.009:479
2.013:477
2.013:480
2.014:481
2.014:487
2.014:498
2.014:495
2.015:490
2.015:489
2.015:489
2.015:486
2.017:485
2.017:484
2.018:484
2.018:490
2.018:494
2.018:496
2.018:500
2.018:498
2.018:495
2.021:500
2.022:501
2.022:501
2.022:508
2.023:513
2.023:515
2.023:512
2.023:511
2.037:511
2.038:513
2.041:512
2.042:513
2.042:515
2.042:516
2.042:519
2.043:522
2.043:518
2.043:516
2.043:526
2.044:531
2.046:527
2.046:531
2.046:531
2.047:538
2.047:544
2.047:542
2.047:532
2.048:529
2.048:531
2.048:530
2.050:534
2.051:538
2.051:541
2.051:539
2.052:539
2.052:540
2.052:540
2.053:539
2.070:541
2.072:543
2.072:542
2.073:542
2.073:544
2.073:552
2.074:560
2.074:567
2.074:570
2.075:573
2.075:571
2.075:570
2.075:571
2.076:570
2.076:569
2.076:571
2.076:577
2.077:584
2.079:583
2.079:570
2.079:572
2.079:582
2.080:589
2.080:598
2.080:598
2.081:607
2.081:625
2.082:628
2.082:621
2.082:599
2.099:599
2.099:597
2.099:607
2.100:628
2.100:625
2.100:622
2.100:614
2.100:609
2.103:608
2.103:616
2.103:620
2.105:627
2.106:626
2.106:633
2.107:640
2.108:643
2.108:640
2.108:633
2.108:635
2.109:639
2.109:646
2.110:652
2.110:651
2.110:648
2.110:646
2.111:645
2.111:648
2.112:649
2.112:648
2.112:641
2.128:631
2.128:636
2.128:648
2.128:654
2.129:658
2.132:655
2.132:654
2.132:657
2.132:663
2.133:662
2.133:654
2.133:653
2.133:642
2.133:642
2.136:643
2.136:639
2.136:638
2.136:641
2.137:644
2.137:640
2.137:633
2.138:628
2.138:625
2.138:627
2.140:650
2.140:639
2.140:636
2.140:631
2.140:628
2.140:626
2.156:626
2.156:622
2.156:614
2.156:603
2.161:599
2.161:592
2.161:591
2.161:581
2.161:577
2.162:577
2.162:573
2.162:564
2.163:560
2.164:556
2.165:557
2.167:552
2.167:545
2.167:535
2.167:533
2.167:537
2.168:524
2.169:512
2.170:507
2.170:501
2.171:497
2.172:492
2.173:481
2.173:464
2.174:462
2.174:460
2.185:451
2.192:437
2.194:426
2.196:424
2.197:433
2.197:438
2.198:432
2.198:423
2.199:417
2.199:412
2.200:398
2.200:386
2.200:384
2.200:382
2.201:374
2.203:367
2.203:389
2.203:376
2.203:372
2.203:371
2.203:372
2.204:373
2.204:373
2.205:367
2.205:363
2.207:366
2.209:371
2.211:372
2.212:369
2.212:370
2.218:370
2.218:365
2.218:363
2.219:367
2.219:371
2.219:375
2.219:370
2.219:363
2.219:347
2.221:340
2.222:352
2.222:354
2.222:342
2.222:346
2.222:358
2.223:372
2.224:377
2.224:381
2.224:382
2.226:374
2.227:358
2.228:359
2.228:363
2.228:368
2.228:368
2.229:374
2.229:382
2.230:383
2.230:376
2.231:371
2.247:370
2.248:372
2.249:371
2.250:372
2.251:370
2.251:376
2.251:389
2.252:394
2.252:424
2.253:418
2.253:415
2.255:407
2.256:400
2.260:398
2.262:393
2.262:393
2.262:397
2.263:401
2.263:403
2.263:405
2.264:404
2.265:398
2.265:402
2.265:402
2.266:407
2.266:416
2.267:416
2.268:413
2.268:414
2.268:419
2.275:419
2.275:424
2.276:429
2.276:428
2.276:424
2.279:423
2.279:421
2.279:417
2.280:415
2.280:413
2.280:419
2.280:423
2.280:425
2.281:428
2.281:431
2.283:433
2.283:438
2.283:444
2.284:442
2.284:440
2.284:444
2.284:448
2.284:448
2.284:448
2.287:448
2.288:447
2.288:440
2.289:440
2.291:444
2.293:443
2.303:473
2.305:459
2.308:452
2.308:445
2.309:434
2.310:431
2.311:438
2.311:453
2.311:462
2.312:465
2.312:463
2.312:468
2.313:466
2.313:452
2.313:448
2.314:447
2.314:452
2.315:456
2.315:455
2.315:453
2.316:457
2.316:459
2.316:457
2.317:457
2.317:453
2.318:454
2.318:468
2.318:472
2.319:466
2.319:459
2.332:459
2.337:461
2.337:465
2.337:470
2.343:467
2.345:469
2.345:466
2.346:464
2.347:467
2.348:463
2.349:457
2.350:456
2.351:463
2.351:463
2.352:464
2.352:467
2.352:468
2.353:470
2.353:474
2.354:475
2.355:474
2.355:477
2.356:511
2.356:500
2.357:491
2.357:484
2.358:478
2.358:471
2.359:468
2.360:471
2.365:469
2.365:474
2.366:477
2.366:474
2.366:470
2.367:468
2.367:464
2.369:464
2.370:478
2.370:475
2.371:476
2.372:481
2.372:486
2.372:486
2.373:486
2.374:485
2.375:480
2.376:479
2.378:481
2.378:480
2.379:477
2.380:480
2.380:478
2.381:473
2.381:471
2.381:473
2.381:472
2.381:472
2.382:477
2.382:481
2.394:481
2.394:485
2.395:489
2.395:487
2.396:481
2.396:475
2.397:473
2.398:484
2.398:488
2.399:478
2.399:459
2.399:463
2.400:469
2.400:472
2.400:492
2.400:480
2.401:474
2.402:474
2.402:480
2.402:482
2.403:483
2.403:483
2.404:485
2.404:486
2.405:491
2.406:489
2.409:482
2.411:483
2.411:485
2.411:483
2.424:485
2.426:481
2.427:479
2.427:475
2.428:476
2.429:480
2.429:483
2.430:481
2.431:485
2.431:486
2.431:482
2.431:486
2.432:495
2.432:499
2.432:495
2.432:487
2.433:483
2.433:480
2.434:476
2.434:475
2.434:475
2.435:476
2.435:477
2.435:479
2.435:475
2.436:475
2.436:483
2.437:486
2.437:489
2.437:492
2.451:492
2.451:492
2.455:491
2.455:492
2.456:489
2.458:491
2.459:505
2.460:501
2.461:490
2.462:487
2.462:484
2.463:484
2.465:485
2.465:486
2.465:489
2.465:488
2.466:484
2.466:482
2.466:482
2.468:485
2.468:492
2.468:493
2.469:492
2.469:491
2.470:499
2.471:501
2.471:494
2.472:492
2.474:489
2.475:487
2.483:490
2.484:488
2.484:484
2.485:481
2.485:479
2.485:480
2.485:483
2.485:481
2.486:482
2.488:489
2.488:493
2.492:492
2.493:492
2.494:495
2.494:496
2.494:493
2.495:492
2.495:489
2.495:486
2.495:486
2.495:490
2.496:490
2.496:484
2.496:482
2.496:483
2.497:482
2.498:481
2.499:481
2.499:522
2.499:509
2.513:509
2.514:503
2.514:498
2.514:499
2.515:502
2.515:502
2.515:502
2.515:500
2.516:496
2.517:500
2.517:500
2.518:492
2.518:487
2.518:478
2.518:478
2.518:480
2.519:478
2.520:475
2.521:484
2.521:495
2.521:498
2.523:502
2.524:499
2.526:491
2.526:487
2.527:487
2.527:496
2.527:503
2.527:503
2.527:502
2.542:501
2.543:498
2.543:496
2.544:493
2.544:490
2.546:490
2.547:494
2.547:495
2.547:497
2.548:496
2.548:495
2.548:494
2.548:496
2.549:495
2.549:501
2.549:502
2.550:505
2.550:505
2.550:505
2.550:498
2.550:523
2.550:508
2.551:497
2.551:490
2.554:490
2.554:496
2.554:496
2.555:493
2.555:492
2.556:491
2.570:491
2.571:493
2.573:493
2.575:491
2.576:494
2.577:496
2.577:497
2.578:501
2.578:503
2.578:499
2.578:492
2.578:498
2.579:510
2.579:509
2.580:511
2.581:508
2.581:498
2.582:483
2.582:478
2.582:482
2.582:480
2.582:483
2.583:494
2.583:496
2.584:496
2.584:498
2.584:500
2.585:498
2.585:495
2.585:487
2.603:485
2.603:494
2.604:497
2.604:499
2.605:497
2.606:497
2.607:498
2.608:502
2.610:496
2.610:497
2.611:487
2.612:490
2.612:521
2.613:511
2.613:502
2.615:498
2.615:499
2.615:504
2.615:507
2.615:504
2.615:501
2.615:497
2.615:498
2.615:502
2.615:500
2.616:496
2.616:496
2.616:499
2.616:502
2.617:497
2.631:497
2.631:496
2.631:501
2.632:504
2.632:500
2.632:501
2.633:509
2.634:510
2.634:506
2.635:503
2.635:495
2.636:491
2.637:497
2.637:499
2.637:502
2.638:502
2.638:502
2.642:499
2.643:494
2.643:491
2.644:494
2.644:498
2.644:506
2.645:507
2.645:504
2.645:503
2.646:509
2.646:514
2.646:522
2.646:525
2.660:513
2.660:507
2.660:503
2.661:496
2.661:524
2.661:500
2.664:494
2.664:492
2.664:489
2.664:489
2.664:483
2.665:484
2.665:492
2.665:495
2.665:491
2.667:495
2.668:501
2.668:502
2.668:504
2.668:504
2.668:497
2.670:494
2.671:496
2.672:498
2.675:498
2.677:498
2.677:498
2.678:500
2.679:505
2.679:508
2.690:508
2.692:508
2.694:507
2.694:512
2.694:510
2.694:508
2.695:505
2.695:507
2.696:513
2.697:512
2.698:508
2.698:506
2.698:511
2.698:522
2.698:536
2.699:532
2.699:510
2.699:504
2.700:504
2.700:518
2.700:525
2.701:525
2.701:511
2.701:510
2.701:516
2.701:515
2.702:542
2.702:521
2.702:518
2.702:519
2.717:519
2.717:518
2.721:515
2.722:516
2.724:516
2.725:516
2.727:516
2.727:524
2.727:524
2.727:525
2.727:527
2.728:530
2.730:530
2.731:531
2.731:530
2.731:524
2.731:527
2.732:550
2.732:564
2.732:564
2.732:562
2.732:550
2.733:544
2.733:542
2.733:539
2.733:535
2.733:532
2.734:538
2.734:536
2.734:533
2.746:533
2.750:526
2.750:528
2.751:528
2.751:529
2.751:526
2.751:531
2.752:531
2.752:536
2.752:544
2.754:535
2.755:527
2.755:533
2.755:530
2.757:527
2.758:527
2.759:525
2.760:523
2.760:548
2.760:534
2.762:523
2.762:514
2.764:514
2.764:516
2.765:510
2.765:496
2.765:489
2.765:491
2.765:494
2.765:494
2.779:493
2.780:490
2.780:483
2.781:476
2.781:468
2.781:473
2.781:473
2.782:467
2.782:471
2.782:475
2.782:473
2.784:473
2.784:478
2.784:469
2.784:464
2.784:465
2.785:470
2.788:468
2.789:465
2.790:472
2.793:481
2.794:480
2.794:476
2.794:472
2.795:472
2.796:477
2.797:474
2.798:460
2.798:464
2.799:472
2.810:472
2.811:471
2.811:459
2.812:450
2.812:459
2.813:475
2.813:480
2.814:483
2.815:486
2.816:489
2.816:510
2.817:501
2.817:473
2.817:465
2.818:472
2.818:476
2.819:480
2.819:480
2.819:476
2.821:481
2.822:483
2.826:484
2.827:483
2.828:483
2.828:475
2.831:472
2.832:474
2.832:479
2.832:486
2.832:493
2.839:496
2.842:488
2.843:480
2.844:481
2.844:483
2.845:484
2.846:484
2.847:478
2.847:480
2.848:481
2.848:480
2.849:480
2.849:471
2.849:460
2.850:455
2.851:459
2.851:463
2.851:463
2.851:457
2.851:450
2.851:441
2.851:430
2.852:422
2.852:413
2.855:403
2.855:405
2.859:408
2.859:413
2.861:415
2.861:420
2.864:420
2.864:426
2.868:439
2.868:438
2.871:434
2.873:448
2.874:480
2.876:511
2.876:542
2.876:576
2.877:612
2.877:652
2.878:684
2.878:721
2.878:763
2.880:797
2.880:843
2.880:887
2.881:926
2.881:952
2.881:989
2.881:989
2.882:988
2.882:988
2.882:987
2.882:986
2.883:986
2.883:986
2.883:985
2.883:985
2.897:985
2.897:985
2.899:985
2.899:986
2.899:986
2.899:986
2.899:987
2.899:987
2.899:988
2.901:988
2.902:989
2.902:989
2.903:954
2.903:901
2.903:836
2.903:767
2.906:699
2.912:621
2.912:529
2.912:443
2.912:376
2.912:327
2.912:288
2.914:266
2.914:257
2.915:236
2.915:230
2.916:223
2.916:218
2.917:204
2.926:204
2.927:204
2.927:212
2.927:218
2.928:228
2.928:232
2.928:239
2.930:256
2.931:272
2.931:291
2.931:310
2.931:326
2.931:345
2.932:356
2.932:367
2.932:374
2.932:371
2.934:373
2.934:377
2.934:375
2.934:381
2.935:389
2.936:394
2.936:398
2.936:396
2.936:394
2.936:395
2.938:399
2.941:399
2.942:396
2.955:393
2.957:401
2.958:403
2.959:402
2.959:406
2.961:406
2.961:402
2.961:404
2.962:409
2.962:406
2.962:402
2.962:404
2.962:409
2.963:411
2.963:410
2.963:415
2.963:445
2.963:443
2.964:442
2.964:440
2.964:434
2.964:439
2.964:441
2.966:442
2.967:441
2.967:436
2.967:436
2.968:440
2.968:441
2.970:441
2.983:441
2.983:442
2.983:443
2.984:442
2.987:442
2.988:445
2.992:448
2.992:455
2.993:463
2.994:468
2.995:473
2.995:477
2.996:478
2.996:478
2.996:473
2.996:468
2.997:466
2.997:465
2.997:468
2.998:470
2.998:465
2.998:461
2.999:460
2.999:462
3.000:469
3.000:474
3.000:479
3.000:479
3.000:484
3.000:484
3.016:480
3.017:478
3.017:485
3.018:492
3.018:494
3.018:496
3.019:495
3.019:492
3.020:516
3.021:507
3.021:500
3.021:493
3.023:489
3.023:493
3.023:493
3.024:491
3.024:496
3.024:505
3.025:509
3.025:510
3.026:510
3.027:513
3.027:520
3.027:525
3.027:525
3.027:511
3.028:503
3.028:505
3.028:508
3.029:513
3.045:513
3.045:509
3.046:510
3.046:515
3.046:520
3.046:518
3.046:517
3.047:514
3.047:515
3.049:523
3.049:525
3.049:523
3.049:524
3.050:532
3.050:540
3.051:544
3.051:541
3.051:537
3.053:541
3.053:540
3.055:544
3.056:545
3.059:549
3.061:552
3.062:557
3.063:556
3.063:559
3.063:559
3.064:560
3.064:564
3.076:592
3.078:580
3.079:578
3.080:578
3.081:575
3.082:570
3.082:568
3.082:569
3.082:571
3.083:569
3.083:573
3.083:578
3.084:582
3.084:580
3.085:575
3.085:583
3.087:585
3.088:583
3.089:583
3.092:590
3.094:596
3.095:603
3.096:607
3.096:609
3.096:613
3.097:609
3.097:612
3.097:617
3.097:629
3.098:634
3.102:634
3.104:634
3.104:621
3.104:608
3.105:613
3.106:626
3.106:624
3.106:619
3.107:618
3.107:621
3.108:635
3.110:643
3.111:640
3.112:640
3.112:642
3.112:648
3.112:648
3.112:645
3.112:639
3.113:638
3.113:640
3.113:644
3.113:672
3.114:654
3.114:649
3.114:648
3.115:646
3.115:650
3.115:646
3.115:640
3.130:644
3.131:650
3.135:649
3.135:652
3.135:656
3.136:660
3.137:664
3.138:661
3.139:655
3.141:651
3.142:646
3.142:646
3.144:645
3.144:639
3.144:636
3.145:634
3.145:629
3.145:627
3.145:625
3.145:624
3.146:628
3.146:630
3.146:629
3.146:625
3.146:625
3.147:621
3.147:613
3.147:604
3.147:603
3.147:603
3.160:603
3.164:591
3.164:584
3.164:578
3.164:574
3.165:572
3.165:568
3.165:556
3.165:545
3.166:539
3.168:531
3.168:527
3.168:521
3.168:516
3.169:537
3.169:518
3.170:510
3.171:504
3.171:499
3.171:489
3.173:476
3.174:465
3.174:457
3.175:445
3.176:434
3.176:434
3.177:427
3.177:417
3.178:409
3.178:413
3.192:417
3.192:417
3.193:412
3.193:403
3.193:397
3.193:401
3.193:406
3.196:402
3.196:394
3.197:386
3.197:378
3.197:374
3.197:370
3.198:365
3.198:363
3.198:363
3.198:358
3.201:352
3.201:349
3.201:345
3.201:345
3.201:351
3.202:354
3.202:352
3.202:353
3.203:355
3.204:354
3.205:354
3.205:356
3.206:353
3.221:353
3.221:353
3.221:354
3.221:358
3.221:355
3.221:358
3.225:381
3.225:371
3.225:359
3.226:358
3.226:357
3.226:357
3.227:362
3.227:361
3.227:361
3.228:367
3.229:373
3.230:372
3.230:373
3.231:376
3.231:382
3.231:382
3.232:384
3.232:381
3.232:375
3.233:380
3.233:382
3.234:379
3.234:377
3.234:372
3.249:370
3.250:378
3.250:388
3.254:387
3.254:388
3.254:390
3.255:394
3.256:400
3.256:402
3.256:409
3.257:411
3.257:409
3.258:407
3.258:404
3.258:400
3.259:401
3.260:410
3.260:415
3.260:410
3.261:408
3.262:417
3.262:419
3.263:418
3.263:410
3.264:413
3.265:419
3.265:425
3.266:442
3.266:446
3.266:430
3.278:430
3.278:420
3.282:417
3.283:416
3.283:422
3.284:426
3.284:429
3.288:431
3.291:432
3.292:432
3.292:426
3.293:426
3.294:425
3.295:432
3.295:436
3.296:440
3.296:439
3.297:440
3.297:441
3.298:437
3.299:437
3.299:437
3.300:434
3.300:441
3.301:449
3.301:449
3.304:450
3.305:450
3.306:450
3.306:452
3.312:454
3.312:452
3.312:444
3.313:443
3.314:450
3.314:453
3.315:466
3.316:476
3.316:471
3.317:473
3.317:475
3.318:470
3.320:466
3.322:464
3.324:460
3.325:450
3.325:446
3.325:452
3.326:455
3.326:461
3.326:474
3.327:469
3.327:468
3.327:466
3.328:462
3.328:458
3.328:456
3.329:459
3.329:462
3.329:464
3.341:464
3.341:464
3.343:465
3.343:468
3.344:466
3.344:464
3.344:462
3.345:462
3.346:460
3.346:461
3.347:467
3.348:472
3.348:475
3.350:477
3.350:475
3.351:476
3.352:478
3.355:483
3.355:483
3.356:482
3.356:483
3.357:483
3.358:477
3.358:475
3.359:470
3.359:473
3.360:471
3.360:468
3.360:463
3.361:461
3.372:464
3.373:464
3.373:469
3.375:475
3.375:481
3.376:482
3.376:479
3.376:478
3.377:473
3.377:473
3.378:475
3.380:481
3.380:505
3.380:479
3.381:467
3.382:467
3.382:472
3.383:471
3.383:475
3.384:478
3.384:475
3.385:470
3.385:468
3.388:466
3.389:469
3.390:471
3.390:471
3.390:471
3.391:476
3.391:475
3.396:475
3.397:470
3.397:467
3.401:465
3.401:467
3.402:472
3.403:479
3.404:481
3.404:478
3.405:475
3.405:475
3.406:475
3.406:477
3.407:486
3.407:488
3.407:495
3.407:496
3.408:490
3.408:487
3.408:487
3.408:481
3.409:476
3.410:474
3.410:477
3.411:475
3.411:474
3.412:475
3.412:473
3.412:467
3.413:468
3.430:478
3.430:478
3.431:480
3.431:481
3.431:500
3.432:487
3.432:479
3.432:476
3.432:479
3.432:485
3.434:487
3.435:485
3.435:482
3.436:483
3.437:484
3.438:479
3.438:476
3.439:470
3.439:473
3.439:481
3.440:484
3.440:481
3.441:472
3.441:470
3.442:472
3.442:474
3.442:474
3.443:477
3.443:485
3.444:491
3.459:491
3.459:491
3.459:489
3.459:487
3.459:478
3.460:473
3.460:471
3.460:471
3.461:465
3.463:464
3.463:466
3.463:471
3.464:471
3.464:480
3.464:482
3.464:468
3.465:468
3.465:471
3.467:475
3.467:481
3.467:484
3.468:485
3.468:486
3.468:484
3.470:488
3.471:491
3.471:499
3.471:510
3.471:494
3.471:478
3.487:470
3.488:474
3.488:477
3.488:482
3.489:482
3.489:479
3.490:478
3.491:478
3.491:479
3.491:483
3.491:482
3.491:484
3.492:485
3.492:487
3.492:486
3.495:483
3.495:482
3.495:483
3.495:476
3.495:472
3.496:483
3.496:487
3.496:487
3.496:489
3.496:489
3.498:488
3.499:488
3.499:484
3.499:481
3.499:474
3.516:474
3.516:484
3.516:492
3.517:496
3.517:498
3.520:496
3.521:489
3.521:483
3.522:485
3.522:486
3.522:489
3.523:493
3.523:496
3.523:493
3.523:486
3.524:483
3.524:488
3.524:492
3.525:518
3.525:495
3.525:484
3.525:479
3.525:483
3.526:492
3.528:492
3.528:490
3.528:485
3.528:482
3.528:484
3.528:487
3.544:489
3.544:490
3.548:491
3.548:496
3.548:496
3.549:497
3.550:495
3.550:490
3.550:480
3.550:482
3.551:479
3.553:488
3.554:492
3.555:494
3.555:496
3.555:492
3.556:488
3.556:487
3.556:487
3.556:485
3.556:485
3.557:484
3.557:484
3.557:475
3.557:472
3.558:475
3.558:474
3.558:483
3.558:488
3.558:481
3.572:481
3.577:479
3.577:486
3.577:495
3.577:496
3.577:489
3.578:484
3.578:487
3.578:490
3.578:496
3.581:525
3.581:510
3.581:501
3.582:495
3.582:492
3.582:486
3.583:484
3.583:484
3.583:487
3.584:487
3.586:484
3.588:483
3.590:487
3.591:499
3.592:496
3.592:490
3.593:491
3.594:493
3.594:491
3.595:493
3.606:490
3.607:490
3.608:489
3.609:489
3.609:487
3.610:486
3.610:484
3.611:483
3.612:487
3.612:487
3.612:481
3.613:482
3.613:483
3.614:493
3.614:499
3.614:499
3.615:489
3.615:483
3.616:483
3.616:489
3.617:488
3.617:479
3.617:475
3.618:472
3.621:468
3.622:467
3.623:472
3.624:477
3.624:481
3.625:486
3.636:486
3.638:489
3.639:512
3.639:509
3.640:499
3.640:491
3.641:488
3.641:484
3.641:482
3.641:491
3.642:496
3.642:490
3.642:479
3.642:482
3.643:486
3.643:489
3.643:486
3.643:487
3.644:492
3.644:499
3.644:506
3.644:509
3.645:504
3.645:502
3.645:501
3.647:499
3.647:493
3.647:487
3.647:489
3.648:483
3.662:484
3.663:488
3.663:490
3.668:490
3.668:492
3.668:495
3.670:494
3.671:494
3.671:493
3.671:494
3.671:494
3.672:500
3.672:510
3.672:511
3.672:511
3.672:513
3.672:507
3.674:503
3.674:499
3.674:497
3.675:500
3.675:502
3.676:501
3.676:516
3.676:520
3.677:512
3.677:507
3.677:501
3.678:496
3.678:504
3.692:504
3.692:502
3.696:499
3.696:507
3.697:511
3.697:519
3.697:521
3.698:520
3.698:520
3.699:518
3.699:517
3.700:518
3.700:515
3.701:519
3.701:513
3.702:503
3.703:500
3.704:505
3.704:508
3.704:516
3.705:524
3.705:527
3.705:528
3.705:529
3.705:532
3.706:532
3.706:532
3.706:530
3.706:533
3.706:537
3.725:538
3.725:545
3.725:552
3.726:549
3.726:543
3.726:534
3.726:534
3.726:534
3.729:534
3.729:535
3.729:535
3.729:532
3.729:526
3.730:524
3.730:528
3.730:528
3.730:560
3.731:553
3.733:540
3.733:534
3.733:531
3.733:528
3.734:521
3.734:524
3.734:529
3.734:534
3.735:530
3.736:527
3.737:523
3.737:524
3.754:524
3.756:531
3.757:522
3.757:519
3.758:523
3.758:526
3.759:521
3.760:515
3.760:502
3.761:499
3.761:497
3.761:493
3.762:489
3.762:484
3.762:479
3.762:487
3.763:489
3.763:483
3.763:481
3.764:476
3.764:472
3.764:469
3.765:472
3.765:472
3.766:476
3.766:483
3.767:482
3.767:479
3.767:478
3.770:474
3.782:471
3.782:466
3.782:464
3.782:462
3.786:465
3.788:470
3.788:474
3.789:470
3.789:489
3.790:478
3.790:475
3.791:474
3.791:473
3.791:474
3.792:473
3.792:476
3.793:478
3.793:476
3.794:472
3.794:467
3.794:467
3.794:464
3.794:466
3.795:466
3.795:464
3.795:464
3.796:464
3.796:467
3.797:477
3.797:476
3.810:476
3.810:482
3.810:488
3.814:496
3.815:496
3.815:482
3.815:480
3.816:483
3.816:484
3.816:481
3.817:478
3.817:477
3.819:476
3.820:479
3.821:478
3.821:473
3.822:474
3.822:472
3.822:468
3.822:469
3.822:477
3.823:475
3.823:476
3.824:482
3.824:488
3.824:493
3.825:495
3.825:487
3.826:487
3.826:481
3.843:490
3.843:470
3.844:460
3.844:454
3.844:439
3.845:426
3.845:422
3.845:423
3.845:418
3.845:410
3.847:406
3.847:403
3.848:403
3.848:408
3.850:411
3.850:413
3.850:421
3.851:431
3.851:444
3.852:461
3.852:480
3.853:499
3.853:523
3.853:551
3.854:582
3.854:617
3.854:654
3.855:697
3.855:735
3.856:768
3.872:768
3.872:806
3.872:847
3.873:893
3.873:947
3.873:989
3.874:989
3.874:988
3.875:987
3.876:986
3.876:986
3.876:985
3.877:985
3.877:986
3.878:985
3.878:985
3.878:986
3.879:986
3.879:986
3.881:987
3.881:987
3.881:987
3.881:987
3.882:988
3.882:989
3.882:989
3.882:946
3.882:893
3.884:828
3.885:758
3.901:689
3.901:606
3.902:523
3.904:447
3.904:381
3.905:317
3.905:269
3.906:244
3.906:230
3.906:220
3.907:215
3.907:212
3.908:215
3.908:225
3.909:223
3.909:224
3.909:229
3.910:237
3.910:238
3.910:243
3.911:251
3.911:257
3.911:268
3.911:276
3.912:286
3.913:297
3.913:316
3.913:336
3.914:351
3.914:362
3.929:362
3.929:379
3.929:386
3.930:391
3.930:398
3.933:398
3.933:400
3.933:406
3.933:414
3.934:413
3.935:415
3.937:421
3.937:421
3.937:420
3.937:451
3.938:434
3.938:424
3.938:416
3.938:421
3.939:421
3.940:417
3.940:418
3.940:417
3.940:421
3.942:426
3.942:424
3.942:424
3.942:433
3.942:442
3.943:444
3.958:440
3.962:436
3.962:431
3.962:433
3.962:438
3.963:444
3.963:449
3.963:449
3.963:453
3.963:453
3.964:450
3.966:453
3.966:450
3.966:457
3.966:462
3.967:463
3.967:461
3.967:460
3.969:466
3.969:474
3.970:474
3.970:475
3.970:476
3.970:477
3.971:476
3.971:472
3.971:467
3.971:465
3.971:477
3.972:484
3.986:484
3.990:477
3.990:461
3.991:456
3.991:465
3.991:471
3.991:508
3.991:491
3.992:481
3.992:494
3.995:504
3.995:501
3.996:501
3.996:493
3.996:489
3.997:487
3.997:492
3.998:487
3.998:484
3.998:488
3.999:490
4.000:491
4.000:496
4.001:499
4.001:505
4.002:508
4.003:504
4.004:503
4.005:505
4.006:512
4.020:519
4.021:524
4.021:521
4.022:526
4.022:528
4.023:523
4.023:521
4.023:514
4.024:511
4.024:510
4.024:512
4.025:513
4.025:513
4.025:514
4.026:524
4.026:530
4.028:529
4.028:531
4.028:532
4.028:537
4.029:542
4.029:543
4.029:542
4.029:539
4.030:538
4.030:541
4.032:540
4.032:559
4.032:551
4.032:545
4.048:545
4.048:542
4.048:535
4.049:534
4.049:540
4.049:547
4.052:552
4.052:548
4.052:548
4.052:555
4.053:568
4.053:576
4.053:574
4.053:569
4.053:572
4.056:575
4.056:571
4.057:570
4.057:564
4.057:562
4.057:571
4.057:574
4.058:570
4.058:569
4.058:571
4.060:575
4.060:583
4.060:590
4.060:595
4.060:598
4.076:600
4.076:600
4.076:601
4.081:599
4.081:600
4.082:600
4.082:601
4.082:608
4.082:609
4.082:611
4.083:610
4.083:611
4.085:606
4.085:605
4.086:610
4.087:615
4.087:619
4.087:622
4.087:626
4.087:651
4.087:662
4.087:654
4.089:646
4.089:643
4.089:646
4.090:649
4.090:650
4.090:649
4.090:641
4.090:632
4.105:632
4.105:635
4.110:641
4.111:643
4.111:639
4.111:638
4.112:644
4.112:655
4.113:652
4.113:646
4.113:655
4.114:666
4.114:665
4.114:660
4.115:660
4.115:662
4.115:661
4.115:660
4.117:662
4.118:656
4.119:647
4.120:639
4.120:633
4.121:635
4.121:643
4.121:641
4.122:642
4.122:645
4.122:649
4.122:651
4.138:649
4.138:651
4.139:651
4.139:646
4.139:638
4.139:629
4.139:623
4.140:614
4.142:613
4.142:610
4.142:608
4.142:612
4.144:610
4.144:584
4.144:572
4.144:564
4.144:561
4.145:559
4.147:556
4.147:548
4.147:539
4.147:541
4.147:537
4.148:533
4.148:531
4.148:521
4.148:516
4.151:512
4.151:509
4.151:496
4.166:496
4.166:484
4.167:478
4.168:470
4.168:463
4.168:457
4.168:448
4.171:437
4.171:428
4.171:427
4.171:423
4.171:418
4.172:421
4.172:424
4.172:419
4.172:413
4.172:403
4.175:400
4.175:397
4.175:394
4.175:381
4.176:370
4.177:364
4.177:360
4.177:356
4.177:351
4.179:347
4.179:347
4.179:347
4.180:341
4.195:339
4.195:346
4.195:357
4.196:359
4.200:387
4.200:369
4.201:356
4.202:351
4.202:346
4.202:345
4.203:339
4.203:342
4.203:342
4.204:339
4.204:338
4.204:339
4.204:336
4.205:336
4.205:343
4.205:350
4.205:352
4.206:349
4.206:357
4.208:362
4.208:364
4.208:357
4.209:353
4.209:359
4.209:362
4.209:361
4.223:361
4.224:356
4.224:356
4.229:360
4.229:360
4.229:354
4.229:349
4.229:353
4.230:362
4.230:375
4.230:378
4.230:374
4.231:374
4.232:379
4.233:381
4.233:384
4.233:386
4.233:387
4.233:387
4.234:390
4.234:392
4.235:389
4.236:383
4.237:385
4.237:388
4.238:386
4.238:406
4.238:393
4.239:396
4.239:400
4.257:401
4.257:393
4.258:395
4.258:405
4.258:410
4.259:411
4.259:413
4.259:414
4.259:414
4.260:417
4.261:414
4.261:404
4.261:400
4.262:402
4.262:406
4.263:401
4.263:406
4.263:408
4.264:412
4.265:414
4.265:412
4.265:408
4.266:419
4.266:441
4.266:447
4.268:439
4.268:435
4.269:433
4.269:437
4.270:436
4.285:436
4.286:428
4.286:422
4.286:419
4.286:423
4.287:431
4.287:432
4.287:423
4.287:420
4.289:423
4.289:429
4.289:436
4.289:441
4.290:449
4.290:455
4.291:458
4.291:449
4.291:442
4.293:471
4.294:461
4.294:456
4.294:448
4.295:442
4.295:443
4.295:443
4.296:438
4.296:438
4.296:439
4.297:435
4.298:442
4.314:455
4.315:460
4.315:459
4.315:462
4.316:465
4.318:468
4.319:463
4.319:464
4.319:468
4.319:470
4.320:470
4.320:466
4.320:461
4.320:459
4.321:460
4.322:454
4.323:445
4.323:443
4.323:447
4.323:455
4.324:464
4.324:469
4.324:472
4.324:474
4.326:481
4.326:482
4.326:479
4.327:477
4.327:476
4.327:480
4.342:480
4.343:479
4.343:473
4.343:465
4.347:465
4.347:472
4.347:472
4.347:469
4.347:467
4.348:465
4.349:496
4.349:480
4.349:472
4.349:472
4.351:471
4.351:473
4.351:478
4.352:483
4.352:480
4.352:474
4.352:472
4.353:470
4.354:470
4.354:466
4.355:466
4.355:468
4.355:464
4.356:462
4.356:464
4.356:460
4.371:463
4.376:465
4.376:465
4.377:468
4.377:473
4.377:483
4.378:484
4.378:480
4.379:476
4.379:479
4.380:481
4.380:483
4.381:481
4.381:474
4.382:469
4.382:464
4.382:461
4.383:464
4.383:462
4.385:462
4.385:469
4.386:475
4.386:482
4.386:481
4.387:481
4.387:487
4.387:491
4.387:491
4.388:483
4.388:477
4.404:477
4.404:481
4.404:510
4.405:488
4.405:482
4.405:485
4.405:481
4.405:472
4.406:468
4.406:465
4.408:466
4.408:474
4.408:479
4.409:476
4.409:467
4.409:472
4.410:486
4.410:490
4.410:486
4.412:477
4.412:473
4.412:478
4.412:478
4.413:478
4.413:477
4.413:470
4.413:470
4.414:471
4.414:473
4.416:476
4.433:481
4.433:485
4.433:487
4.433:483
4.434:479
4.434:481
4.435:490
4.437:491
4.437:481
4.437:473
4.437:473
4.437:476
4.438:483
4.438:482
4.439:477
4.439:470
4.441:472
4.441:477
4.441:470
4.441:470
4.441:478
4.441:488
4.441:489
4.441:503
4.442:495
4.442:497
4.445:499
4.445:493
4.445:492
4.445:497
4.461:497
4.462:497
4.462:496
4.462:491
4.462:486
4.462:480
4.466:478
4.466:483
4.466:480
4.466:475
4.467:472
4.468:473
4.468:479
4.468:479
4.468:480
4.470:482
4.470:488
4.470:498
4.470:501
4.471:497
4.471:496
4.471:490
4.471:491
4.471:493
4.471:493
4.474:486
4.474:485
4.474:484
4.474:481
4.475:475
4.490:473
4.490:473
4.490:485
4.494:487
4.495:482
4.495:480
4.495:489
4.495:497
4.495:495
4.496:489
4.496:491
4.496:490
4.499:492
4.499:494
4.499:493
4.499:501
4.499:507
4.499:495
4.500:486
4.501:480
4.501:482
4.501:483
4.502:490
4.502:492
4.503:490
4.503:489
4.503:492
4.503:499
4.504:500
4.504:490
4.519:490
4.519:490
4.523:488
4.524:489
4.524:491
4.524:490
4.524:488
4.524:489
4.525:491
4.525:490
4.525:482
4.527:482
4.527:481
4.528:486
4.528:490
4.528:489
4.529:492
4.529:507
4.529:510
4.531:502
4.531:496
4.531:493
4.532:496
4.532:494
4.532:492
4.532:493
4.533:488
4.534:486
4.534:485
4.534:485
4.552:481
4.552:479
4.552:481
4.552:485
4.553:494
4.553:501
4.553:503
4.553:511
4.556:519
4.556:509
4.556:502
4.556:501
4.557:503
4.557:497
4.557:497
4.557:495
4.558:487
4.558:492
4.560:493
4.560:491
4.560:490
4.560:487
4.560:485
4.561:492
4.561:496
4.561:494
4.561:494
4.564:494
4.564:496
4.564:494
4.580:494
4.580:495
4.581:496
4.581:492
4.581:493
4.581:491
4.582:489
4.585:487
4.585:495
4.585:503
4.585:499
4.586:487
4.586:482
4.586:482
4.586:486
4.586:491
4.587:492
4.588:491
4.589:498
4.589:503
4.589:503
4.589:503
4.589:499
4.590:497
4.590:498
4.590:502
4.593:498
4.593:495
4.593:491
4.593:492
4.609:509
4.609:487
4.609:479
4.610:481
4.613:489
4.613:494
4.613:496
4.615:496
4.615:501
4.615:505
4.616:501
4.616:502
4.616:502
4.617:493
4.617:496
4.617:497
4.619:495
4.619:493
4.619:492
4.619:494
4.620:494
4.620:487
4.621:484
4.621:488
4.621:492
4.621:490
4.621:488
4.622:490
4.622:503
4.622:510
4.637:510
4.638:506
4.638:503
4.642:510
4.642:507
4.643:504
4.643:506
4.644:502
4.644:492
4.645:491
4.645:495
4.646:494
4.646:493
4.646:499
4.647:499
4.647:512
4.647:516
4.647:516
4.648:514
4.648:514
4.648:513
4.648:516
4.650:541
4.651:520
4.651:512
4.652:520
4.652:524
4.652:518
4.652:512
4.652:510
4.671:512
4.671:507
4.671:502
4.672:502
4.672:507
4.672:517
4.672:521
4.672:513
4.672:505
4.675:519
4.675:525
4.675:525
4.675:522
4.675:523
4.675:526
4.675:532
4.675:528
4.675:525
4.676:517
4.679:522
4.679:528
4.679:526
4.679:522
4.680:525
4.680:532
4.680:539
4.680:541
4.680:538
4.683:533
4.683:537
4.699:537
4.700:544
4.700:536
4.701:531
4.701:529
4.701:531
4.701:537
4.701:535
4.701:526
4.703:522
4.703:522
4.703:527
4.704:523
4.704:513
4.704:539
4.704:524
4.705:526
4.705:525
4.707:521
4.707:516
4.707:524
4.707:530
4.708:528
4.708:524
4.708:520
4.708:518
4.708:521
4.709:520
4.710:510
4.710:496
4.728:482
4.728:479
4.729:474
4.729:472
4.729:471
4.732:471
4.732:476
4.732:476
4.733:469
4.734:471
4.734:483
4.734:489
4.735:481
4.735:468
4.735:466
4.736:468
4.737:471
4.737:469
4.738:465
4.738:461
4.738:462
4.739:464
4.739:464
4.739:465
4.739:469
4.739:472
4.739:478
4.740:482
4.740:479
4.740:479
4.756:479
4.757:486
4.757:489
4.757:482
4.760:482
4.760:482
4.761:505
4.761:487
4.761:479
4.761:472
4.762:464
4.762:467
4.762:471
4.762:468
4.764:461
4.765:465
4.765:470
4.765:470
4.765:471
4.765:466
4.766:459
4.766:472
4.767:489
4.769:495
4.769:496
4.769:491
4.769:485
4.769:483
4.769:479
4.769:473
4.784:467
4.789:472
4.789:476
4.790:471
4.790:464
4.790:466
4.790:472
4.790:490
4.791:491
4.791:486
4.791:480
4.793:485
4.793:487
4.793:478
4.794:480
4.794:484
4.794:477
4.794:481
4.794:476
4.795:467
4.797:465
4.797:461
4.797:453
4.798:445
4.798:437
4.798:426
4.799:409
4.799:440
4.799:424
4.800:413
4.818:413
4.818:407
4.818:412
4.818:422
4.819:421
4.819:416
4.819:420
4.819:429
4.819:439
4.819:449
4.821:460
4.822:477
4.822:501
4.823:526
4.823:548
4.823:581
4.824:614
4.824:646
4.825:695
4.825:735
4.826:768
4.826:802
4.826:841
4.827:892
4.827:934
4.828:974
4.828:989
4.828:989
4.830:988
4.830:988
4.847:987
4.847:987
4.848:986
4.848:985
4.849:985
4.849:985
4.850:985
4.851:986
4.851:987
4.851:987
4.851:987
4.851:987
4.851:987
4.851:988
4.852:988
4.852:989
4.854:989
4.855:956
4.855:910
4.855:865
4.855:775
4.855:691
4.856:614
4.856:529
4.856:445
4.856:374
4.858:322
4.858:284
4.859:269
4.859:247
4.875:247
4.875:234
4.875:229
4.875:228
4.876:230
4.876:231
4.879:223
4.879:216
4.880:218
4.880:232
4.881:242
4.881:247
4.882:250
4.882:262
4.884:281
4.885:293
4.886:307
4.886:324
4.886:339
4.886:358
4.887:374
4.887:386
4.887:395
4.887:403
4.888:406
4.888:397
4.888:391
4.888:391
4.889:400
4.889:407
4.903:405
4.903:399
4.907:389
4.908:385
4.908:392
4.909:394
4.909:395
4.909:395
4.909:394
4.910:403
4.910:408
4.910:426
4.912:429
4.912:424
4.912:430
4.912:429
4.913:425
4.913:417
4.913:420
4.913:424
4.913:434
4.914:435
4.916:430
4.917:431
4.917:432
4.918:427
4.918:426
4.919:427
4.919:427
4.919:435
4.932:435
4.933:437
4.937:430
4.937:429
4.937:441
4.937:448
4.938:452
4.938:454
4.938:451
4.938:451
4.939:451
4.941:454
4.941:452
4.941:450
4.941:458
4.941:466
4.942:465
4.942:466
4.942:462
4.942:455
4.942:460
4.945:466
4.945:463
4.945:461
4.945:465
4.946:480
4.946:486
4.946:487
4.946:483
4.946:480
4.965:485
4.965:488
4.967:486
4.967:485
4.967:495
4.968:484
4.968:473
4.968:470
4.969:469
4.969:473
4.969:484
4.969:489
4.970:491
4.970:492
4.970:503
4.970:505
4.971:499
4.974:494
4.974:494
4.974:495
4.975:503
4.975:506
4.976:500
4.976:497
4.976:499
4.977:499
4.977:495
4.978:489
4.978:495
4.978:504
4.993:504
4.994:515
4.994:518
4.994:516
4.994:513
4.994:518
4.995:519
4.998:519
4.998:526
4.998:530
5.000:533
5.002:539
5.002:540
5.003:530
5.003:520
5.004:519
5.004:526
5.004:524
5.004:520
5.005:520
5.005:522
5.005:531
5.005:532
5.006:535
5.006:542
5.006:549
5.007:578
5.007:562
5.007:559
5.007:555
5.022:557
5.022:557
5.022:557
5.022:554
5.027:552
5.027:555
5.027:560
5.028:557
5.028:557
5.028:558
5.028:563
5.029:575
5.029:578
5.030:569
5.031:571
5.032:584
5.032:594
5.032:589
5.032:584
5.033:583
5.033:583
5.034:588
5.034:589
5.035:587
5.035:586
5.035:583
5.036:586
5.036:587
5.036:587
5.036:591
5.051:591
5.051:590
5.051:602
5.055:610
5.055:611
5.055:615
5.055:626
5.056:635
5.056:632
5.056:627
5.056:629
5.056:632
5.059:639
5.059:642
5.060:640
5.060:632
5.060:633
5.060:635
5.060:655
5.061:632
5.061:623
5.061:622
5.064:633
5.064:636
5.064:638
5.064:640
5.065:652
5.065:661
5.065:662
5.065:658
5.084:658
5.084:655
5.085:654
5.085:657
5.085:652
5.085:647
5.086:654
5.086:651
5.086:645
5.088:640
5.088:638
5.089:638
5.089:645
5.089:645
5.090:642
5.090:643
5.090:649
5.090:650
5.090:653
5.092:651
5.092:645
5.092:640
5.093:634
5.093:633
5.093:628
5.093:625
5.094:622
5.094:617
5.096:607
5.096:603
5.113:603
5.113:600
5.113:598
5.113:606
5.114:604
5.114:600
5.114:594
5.114:594
5.116:589
5.117:581
5.117:597
5.117:568
5.118:554
5.118:545
5.118:539
5.118:526
5.119:516
5.119:511
5.121:504
5.121:493
5.121:487
5.121:478
5.122:471
5.122:474
5.122:469
5.122:467
5.122:462
5.125:456
5.125:450
5.125:444
5.141:438
5.142:428
5.142:420
5.142:413
5.142:412
5.146:406
5.146:393
5.146:387
5.146:389
5.147:392
5.147:391
5.147:383
5.147:373
5.148:367
5.148:358
5.150:362
5.151:372
5.151:379
5.151:383
5.152:384
5.152:383
5.152:375
5.152:366
5.152:355
5.153:358
5.153:362
5.153:358
5.153:353
5.153:353
5.154:352
5.170:352
5.170:353
5.170:386
5.171:362
5.174:350
5.174:345
5.174:356
5.174:368
5.175:366
5.175:366
5.175:368
5.175:363
5.176:362
5.176:358
5.179:353
5.179:353
5.179:355
5.179:360
5.179:364
5.180:366
5.180:372
5.180:373
5.180:370
5.182:367
5.182:372
5.183:378
5.183:380
5.183:381
5.183:386
5.183:384
5.198:383
5.203:388
5.203:389
5.203:387
5.204:384
5.204:384
5.204:382
5.205:381
5.205:386
5.205:388
5.206:387
5.207:387
5.207:384
5.208:380
5.208:383
5.209:385
5.209:391
5.209:400
5.210:406
5.210:408
5.211:410
5.211:415
5.211:415
5.212:415
5.212:436
5.213:423
5.213:412
5.213:407
5.214:405
5.214:411
5.231:411
5.231:416
5.231:420
5.233:417
5.233:416
5.233:424
5.234:432
5.234:437
5.234:437
5.234:435
5.235:434
5.235:428
5.236:422
5.236:415
5.237:420
5.237:428
5.237:436
5.238:440
5.238:440
5.240:437
5.240:435
5.240:433
5.241:436
5.241:439
5.241:437
5.242:440
5.242:444
5.242:439
5.243:437
5.244:437
5.260:445
5.260:450
5.260:445
5.260:441
5.261:441
5.261:441
5.264:448
5.264:449
5.264:451
5.265:453
5.266:452
5.266:450
5.266:448
5.266:451
5.266:450
5.266:474
5.268:464
5.269:451
5.269:453
5.270:455
5.270:459
5.270:460
5.270:457
5.271:454
5.271:451
5.271:449
5.272:452
5.273:448
5.273:449
5.273:454
5.289:454
5.289:454
5.289:453
5.289:451
5.289:450
5.290:446
5.292:453
5.293:466
5.293:476
5.294:480
5.294:472
5.294:473
5.295:484
5.295:483
5.295:477
5.296:470
5.297:464
5.297:462
5.297:464
5.298:458
5.298:456
5.299:461
5.300:465
5.300:465
5.301:465
5.301:465
5.301:473
5.301:472
5.302:468
5.302:476
5.317:479
5.317:481
5.321:484
5.321:486
5.322:486
5.322:485
5.322:479
5.323:474
5.323:474
5.323:478
5.324:493
5.324:473
5.328:468
5.328:468
5.328:471
5.328:474
5.328:478
5.328:477
5.330:476
5.330:474
5.330:477
5.331:481
5.331:478
5.331:479
5.331:477
5.332:473
5.332:472
5.333:470
5.333:473
5.334:474
5.345:474
5.350:476
5.350:476
5.351:472
5.351:469
5.351:475
5.351:481
5.351:481
5.352:478
5.352:479
5.352:481
5.354:474
5.355:476
5.355:484
5.355:487
5.355:486
5.355:488
5.356:486
5.356:481
5.356:478
5.356:480
5.358:485
5.358:489
5.359:488
5.359:483
5.359:479
5.359:480
5.359:483
5.360:476
5.360:482
5.378:491
5.379:483
5.379:481
5.379:474
5.379:475
5.380:476
5.380:478
5.380:482
5.383:487
5.383:483
5.383:482
5.384:485
5.384:490
5.384:486
5.384:478
5.384:476
5.384:479
5.386:485
5.387:485
5.387:490
5.387:495
5.387:498
5.387:501
5.387:496
5.387:492
5.387:487
5.388:482
5.391:481
5.391:480
5.391:480
5.407:480
5.407:479
5.408:474
5.408:472
5.408:478
5.408:480
5.408:482
5.412:481
5.412:482
5.412:483
5.412:484
5.413:489
5.413:491
5.413:488
5.413:486
5.413:486
5.416:484
5.416:483
5.416:484
5.417:481
5.417:479
5.418:477
5.418:498
5.418:480
5.418:471
5.418:472
5.420:476
5.420:484
5.421:486
5.421:484
5.436:489
5.436:491
5.436:494
5.437:491
5.440:492
5.440:492
5.441:492
5.441:492
5.441:491
5.441:493
5.441:487
5.442:479
5.442:478
5.444:484
5.444:484
5.444:484
5.444:486
5.444:487
5.445:486
5.445:487
5.445:490
5.445:493
5.446:503
5.448:510
5.450:505
5.450:496
5.452:493
5.452:531
5.452:504
5.452:501
5.464:501
5.464:500
5.464:492
5.469:490
5.469:491
5.469:489
5.470:479
5.470:483
5.470:486
5.470:490
5.470:489
5.471:490
5.473:489
5.473:495
5.473:525
5.474:508
5.474:499
5.475:487
5.475:482
5.475:482
5.476:483
5.476:479
5.477:479
5.477:480
5.477:483
5.477:485
5.478:487
5.478:489
5.478:491
5.478:496
5.498:496
5.498:494
5.498:495
5.499:496
5.499:495
5.499:489
5.499:490
5.500:494
5.500:495
5.502:491
5.502:486
5.502:484
5.502:484
5.503:485
5.503:486
5.503:485
5.503:484
5.503:492
5.504:488
5.506:488
5.506:492
5.507:498
5.507:501
5.507:501
5.507:497
5.507:489
5.507:489
5.508:488
5.510:487
5.510:484
5.527:484
5.527:486
5.527:492
5.528:500
5.528:507
5.528:503
5.529:532
5.529:513
5.530:503
5.531:500
5.531:496
5.531:488
5.532:487
5.532:488
5.533:490
5.533:491
5.533:495
5.533:502
5.534:501
5.535:500
5.535:501
5.535:499
5.536:494
5.536:489
5.536:492
5.536:491
5.537:491
5.538:494
5.539:493
5.540:489
5.554:489
5.554:488
5.555:484
5.555:490
5.556:498
5.559:500
5.560:499
5.560:496
5.561:490
5.562:489
5.562:488
5.562:490
5.563:493
5.563:498
5.563:503
5.563:502
5.564:497
5.564:493
5.564:497
5.564:498
5.565:499
5.565:499
5.566:500
5.566:502
5.567:506
5.567:505
5.567:501
5.568:529
5.568:506
5.568:499
5.584:499
5.584:495
5.584:496
5.584:494
5.587:494
5.588:497
5.588:495
5.588:493
5.589:492
5.589:491
5.590:492
5.591:491
5.592:496
5.592:505
5.592:504
5.592:507
5.592:501
5.592:500
5.592:496
5.593:492
5.593:493
5.593:495
5.593:496
5.596:492
5.596:492
5.596:494
5.596:497
5.597:498
5.597:501
5.597:497
5.612:493
5.616:502
5.616:503
5.616:504
5.616:504
5.616:506
5.616:511
5.617:508
5.617:499
5.617:493
5.621:487
5.621:483
5.621:484
5.621:486
5.621:491
5.621:494
5.622:492
5.622:489
5.622:495
5.622:534
5.625:527
5.625:525
5.625:523
5.625:516
5.626:513
5.626:513
5.626:514
5.626:512
5.626:512
5.627:508
5.645:508
5.645:502
5.646:495
5.646:497
5.647:496
5.647:501
5.648:508
5.649:511
5.651:513
5.652:513
5.653:516
5.653:516
5.653:518
5.654:518
5.655:520
5.655:525
5.656:532
5.656:535
5.657:534
5.657:533
5.658:527
5.658:524
5.659:520
5.660:518
5.660:518
5.661:519
5.661:520
5.662:519
5.662:510
5.663:512
5.674:516
5.674:524
5.674:534
5.674:538
5.675:540
5.675:541
5.678:549
5.678:551
5.678:549
5.678:549
5.680:550
5.680:570
5.681:557
5.681:547
5.682:541
5.683:538
5.683:540
5.684:539
5.684:534
5.684:532
5.684:530
5.685:526
5.685:531
5.685:530
5.685:531
5.686:533
5.687:535
5.687:534
5.687:532
5.688:532
5.702:532
5.702:529
5.703:526
5.703:523
5.703:528
5.706:524
5.706:525
5.707:531
5.707:539
5.707:532
5.708:524
5.708:522
5.708:528
5.709:531
5.709:530
5.710:529
5.710:531
5.711:522
5.711:514
5.712:504
5.712:498
5.712:492
5.713:483
5.713:480
5.714:476
5.714:473
5.715:485
5.715:509
5.716:530
5.716:541
5.731:520
5.731:486
5.735:464
5.735:468
5.736:514
5.736:489
5.737:474
5.737:468
5.737:468
5.738:467
5.738:462
5.738:459
5.739:466
5.739:479
5.739:479
5.739:476
5.739:473
5.740:470
5.740:473
5.740:483
5.740:469
5.743:460
5.743:457
5.743:464
5.744:470
5.744:475
5.745:477
5.745:483
5.745:487
5.746:492
5.759:492
5.763:494
5.763:484
5.765:472
5.765:471
5.765:477
5.765:474
5.765:478
5.765:476
5.765:472
5.765:480
5.768:488
5.768:476
5.768:473
5.768:476
5.768:475
5.770:472
5.770:473
5.770:474
5.770:478
5.772:476
5.772:471
5.773:474
5.773:480
5.773:485
5.774:500
5.774:507
5.775:498
5.775:488
5.776:491
5.792:489
5.792:504
5.793:489
5.793:488
5.793:481
5.794:472
5.794:463
5.795:459
5.796:460
5.796:472
5.797:471
5.797:465
5.798:453
5.799:446
5.799:437
5.799:432
5.800:423
5.800:416
5.800:418
5.801:422
5.801:419
5.801:419
5.802:416
5.802:403
5.803:399
5.803:409
5.803:416
5.804:430
5.804:452
5.805:474
5.821:474
5.821:498
5.822:521
5.822:539
5.822:571
5.822:611
5.822:648
5.825:683
5.825:725
5.826:769
5.826:800
5.826:827
5.826:860
5.827:906
5.827:953
5.827:989
5.829:989
5.829:988
5.830:987
5.830:987
5.830:986
5.830:986
5.831:985
5.831:985
5.831:984
5.831:984
5.833:985
5.833:986
5.834:986
5.834:987
5.849:987
5.849:987
5.849:987
5.849:988
5.853:988
5.854:988
5.854:989
5.854:955
5.856:888
5.856:827
5.856:759
5.856:677
5.856:592
5.857:501
5.859:421
5.859:356
5.859:307
5.859:270
5.860:251
5.860:235
5.860:224
5.860:219
5.860:217
5.862:209
5.863:209
5.863:204
5.863:212
5.864:224
5.864:238
5.865:256
5.878:256
5.878:276
5.878:283
5.882:287
5.882:301
5.883:320
5.883:337
5.883:344
5.883:347
5.883:359
5.883:400
5.884:385
5.887:375
5.887:369
5.887:365
5.887:377
5.887:389
5.888:385
5.888:391
5.888:403
5.888:407
5.889:401
5.891:397
5.891:400
5.891:398
5.891:398
5.891:396
5.892:392
5.892:389
5.892:396
5.911:406
5.911:414
5.912:411
5.912:405
5.912:396
5.912:397
5.912:401
5.912:408
5.912:411
5.915:422
5.916:433
5.916:440
5.916:440
5.916:432
5.917:426
5.917:431
5.917:435
5.917:440
5.917:433
5.919:422
5.919:419
5.919:420
5.919:429
5.920:432
5.920:423
5.920:424
5.920:432
5.920:428
5.923:424
5.923:435
5.940:435
5.940:450
5.940:473
5.941:495
5.941:471
5.941:458
5.941:457
5.941:451
5.944:451
5.944:454
5.945:459
5.945:468
5.945:463
5.945:459
5.946:458
5.946:456
5.946:461
5.946:468
5.949:465
5.949:467
5.949:480
5.949:496
5.950:497
5.950:492
5.951:489
5.951:492
5.951:487
5.952:489
5.952:487
5.952:487
5.968:477
5.969:480
5.969:481
5.969:480
5.969:480
5.973:485
5.973:499
5.973:509
5.973:509
5.974:504
5.974:497
5.974:502
5.974:509
5.975:516
5.977:516
5.977:512
5.977:502
5.977:486
5.978:491
5.978:494
5.978:496
5.978:500
5.978:505
5.979:551
5.980:530
5.981:522
5.982:528
5.982:538
5.983:533
5.983:525
5.996:525
5.997:529
5.997:530
5.997:527
6.001:525
6.002:526
6.002:528
6.002:530
6.002:531
6.002:532
6.002:528
6.002:529
6.002:543
6.002:543
6.005:539
6.005:536
6.005:535
6.005:537
6.005:537
6.005:537
6.006:538
6.006:543
6.006:557
6.010:566
6.010:572
6.010:567
6.010:566
6.011:570
6.011:572
6.011:575
6.025:564
6.029:565
6.030:575
6.030:585
6.030:589
6.030:578
6.030:574
6.030:570
6.030:581
6.031:587
6.034:591
6.034:590
6.034:584
6.034:584
6.035:587
6.035:611
6.035:601
6.035:605
6.035:609
6.036:613
6.038:617
6.038:615
6.038:615
6.038:616
6.039:608
6.039:607
6.039:611
6.040:614
6.040:618
6.041:626
6.058:626
6.059:633
6.060:634
6.060:636
6.060:638
6.061:636
6.061:636
6.062:638
6.062:648
6.062:654
6.063:656
6.063:647
6.063:635
6.064:631
6.065:627
6.066:619
6.066:623
6.066:632
6.067:646
6.067:654
6.067:664
6.067:662
6.068:663
6.068:665
6.069:660
6.069:658
6.069:658
6.069:650
6.070:655
6.070:661
6.087:658
6.087:643
6.087:636
6.089:639
6.089:632
6.089:630
6.091:638
6.091:669
6.092:658
6.092:648
6.092:649
6.093:646
6.093:642
6.093:645
6.094:645
6.094:625
6.095:617
6.096:616
6.096:614
6.097:608
6.097:602
6.097:599
6.098:592
6.098:582
6.099:577
6.099:567
6.099:556
6.100:558
6.100:567
6.100:566
6.116:566
6.116:562
6.116:557
6.116:555
6.117:547
6.120:539
6.120:526
6.120:518
6.120:515
6.121:509
6.121:505
6.121:502
6.121:486
6.122:469
6.122:455
6.124:448
6.124:443
6.125:439
6.125:433
6.125:426
6.126:417
6.126:414
6.127:411
6.127:420
6.128:426
6.128:423
6.129:410
6.129:407
6.129:396
6.130:410
6.144:412
6.144:397
6.149:385
6.149:378
6.149:370
6.150:358
6.150:357
6.150:360
6.151:355
6.151:360
6.151:356
6.152:355
6.153:347
6.153:354
6.153:360
6.154:358
6.154:349
6.154:344
6.154:343
6.154:345
6.154:349
6.157:346
6.157:334
6.157:331
6.158:343
6.158:351
6.158:350
6.158:346
6.158:344
6.159:352
6.173:352
6.177:354
6.178:352
6.178:352
6.178:356
6.179:356
6.179:354
6.179:356
6.179:355
6.179:357
6.179:356
6.181:354
6.181:351
6.181:352
6.181:360
6.182:366
6.182:358
6.182:361
6.182:364
6.183:368
6.185:374
6.185:386
6.185:394
6.186:386
6.186:391
6.187:399
6.187:393
6.187:391
6.188:391
6.189:387
6.205:380
6.206:376
6.206:372
6.206:366
6.207:367
6.207:374
6.207:383
6.208:392
6.210:396
6.211:398
6.211:403
6.211:406
6.211:403
6.212:401
6.212:409
6.212:417
6.213:412
6.215:408
6.215:413
6.215:413
6.216:415
6.216:411
6.216:402
6.216:393
6.217:393
6.217:400
6.217:407
6.218:404
6.219:406
6.219:408
6.234:408
6.234:419
6.235:430
6.235:432
6.235:420
6.236:407
6.236:413
6.238:426
6.239:425
6.239:424
6.239:422
6.239:417
6.240:417
6.240:415
6.240:435
6.241:423
6.242:427
6.242:429
6.243:428
6.243:455
6.244:449
6.245:436
6.245:437
6.245:434
6.245:432
6.245:441
6.246:450
6.247:454
6.248:449
6.248:442
6.264:432
6.264:427
6.265:431
6.267:424
6.268:426
6.268:433
6.268:442
6.268:437
6.269:434
6.269:433
6.269:434
6.269:440
6.269:445
6.271:445
6.271:445
6.272:439
6.272:442
6.272:448
6.273:448
6.273:447
6.273:445
6.274:441
6.274:438
6.275:436
6.275:433
6.276:435
6.276:440
6.276:443
6.277:443
6.277:444
6.291:444
6.291:450
6.291:456
6.295:460
6.296:459
6.296:458
6.297:490
6.298:470
6.298:455
6.298:447
6.298:445
6.298:441
6.299:446
6.300:462
6.300:473
6.300:465
6.300:458
6.301:454
6.301:447
6.301:445
6.301:444
6.301:447
6.304:453
6.304:455
6.304:456
6.305:456
6.305:457
6.305:461
6.306:454
6.306:455
6.324:458
6.324:456
6.324:455
6.325:459
6.325:456
6.326:450
6.326:451
6.326:450
6.327:448
6.328:448
6.329:449
6.329:450
6.329:453
6.329:454
6.330:453
6.330:455
6.330:461
6.331:464
6.332:465
6.332:467
6.332:463
6.333:463
6.333:464
6.333:465
6.333:460
6.333:454
6.334:455
6.334:492
6.336:472
6.336:464
6.353:464
6.353:461
6.354:458
6.354:462
6.354:461
6.355:461
6.355:463
6.355:472
6.357:475
6.357:472
6.358:467
6.358:458
6.358:457
6.359:459
6.359:464
6.359:459
6.360:454
6.360:455
6.361:462
6.361:465
6.362:465
6.362:462
6.362:459
6.363:465
6.363:467
6.363:470
6.364:470
6.366:475
6.366:481
6.366:481
6.381:478
6.383:470
6.383:462
6.383:462
6.383:464
6.386:466
6.386:466
6.386:469
6.387:465
6.387:461
6.387:459
6.389:458
6.389:459
6.389:464
6.390:464
6.391:459
6.391:456
6.391:466
6.391:478
6.392:522
6.392:494
6.392:479
6.393:470
6.393:464
6.394:460
6.395:458
6.395:465
6.395:468
6.396:474
6.396:477
6.411:477
6.411:475
6.411:476
6.412:475
6.415:488
6.415:494
6.415:491
6.416:483
6.416:482
6.416:480
6.416:476
6.417:474
6.417:466
6.419:462
6.419:469
6.420:480
6.420:484
6.420:486
6.420:490
6.420:488
6.420:487
6.420:487
6.421:486
6.423:483
6.423:485
6.423:483
6.423:481
6.424:479
6.424:481
6.424:486
6.439:484
6.443:484
6.443:485
6.444:480
6.444:482
6.444:487
6.445:478
6.445:476
6.445:479
6.446:478
6.447:477
6.447:504
6.448:489
6.448:484
6.449:493
6.449:494
6.449:487
6.450:478
6.450:483
6.451:494
6.451:501
6.451:496
6.452:494
6.453:496
6.453:497
6.453:491
6.453:490
6.454:497
6.454:499
6.455:502
6.472:502
6.472:497
6.472:488
6.472:494
6.473:498
6.473:500
6.473:500
6.473:500
6.473:496
6.476:494
6.476:493
6.476:486
6.476:483
6.477:481
6.477:486
6.477:486
6.477:490
6.477:492
6.478:494
6.480:494
6.481:495
6.482:489
6.482:488
6.482:494
6.482:495
6.483:502
6.483:498
6.484:499
6.484:496
6.484:498
6.500:501
6.500:501
6.501:503
6.501:530
6.501:516
6.501:498
6.504:493
6.505:494
6.505:495
6.505:494
6.506:492
6.506:492
6.506:488
6.507:489
6.507:495
6.507:500
6.508:499
6.510:496
6.510:498
6.510:501
6.510:503
6.510:500
6.510:499
6.511:498
6.511:493
6.512:495
6.512:498
6.513:503
6.514:500
6.514:498
6.529:498
6.530:497
6.530:495
6.531:492
6.531:490
6.533:489
6.534:489
6.534:491
6.535:503
6.535:503
6.535:500
6.536:507
6.536:504
6.536:502
6.537:503
6.538:500
6.538:494
6.538:496
6.539:497
6.539:495
6.539:492
6.542:495
6.543:498
6.543:493
6.544:494
6.544:522
6.544:528
6.544:507
6.545:499
6.545:504
6.558:511
6.558:515
6.562:507
6.562:503
6.563:500
6.563:498
6.564:497
6.564:500
6.565:499
6.565:494
6.565:495
6.565:497
6.566:499
6.566:497
6.567:497
6.567:493
6.567:496
6.567:500
6.567:502
6.568:502
6.568:509
6.570:506
6.570:500
6.570:493
6.570:493
6.570:499
6.571:502
6.571:498
6.571:494
6.571:495
6.587:495
6.590:499
6.590:498
6.590:498
6.591:503
6.591:501
6.591:499
6.591:499
6.592:501
6.592:496
6.592:494
6.594:498
6.595:499
6.595:501
6.595:500
6.596:498
6.596:499
6.597:507
6.597:523
6.597:509
6.599:497
6.599:496
6.600:503
6.600:504
6.600:502
6.600:495
6.600:493
6.600:498
6.600:501
6.600:497
6.619:495
6.619:495
6.619:499
6.621:503
6.621:503
6.621:510
6.621:511
6.623:500
6.623:497
6.623:500
6.624:501
6.624:503
6.625:499
6.625:493
6.625:489
6.626:489
6.626:491
6.627:501
6.627:503
6.628:505
6.628:505
6.628:502
6.630:499
6.630:496
6.631:496
6.631:501
6.632:506
6.632:504
6.633:506
6.633:503
6.648:503
6.649:499
6.649:500
6.650:504
6.650:498
6.651:496
6.651:499
6.652:502
6.653:506
6.653:507
6.653:532
6.654:519
6.654:517
6.655:516
6.655:510
6.655:507
6.656:508
6.657:503
6.657:507
6.657:515
6.658:515
6.658:512
6.658:510
6.659:506
6.659:503
6.659:505
6.660:511
6.660:512
6.660:519
6.661:531
6.676:538
6.677:536
6.677:531
6.681:532
6.681:530
6.681:528
6.681:521
6.682:517
6.682:515
6.682:512
6.683:509
6.683:511
6.683:507
6.685:512
6.685:523
6.686:529
6.686:529
6.686:530
6.686:536
6.686:538
6.686:542
6.687:541
6.688:546
6.690:551
6.690:547
6.690:542
6.691:542
6.691:542
6.692:534
6.692:531
6.705:531
6.705:530
6.709:552
6.710:533
6.710:524
6.710:519
6.711:523
6.711:531
6.711:534
6.711:540
6.712:541
6.712:540
6.713:536
6.714:544
6.714:548
6.714:543
6.715:535
6.715:531
6.715:527
6.715:525
6.715:525
6.715:520
6.718:517
6.718:518
6.718:516
6.718:524
6.718:523
6.719:523
6.720:517
6.720:514
6.738:511
6.738:505
6.739:498
6.739:491
6.739:488
6.740:486
6.740:490
6.740:484
6.740:476
6.742:473
6.742:469
6.743:463
6.743:465
6.743:474
6.743:479
6.744:472
6.744:468
6.745:470
6.746:471
6.747:470
6.747:474
6.748:473
6.749:479
6.749:514
6.749:501
6.750:492
6.750:481
6.751:474
6.751:475
6.751:473
6.767:473
6.767:470
6.768:476
6.768:479
6.768:480
6.769:478
6.769:473
6.769:468
6.771:469
6.771:472
6.771:476
6.771:472
6.771:471
6.772:474
6.772:478
6.772:479
6.772:479
6.777:482
6.777:482
6.777:477
6.777:473
6.777:487
6.777:494
6.777:484
6.778:485
6.778:481
6.779:465
6.779:459
6.779:463
6.779:470
6.795:477
6.795:477
6.795:477
6.795:477
6.796:483
6.800:494
6.800:496
6.800:492
6.800:484
6.801:477
6.801:469
6.801:469
6.801:466
6.802:463
6.804:462
6.804:465
6.804:476
6.804:476
6.804:497
6.805:496
6.805:496
6.805:495
6.806:486
6.806:476
6.808:467
6.808:465
6.808:470
6.808:467
6.809:450
6.809:440
6.824:440
6.824:433
6.824:419
6.824:414
6.828:415
6.828:414
6.828:420
6.828:415
6.829:402
6.830:403
6.830:402
6.831:411
6.831:422
6.832:432
6.832:443
6.832:460
6.832:484
6.833:503
6.834:528
6.834:566
6.834:604
6.834:636
6.834:673
6.836:715
6.836:758
6.836:796
6.836:831
6.837:867
6.837:906
6.837:951
6.852:989
6.857:989
6.857:988
6.857:987
6.857:987
6.858:986
6.858:986
6.858:985
6.858:984
6.858:984
6.861:984
6.861:985
6.861:986
6.861:986
6.862:986
6.862:987
6.862:987
6.862:987
6.862:987
6.864:988
6.865:989
6.865:989
6.865:954
6.866:890
6.866:819
6.866:756
6.866:686
6.866:602
6.867:500
6.869:418
6.886:418
6.886:360
6.886:309
6.887:272
6.887:249
6.887:229
6.887:222
6.887:216
6.888:215
6.889:209
6.890:201
6.890:200
6.890:210
6.891:220
6.891:225
6.891:230
6.892:242
6.893:260
6.893:274
6.893:292
6.894:307
6.894:323
6.895:332
6.895:342
6.895:340
6.896:346
6.897:356
6.897:360
6.897:363
6.897:391
6.914:381
6.915:374
6.915:371
6.916:371
6.916:368
6.916:376
6.918:392
6.919:445
6.919:431
6.919:410
6.919:393
6.919:392
6.919:385
6.920:381
6.920:370
6.920:368
6.922:377
6.922:381
6.923:370
6.923:376
6.924:388
6.924:398
6.924:415
6.925:418
6.925:409
6.926:399
6.926:404
6.927:415
6.927:408
6.927:410
6.943:410
6.943:408
6.943:409
6.944:413
6.944:417
6.947:409
6.948:415
6.948:423
6.948:420
6.948:428
6.948:420
6.949:408
6.949:405
6.949:417
6.949:430
6.951:432
6.951:430
6.951:437
6.951:443
6.951:441
6.952:438
6.952:453
6.952:454
6.952:451
6.955:454
6.955:454
6.955:457
6.955:455
6.955:447
6.956:444
6.971:445
6.971:448
6.976:445
6.976:443
6.976:446
6.976:450
6.976:450
6.976:456
6.976:462
6.977:466
6.977:468
6.979:471
6.980:467
6.980:466
6.980:470
6.980:469
6.980:467
6.980:473
6.980:473
6.981:470
6.981:468
6.984:463
6.985:462
6.985:469
6.986:473
6.986:473
6.987:474
6.987:477
6.987:482
6.988:481
7.000:481
7.005:478
7.005:478
7.005:483
7.006:490
7.006:496
7.006:493
7.007:494
7.007:498
7.007:499
7.008:496
7.009:488
7.009:484
7.009:489
7.010:498
7.010:495
7.010:502
7.010:503
7.011:510
7.011:518
7.013:518
7.014:520
7.014:524
7.014:527
7.015:526
7.015:523
7.015:514
7.015:507
7.016:512
7.016:523
7.033:527
7.033:526
7.033:526
7.034:528
7.034:535
7.034:532
7.034:521
7.037:525
7.038:526
7.038:528
7.038:528
7.038:528
7.038:538
7.039:543
7.039:550
7.040:548
7.040:538
7.041:535
7.041:541
7.041:543
7.041:542
7.042:545
7.042:553
7.042:562
7.042:569
7.042:565
7.045:558
7.045:561
7.045:562
7.045:566
7.061:566
7.061:569
7.062:576
7.062:588
7.062:591
7.063:591
7.066:621
7.066:611
7.066:598
7.066:591
7.067:599
7.067:609
7.067:614
7.067:615
7.067:612
7.068:607
7.070:599
7.071:597
7.071:606
7.071:611
7.071:613
7.071:614
7.071:616
7.071:609
7.071:618
7.074:622
7.074:630
7.074:636
7.074:642
7.075:638
7.090:639
7.090:631
7.090:629
7.095:631
7.095:626
7.095:624
7.095:623
7.096:632
7.096:637
7.097:636
7.097:639
7.097:641
7.097:637
7.099:636
7.099:638
7.099:636
7.100:632
7.100:637
7.100:632
7.100:636
7.101:636
7.101:621
7.103:603
7.103:600
7.103:604
7.103:609
7.104:616
7.104:640
7.104:613
7.104:601
7.119:601
7.119:589
7.123:565
7.123:562
7.123:565
7.123:572
7.124:581
7.124:587
7.125:586
7.125:577
7.125:574
7.126:582
7.127:577
7.128:577
7.128:574
7.128:566
7.128:560
7.130:550
7.130:527
7.131:509
7.131:500
7.131:484
7.131:469
7.132:467
7.132:473
7.132:476
7.132:481
7.132:461
7.132:440
7.133:446
7.152:454
7.152:459
7.152:466
7.153:453
7.153:437
7.153:436
7.153:437
7.154:421
7.154:406
7.156:400
7.156:402
7.157:401
7.157:392
7.158:380
7.158:382
7.158:385
7.159:377
7.159:361
7.160:361
7.160:404
7.160:391
7.161:378
7.161:347
7.161:320
7.162:304
7.162:305
7.163:315
7.163:323
7.164:328
7.164:322
7.181:322
7.181:326
7.181:342
7.181:360
7.181:354
7.181:327
7.181:325
7.181:328
7.184:329
7.184:337
7.185:348
7.185:356
7.185:353
7.186:349
7.186:349
7.187:346
7.187:332
7.188:337
7.188:351
7.189:353
7.189:348
7.189:363
7.189:360
7.191:347
7.191:347
7.191:334
7.191:327
7.193:356
7.193:368
7.194:360
7.209:349
7.210:335
7.210:345
7.210:354
7.211:368
7.214:371
7.214:373
7.214:385
7.214:389
7.215:397
7.215:396
7.215:424
7.216:402
7.216:390
7.217:388
7.218:400
7.218:410
7.218:404
7.219:395
7.219:368
7.219:359
7.219:372
7.219:388
7.219:394
7.221:403
7.221:409
7.222:416
7.222:405
7.222:397
7.223:395
7.237:395
7.238:391
7.238:385
7.239:390
7.241:391
7.241:382
7.242:380
7.242:382
7.243:390
7.243:402
7.243:416
7.244:425
7.244:415
7.246:399
7.246:387
7.246:389
7.247:417
7.247:441
7.247:462
7.248:459
7.248:451
7.249:445
7.249:450
7.249:451
7.249:444
7.250:448
7.250:460
7.250:456
7.250:437
7.250:424
7.271:432
7.271:443
7.271:454
7.271:490
7.272:470
7.272:457
7.272:453
7.272:469
7.272:481
7.272:467
7.275:456
7.275:457
7.275:464
7.275:457
7.276:453
7.276:472
7.276:488
7.276:499
7.276:497
7.279:483
7.280:475
7.280:478
7.280:490
7.281:496
7.281:494
7.281:478
7.281:470
7.281:488
7.282:520
7.282:539
7.300:539
7.300:536
7.300:537
7.300:533
7.301:524
7.301:514
7.301:498
7.302:511
7.302:519
7.304:522
7.304:522
7.304:514
7.304:514
7.305:514
7.305:510
7.305:503
7.305:497
7.305:486
7.306:489
7.308:497
7.308:493
7.308:497
7.308:501
7.308:503
7.309:503
7.309:517
7.309:507
7.309:509
7.312:513
7.312:520
7.328:537
7.328:538
7.328:545
7.329:551
7.329:546
7.330:544
7.331:536
7.332:529
7.332:535
7.332:542
7.332:528
7.333:509
7.333:503
7.333:515
7.333:525
7.335:514
7.336:486
7.336:478
7.336:468
7.336:475
7.337:489
7.337:493
7.337:500
7.337:520
7.337:566
7.340:629
7.340:658
7.340:666
7.341:664
7.341:663
7.357:663
7.357:649
7.357:628
7.357:625
7.357:628
7.361:631
7.361:611
7.361:593
7.361:587
7.361:588
7.362:586
7.363:586
7.363:580
7.363:579
7.364:585
7.364:592
7.365:589
7.365:610
7.365:614
7.365:607
7.365:608
7.366:618
7.366:618
7.366:615
7.369:614
7.369:603
7.370:595
7.370:600
7.370:602
7.371:603
7.384:600
7.384:599
7.390:594
7.390:591
7.390:593
7.391:587
7.391:570
7.391:565
7.391:575
7.391:587
7.391:571
7.394:549
7.394:568
7.394:584
7.394:611
7.395:626
7.395:618
7.395:599
7.395:599
7.395:603
7.397:607
7.398:642
7.398:618
7.398:606
7.398:592
7.398:585
7.399:590
7.399:597
7.399:597
7.399:602
7.414:602
7.418:612
7.418:628
7.419:645
7.419:645
7.419:635
7.419:640
7.419:632
7.420:623
7.420:625
7.422:624
7.422:604
7.422:598
7.423:627
7.423:606
7.423:601
7.423:604
7.424:619
7.424:630
7.424:624
7.426:623
7.426:630
7.427:639
7.428:643
7.428:643
7.428:639
7.428:635
7.428:627
7.428:616
7.429:611
7.446:610
7.447:605
7.447:616
7.447:626
7.447:624
7.447:633
7.448:638
7.451:621
7.451:625
7.451:639
7.451:651
7.452:638
7.452:625
7.452:617
7.452:632
7.452:649
7.453:630
7.455:633
7.455:643
7.455:643
7.455:632
7.456:615
7.456:595
7.456:588
7.456:598
7.457:623
7.459:634
7.459:629
7.459:639
7.460:642
7.475:642
7.475:626
7.475:638
7.475:627
7.475:629
7.476:620
7.479:622
7.480:629
7.481:651
7.481:664
7.482:670
7.482:675
7.482:676
7.482:665
7.483:648
7.483:642
7.483:655
7.484:672
7.484:667
7.484:661
7.484:647
7.484:646
7.485:655
7.485:664
7.485:668
7.487:675
7.487:684
7.488:680
7.488:665
7.488:660
7.503:650
7.504:654
7.504:662
7.508:656
7.508:656
7.508:661
7.508:656
7.508:643
7.510:632
7.510:625
7.510:627
7.510:633
7.511:638
7.513:641
7.513:641
7.513:645
7.514:640
7.514:631
7.514:623
7.514:614
7.514:606
7.515:609
7.516:621
7.516:652
7.516:637
7.516:629
7.517:630
7.517:641
7.517:656
7.517:669
7.532:669
7.533:665
7.536:655
7.536:655
7.537:649
7.537:643
7.538:637
7.538:631
7.538:634
7.538:636
7.538:640
7.538:640
7.541:645
7.541:657
7.541:662
7.541:657
7.541:653
7.542:658
7.542:656
7.542:655
7.542:654
7.545:650
7.546:650
7.546:658
7.546:675
7.547:688
7.547:687
7.548:682
7.548:670
7.548:668
7.565:664
7.565:664
7.566:667
7.566:673
7.566:676
7.566:681
7.567:675
7.567:658
7.567:647
7.569:649
7.570:667
7.570:678
7.570:682
7.570:682
7.571:677
7.571:715
7.571:690
7.571:673
7.574:661
7.574:657
7.574:675
7.574:689
7.575:703
7.575:719
7.575:722
7.575:707
7.576:700
7.576:702
7.577:703
7.577:711
7.594:711
7.594:714
7.594:711
7.595:710
7.595:704
7.595:693
7.596:686
7.596:683
7.599:689
7.599:690
7.599:675
7.599:657
7.599:661
7.599:674
7.600:681
7.600:681
7.600:675
7.600:669
7.600:674
7.600:672
7.600:670
7.603:675
7.603:676
7.603:670
7.603:674
7.603:675
7.603:678
7.606:683
7.606:686
7.606:685
7.622:669
7.622:670
7.623:670
7.623:680
7.626:675
7.626:657
7.627:640
7.627:686
7.628:676
7.629:685
7.629:681
7.629:675
7.631:684
7.631:679
7.631:685
7.631:692
7.631:689
7.631:686
7.631:687
7.631:673
7.631:655
7.631:651
7.631:651
7.634:652
7.634:663
7.636:658
7.636:645
7.636:641
7.637:652
7.637:656
7.651:656
7.652:661
7.652:671
7.652:684
7.656:689
7.656:703
7.657:691
7.657:653
7.657:647
7.658:664
7.658:673
7.659:669
7.659:663
7.660:655
7.660:653
7.660:658
7.661:660
7.661:656
7.662:657
7.662:662
7.663:659
7.663:658
7.663:657
7.664:664
7.664:658
7.664:656
7.665:660
7.665:662
7.665:662
7.666:710
7.683:686
7.684:670
7.684:651
7.684:644
7.685:649
7.685:654
7.686:657
7.686:673
7.686:696
7.687:705
7.688:704
7.688:692
7.688:694
7.690:689
7.690:694
7.690:685
7.690:675
7.691:670
7.691:671
7.691:672
7.692:679
7.692:679
7.693:674
7.693:672
7.693:673
7.694:675
7.694:682
7.695:682
7.695:685
7.696:690
7.713:690
7.713:694
7.713:688
7.714:693
7.714:712
7.714:715
7.714:705
7.715:679
7.715:664
7.717:661
7.717:654
7.717:650
7.718:635
7.718:639
7.719:645
7.719:658
7.719:668
7.719:671
7.720:666
7.720:673
7.721:681
7.721:680
7.721:668
7.722:696
7.722:671
7.722:666
7.722:692
7.722:693
7.724:696
7.725:698
7.741:694
7.741:687
7.741:666
7.742:654
7.742:641
7.742:624
7.746:618
7.746:604
7.746:592
7.746:609
7.746:622
7.746:608
7.746:598
7.746:588
7.746:589
7.750:584
7.750:575
7.750:567
7.750:556
7.750:582
7.750:605
7.750:616
7.750:618
7.750:621
7.750:615
7.755:604
7.755:608
7.755:613
7.755:610
7.755:611
7.770:611
7.770:611
7.771:611
7.771:617
7.771:623
7.774:619
7.774:616
7.774:615
7.774:607
7.775:604
7.775:606
7.775:619
7.775:633
7.775:650
7.778:636
7.779:591
7.779:588
7.780:594
7.780:595
7.780:580
7.780:571
7.780:575
7.781:573
7.781:563
7.782:563
7.782:563
7.782:563
7.782:574
7.782:579
7.783:580
7.798:589
7.799:598
7.803:601
7.803:600
7.803:595
7.804:586
7.804:578
7.804:583
7.804:576
7.804:578
7.805:581
7.807:592
7.807:597
7.807:599
7.808:605
7.808:605
7.808:599
7.808:595
7.808:604
7.809:603
7.809:609
7.811:614
7.811:607
7.811:601
7.812:596
7.812:594
7.812:590
7.812:584
7.812:575
7.812:577
7.827:577
7.831:588
7.831:588
7.831:575
7.831:577
7.832:583
7.832:581
7.832:553
7.832:563
7.832:574
7.836:564
7.836:542
7.836:523
7.836:512
7.837:511
7.837:519
7.837:513
7.837:518
7.837:520
7.838:515
7.840:515
7.840:518
7.840:532
7.841:545
7.841:567
7.841:596
7.842:622
7.842:650
7.842:679
7.844:718
7.860:753
7.861:790
7.861:825
7.861:862
7.861:902
7.861:933
7.862:970
7.864:989
7.865:988
7.865:988
7.865:987
7.865:987
7.866:986
7.866:986
7.866:985
7.866:984
7.866:984
7.868:984
7.869:984
7.869:984
7.869:985
7.869:985
7.869:985
7.870:986
7.870:986
7.870:986
7.872:987
7.872:988
7.872:988
7.872:988
7.888:988
7.889:989
7.889:983
7.889:922
7.889:841
7.890:733
7.893:652
7.893:583
7.893:514
7.893:454
7.893:398
7.894:349
7.894:319
7.894:304
7.894:307
7.895:318
7.897:330
7.897:341
7.897:341
7.898:329
7.898:318
7.898:322
7.898:310
7.898:319
7.899:329
7.901:337
7.901:349
7.901:385
7.902:397
7.902:402
7.917:420
7.917:431
7.918:451
7.922:464
7.922:472
7.922:481
7.922:492
7.923:502
7.923:513
7.924:500
7.924:490
7.924:484
7.924:480
7.926:474
7.926:480
7.926:485
7.926:486
7.927:474
7.927:465
7.927:502
7.927:527
7.927:540
7.929:528
7.930:509
7.931:502
7.932:515
7.932:532
7.932:540
7.932:532
7.932:521
7.946:521
7.946:515
7.950:497
7.951:497
7.951:507
7.951:532
7.951:552
7.951:550
7.951:546
7.951:563
7.952:573
7.952:559
7.954:547
7.955:547
7.955:544
7.955:548
7.955:553
7.955:537
7.955:537
7.955:551
7.955:561
7.958:559
7.959:556
7.959:556
7.959:550
7.959:547
7.959:549
7.959:556
7.959:561
7.959:566
7.979:563
7.979:554
7.980:549
7.980:568
7.980:582
7.981:575
7.981:552
7.981:549
7.982:564
7.983:582
7.983:595
7.984:586
7.984:597
7.984:560
7.985:549
7.985:537
7.985:528
7.985:524
7.987:530
7.987:523
7.987:518
7.988:549
7.988:595
7.989:611
7.989:609
7.989:596
7.989:560
7.990:529
7.990:523
7.990:546
8.008:546
8.008:577
8.009:585
8.009:595
8.009:623
8.010:620
8.010:632
8.010:643
8.012:653
8.012:665
8.013:669
8.013:661
8.013:621
8.013:590
8.014:603
8.014:623
8.014:642
8.016:654
8.016:644
8.016:630
8.017:621
8.017:619
8.017:626
8.017:633
8.017:642
8.018:648
8.018:644
8.019:631
8.019:627
8.019:638
8.036:654
8.036:658
8.036:666
8.037:693
8.040:660
8.041:624
8.041:622
8.041:646
8.041:669
8.041:670
8.041:676
8.042:661
8.042:637
8.042:630
8.045:644
8.045:645
8.045:640
8.046:645
8.046:653
8.047:660
8.047:676
8.047:673
8.047:659
8.048:660
8.048:655
8.048:664
8.048:667
8.048:670
8.049:661
8.049:673
8.064:673
8.064:702
8.064:702
8.069:687
8.070:672
8.070:658
8.070:661
8.071:672
8.071:689
8.071:713
8.071:719
8.072:721
8.072:693
8.073:666
8.073:676
8.073:687
8.073:687
8.074:689
8.074:695
8.074:698
8.074:713
8.074:730
8.075:728
8.077:720
8.077:709
8.077:714
8.077:694
8.078:698
8.079:703
8.079:709
8.097:718
8.098:725
8.098:726
8.099:718
8.099:713
8.099:719
8.100:726
8.100:729
8.100:724
8.100:714
8.102:711
8.102:716
8.102:713
8.103:719
8.103:724
8.103:725
8.103:721
8.103:719
8.104:723
8.106:726
8.106:723
8.107:726
8.107:728
8.107:722
8.108:715
8.108:714
8.109:709
8.109:712
8.109:714
8.110:721
8.126:721
8.126:724
8.127:721
8.127:712
8.128:704
8.128:702
8.129:696
8.129:693
8.129:684
8.130:684
8.130:680
8.131:678
8.131:684
8.131:677
8.131:660
8.131:652
8.131:651
8.131:674
8.134:657
8.134:647
8.134:650
8.134:644
8.134:627
8.134:604
8.135:591
8.135:584
8.135:581
8.135:578
8.139:565
8.139:564
8.154:561
8.155:559
8.155:547
8.155:538
8.156:529
8.156:513
8.158:513
8.160:513
8.160:512
8.160:503
8.160:482
8.160:471
8.160:468
8.161:470
8.161:463
8.163:463
8.163:459
8.164:449
8.164:439
8.164:428
8.164:425
8.164:419
8.164:414
8.164:409
8.165:410
8.167:419
8.168:425
8.168:415
8.169:401
8.169:392
8.183:392
8.183:380
8.183:379
8.184:384
8.184:381
8.187:365
8.187:356
8.187:360
8.188:368
8.189:383
8.189:387
8.189:374
8.189:377
8.189:379
8.191:372
8.192:365
8.192:362
8.192:362
8.193:367
8.193:363
8.194:354
8.195:348
8.195:353
8.195:358
8.195:368
8.196:372
8.196:379
8.196:370
8.196:343
8.196:346
8.212:353
8.212:353
8.216:355
8.216:370
8.216:395
8.216:387
8.217:370
8.217:374
8.217:373
8.217:367
8.218:371
8.220:375
8.221:369
8.221:372
8.221:384
8.221:395
8.221:396
8.221:386
8.221:382
8.222:373
8.222:380
8.224:380
8.225:383
8.225:396
8.225:410
8.225:409
8.225:391
8.226:392
8.226:388
8.226:390
8.241:390
8.246:410
8.246:416
8.246:413
8.247:430
8.247:420
8.247:389
8.247:383
8.247:382
8.247:389
8.249:390
8.250:398
8.250:403
8.250:400
8.250:403
8.250:404
8.250:408
8.250:418
8.250:424
8.250:423
8.253:417
8.253:423
8.253:423
8.253:418
8.254:407
8.254:402
8.254:398
8.254:400
8.254:400
8.257:412
8.273:418
8.273:423
8.274:425
8.274:427
8.274:432
8.274:427
8.275:417
8.279:419
8.280:435
8.282:441
8.283:438
8.283:436
8.283:428
8.283:426
8.284:428
8.284:432
8.284:426
8.285:426
8.285:431
8.285:435
8.285:440
8.286:441
8.286:430
8.286:449
8.286:443
8.287:444
8.287:443
8.287:443
8.287:448
8.288:450
8.302:450
8.302:449
8.302:444
8.302:439
8.303:438
8.303:448
8.307:444
8.307:441
8.308:448
8.308:456
8.308:458
8.309:454
8.309:451
8.309:442
8.310:445
8.310:442
8.311:448
8.312:455
8.313:451
8.313:460
8.314:463
8.314:473
8.314:486
8.314:478
8.315:459
8.315:452
8.315:449
8.315:452
8.316:472
8.316:466
8.330:457
8.331:450
8.331:448
8.335:443
8.335:443
8.335:456
8.335:472
8.336:470
8.336:470
8.336:477
8.336:479
8.336:474
8.339:471
8.340:470
8.340:471
8.340:498
8.340:491
8.341:481
8.341:475
8.341:474
8.341:459
8.342:452
8.344:455
8.344:462
8.345:471
8.345:480
8.346:484
8.346:489
8.346:496
8.347:501
8.362:501
8.362:492
8.363:482
8.363:476
8.364:477
8.364:483
8.364:479
8.364:473
8.365:469
8.365:474
8.365:477
8.367:481
8.368:477
8.368:468
8.369:467
8.369:473
8.370:478
8.371:483
8.371:482
8.371:478
8.371:483
8.371:486
8.372:481
8.372:485
8.372:485
8.372:487
8.374:490
8.374:489
8.374:483
8.374:480
8.392:482
8.393:480
8.393:486
8.393:490
8.393:484
8.393:483
8.394:485
8.395:508
8.397:497
8.397:496
8.397:499
8.397:502
8.397:495
8.397:488
8.397:502
8.397:503
8.397:505
8.397:501
8.401:485
8.401:488
8.401:489
8.401:481
8.401:477
8.402:471
8.402:471
8.402:479
8.402:481
8.405:486
8.405:498
8.406:497
8.421:497
8.422:500
8.422:501
8.422:491
8.422:482
8.422:479
8.423:472
8.425:467
8.425:466
8.425:468
8.425:470
8.426:478
8.426:483
8.426:483
8.426:490
8.426:492
8.428:505
8.430:508
8.430:509
8.431:501
8.431:502
8.431:504
8.431:508
8.431:515
8.431:514
8.432:506
8.433:507
8.433:496
8.434:492
8.434:517
8.449:503
8.450:503
8.450:495
8.451:486
8.454:487
8.454:489
8.454:496
8.454:514
8.455:515
8.455:517
8.455:514
8.455:511
8.455:511
8.456:510
8.458:509
8.458:502
8.458:501
8.458:505
8.458:506
8.459:500
8.460:494
8.460:495
8.460:495
8.462:493
8.462:496
8.463:498
8.463:512
8.463:517
8.463:524
8.463:534
8.478:534
8.478:533
8.478:523
8.482:514
8.482:511
8.482:511
8.482:509
8.482:513
8.483:514
8.483:515
8.483:512
8.483:511
8.484:516
8.487:519
8.487:517
8.487:513
8.488:511
8.488:550
8.488:533
8.488:524
8.488:520
8.489:555
8.491:538
8.491:536
8.491:529
8.491:521
8.491:512
8.491:513
8.491:513
8.492:512
8.511:508
8.512:506
8.512:516
8.513:515
8.514:509
8.514:506
8.514:511
8.514:521
8.515:522
8.515:516
8.515:514
8.516:519
8.516:529
8.516:536
8.516:529
8.517:509
8.517:505
8.517:529
8.517:522
8.520:515
8.520:512
8.521:514
8.521:517
8.521:515
8.521:515
8.521:515
8.522:512
8.522:517
8.522:512
8.523:519
8.540:519
8.540:525
8.540:527
8.540:526
8.540:538
8.540:536
8.541:537
8.541:524
8.541:517
8.544:529
8.545:530
8.546:526
8.546:524
8.546:539
8.546:527
8.547:521
8.547:516
8.547:509
8.548:517
8.548:525
8.549:538
8.549:543
8.549:536
8.549:509
8.549:503
8.550:507
8.550:516
8.550:516
8.552:526
8.552:526
8.568:525
8.568:526
8.569:528
8.569:530
8.570:531
8.572:533
8.572:524
8.573:516
8.573:510
8.574:516
8.574:522
8.574:524
8.575:525
8.575:525
8.576:519
8.576:512
8.577:508
8.578:515
8.578:521
8.579:523
8.579:527
8.579:518
8.581:510
8.581:503
8.581:512
8.581:513
8.581:510
8.582:513
8.582:508
8.582:490
8.597:490
8.597:497
8.598:511
8.598:524
8.599:516
8.602:509
8.602:531
8.603:518
8.603:517
8.603:520
8.604:517
8.604:522
8.604:525
8.605:526
8.606:514
8.606:509
8.606:507
8.606:517
8.607:522
8.607:519
8.607:520
8.607:513
8.608:516
8.608:521
8.610:527
8.610:524
8.610:521
8.611:520
8.611:517
8.611:515
8.626:516
8.629:505
8.630:496
8.630:504
8.630:519
8.630:527
8.631:525
8.631:524
8.632:506
8.632:503
8.632:502
8.634:507
8.634:508
8.634:508
8.635:509
8.635:517
8.636:518
8.636:506
8.636:498
8.636:507
8.638:511
8.638:517
8.638:513
8.639:518
8.639:529
8.639:526
8.640:518
8.640:521
8.640:508
8.640:500
8.654:500
8.658:510
8.659:513
8.660:515
8.660:517
8.661:520
8.661:522
8.661:520
8.662:519
8.662:503
8.662:498
8.663:503
8.663:518
8.664:525
8.664:522
8.664:529
8.665:526
8.665:525
8.665:521
8.666:509
8.667:510
8.667:513
8.667:513
8.668:517
8.668:511
8.668:512
8.669:505
8.669:501
8.671:494
8.671:494
8.688:508
8.688:519
8.688:528
8.689:531
8.689:533
8.689:532
8.690:526
8.691:523
8.691:523
8.692:525
8.692:523
8.692:529
8.692:541
8.692:538
8.693:541
8.693:551
8.695:546
8.695:535
8.696:522
8.696:537
8.696:530
8.696:528
8.697:530
8.697:532
8.697:536
8.697:538
8.700:540
8.700:536
8.700:531
8.701:529
8.716:529
8.716:535
8.716:539
8.716:538
8.717:533
8.717:536
8.720:544
8.720:536
8.720:530
8.720:528
8.721:528
8.721:532
8.721:532
8.721:534
8.721:531
8.722:534
8.724:545
8.724:559
8.724:577
8.725:573
8.725:559
8.725:558
8.725:561
8.725:564
8.726:557
8.728:565
8.728:571
8.728:560
8.728:557
8.729:558
8.745:558
8.745:560
8.745:563
8.748:556
8.749:546
8.750:546
8.751:546
8.751:549
8.751:545
8.751:549
8.752:547
8.752:574
8.753:566
8.753:566
8.753:560
8.753:553
8.754:553
8.754:556
8.754:544
8.754:543
8.755:541
8.755:537
8.757:536
8.757:535
8.758:531
8.758:527
8.758:530
8.759:531
8.759:527
8.760:531
8.773:531
8.773:535
8.778:533
8.778:531
8.779:522
8.779:509
8.779:503
8.779:502
8.780:511
8.780:512
8.780:506
8.781:502
8.782:505
8.782:499
8.782:498
8.782:496
8.782:493
8.783:492
8.783:499
8.783:498
8.783:492
8.786:493
8.786:501
8.786:506
8.786:503
8.787:498
8.787:497
8.787:497
8.787:499
8.787:495
8.806:500
8.806:491
8.807:485
8.807:514
8.807:501
8.807:503
8.807:505
8.808:515
8.811:514
8.811:511
8.811:504
8.811:497
8.812:500
8.812:499
8.812:501
8.812:507
8.813:508
8.813:511
8.814:513
8.815:505
8.815:496
8.815:495
8.815:498
8.815:498
8.816:497
8.816:496
8.816:501
8.818:503
8.819:502
8.819:501
8.834:501
8.835:501
8.835:494
8.835:494
8.835:494
8.835:496
8.836:506
8.839:520
8.839:521
8.839:518
8.839:513
8.840:506
8.840:503
8.840:503
8.840:509
8.841:504
8.841:497
8.843:498
8.843:500
8.844:500
8.844:515
8.844:515
8.845:502
8.845:502
8.845:502
8.846:521
8.847:492
8.847:482
8.848:473
8.848:461
8.864:448
8.864:443
8.864:432
8.865:427
8.868:429
8.868:432
8.868:439
8.868:448
8.868:451
8.868:457
8.868:463
8.868:470
8.870:488
8.870:505
8.872:538
8.872:566
8.872:587
8.873:616
8.873:639
8.873:670
8.873:713
8.873:749
8.874:792
8.876:837
8.876:874
8.876:914
8.876:943
8.877:971
8.878:989
8.878:988
8.892:988
8.892:988
8.892:987
8.896:987
8.896:986
8.896:986
8.896:985
8.897:985
8.897:985
8.897:985
8.897:985
8.897:986
8.898:986
8.901:987
8.901:987
8.901:987
8.901:988
8.901:988
8.901:988
8.901:989
8.901:989
8.902:938
8.904:879
8.904:821
8.904:761
8.904:683
8.905:595
8.905:506
8.905:430
8.905:372
8.925:325
8.925:292
8.925:275
8.926:261
8.926:252
8.926:247
8.926:235
8.927:225
8.927:239
8.928:251
8.928:254
8.928:257
8.930:256
8.930:262
8.930:287
8.930:308
8.931:319
8.931:336
8.931:345
8.933:361
8.934:383
8.934:398
8.934:406
8.934:404
8.934:400
8.934:401
8.934:403
8.934:405
8.935:402
8.936:405
8.953:405
8.953:406
8.953:404
8.954:412
8.954:415
8.954:417
8.954:421
8.955:424
8.955:426
8.957:449
8.957:437
8.958:423
8.958:418
8.958:420
8.958:421
8.958:421
8.959:428
8.959:428
8.961:429
8.961:427
8.961:433
8.962:432
8.962:431
8.962:432
8.962:434
8.962:437
8.962:447
8.962:440
8.967:434
8.967:440
8.981:451
8.982:449
8.982:442
8.982:439
8.982:431
8.985:441
8.986:446
8.986:456
8.987:463
8.987:469
8.988:458
8.988:455
8.988:459
8.989:461
8.990:464
8.990:470
8.991:476
8.991:473
8.992:465
8.992:456
8.992:461
8.993:467
8.993:458
8.993:449
8.994:460
8.995:463
8.995:454
8.996:456
8.996:468
8.996:481
9.011:481
9.011:510
9.011:513
9.011:504
9.015:500
9.015:491
9.015:497
9.015:499
9.015:492
9.015:493
9.015:499
9.015:507
9.015:511
9.015:508
9.019:504
9.019:500
9.019:504
9.019:504
9.019:502
9.019:504
9.019:513
9.021:520
9.021:522
9.021:518
9.023:527
9.023:530
9.024:536
9.024:530
9.024:535
9.024:530
9.039:529
9.043:527
9.043:518
9.044:509
9.044:503
9.044:500
9.044:501
9.045:495
9.045:491
9.046:487
9.046:493
9.047:503
9.048:501
9.049:498
9.049:505
9.049:512
9.050:515
9.050:522
9.050:535
9.051:553
9.052:566
9.052:561
9.052:564
9.052:566
9.053:549
9.053:555
9.053:568
9.053:582
9.053:588
9.054:578
9.072:578
9.072:570
9.072:561
9.072:559
9.073:559
9.073:561
9.073:561
9.074:565
9.074:569
9.074:554
9.077:541
9.077:543
9.077:569
9.078:575
9.078:576
9.078:571
9.078:567
9.078:567
9.078:571
9.080:568
9.080:564
9.080:573
9.081:583
9.081:592
9.081:590
9.082:594
9.082:599
9.083:611
9.083:621
9.084:620
9.100:618
9.100:615
9.101:624
9.101:621
9.101:617
9.101:625
9.101:642
9.104:647
9.105:643
9.105:631
9.106:632
9.106:642
9.106:655
9.107:652
9.107:641
9.108:660
9.108:654
9.109:664
9.111:674
9.111:676
9.111:664
9.111:668
9.111:687
9.111:693
9.111:682
9.111:672
9.113:665
9.113:668
9.113:676
9.114:663
9.129:663
9.129:655
9.129:658
9.130:653
9.130:637
9.130:640
9.133:648
9.133:652
9.134:655
9.134:653
9.135:656
9.136:653
9.136:660
9.136:665
9.136:668
9.138:660
9.138:647
9.138:635
9.138:632
9.138:634
9.140:635
9.140:635
9.140:638
9.140:639
9.140:631
9.142:626
9.142:624
9.142:624
9.143:634
9.143:638
9.158:637
9.158:635
9.158:629
9.162:626
9.162:620
9.163:627
9.163:624
9.163:641
9.163:626
9.163:616
9.164:609
9.164:590
9.166:579
9.167:567
9.167:559
9.168:553
9.168:546
9.168:540
9.168:540
9.169:536
9.169:526
9.170:524
9.170:531
9.170:528
9.171:525
9.171:514
9.171:497
9.171:489
9.172:479
9.172:474
9.186:474
9.186:462
9.191:451
9.191:449
9.191:443
9.191:435
9.192:430
9.192:438
9.192:428
9.192:419
9.192:418
9.195:419
9.195:416
9.195:414
9.196:404
9.196:399
9.196:400
9.196:397
9.196:393
9.197:379
9.197:372
9.199:369
9.200:363
9.200:366
9.200:369
9.200:367
9.200:362
9.200:358
9.200:358
9.200:392
9.219:379
9.220:377
9.220:368
9.220:359
9.220:363
9.220:362
9.221:357
9.221:349
9.224:348
9.224:352
9.224:363
9.224:365
9.225:358
9.225:362
9.225:362
9.225:363
9.226:359
9.226:360
9.228:360
9.228:361
9.229:364
9.229:364
9.229:372
9.229:373
9.229:380
9.230:385
9.230:386
9.231:380
9.231:381
9.231:386
9.248:386
9.249:386
9.249:388
9.249:390
9.249:391
9.249:386
9.250:380
9.253:378
9.253:386
9.253:393
9.253:400
9.254:402
9.254:403
9.254:400
9.254:397
9.255:396
9.255:390
9.257:395
9.257:395
9.257:398
9.257:402
9.257:441
9.258:425
9.258:425
9.258:428
9.258:418
9.261:410
9.261:408
9.261:412
9.261:413
9.276:414
9.277:413
9.277:417
9.277:422
9.281:424
9.281:419
9.281:416
9.281:421
9.282:431
9.282:432
9.282:427
9.282:424
9.282:422
9.285:421
9.285:424
9.285:424
9.285:425
9.286:430
9.286:435
9.286:439
9.286:443
9.286:443
9.287:439
9.289:439
9.290:442
9.290:446
9.291:452
9.291:446
9.291:439
9.291:435
9.305:435
9.305:431
9.305:438
9.310:436
9.310:428
9.310:430
9.310:437
9.310:441
9.311:440
9.311:437
9.311:434
9.311:440
9.311:453
9.313:498
9.313:482
9.314:474
9.314:469
9.314:460
9.314:463
9.314:460
9.315:463
9.315:463
9.318:462
9.318:463
9.318:460
9.318:457
9.318:452
9.318:450
9.319:446
9.319:449
9.338:453
9.338:457
9.339:456
9.339:457
9.339:452
9.339:455
9.339:461
9.339:462
9.340:466
9.343:462
9.343:463
9.344:462
9.344:471
9.344:477
9.345:474
9.345:468
9.345:469
9.345:474
9.345:474
9.347:477
9.347:479
9.347:479
9.347:471
9.348:463
9.348:468
9.348:478
9.348:480
9.348:472
9.351:464
9.351:455
9.366:455
9.367:464
9.367:476
9.367:483
9.367:480
9.367:501
9.368:494
9.368:484
9.368:474
9.371:469
9.372:466
9.372:465
9.372:466
9.372:465
9.372:458
9.373:455
9.373:461
9.373:471
9.375:472
9.376:469
9.377:460
9.377:461
9.377:459
9.377:464
9.378:466
9.378:466
9.378:471
9.378:475
9.379:469
9.379:468
9.395:465
9.395:460
9.396:457
9.396:460
9.396:462
9.400:471
9.400:467
9.401:477
9.401:477
9.401:474
9.401:474
9.402:475
9.402:472
9.402:471
9.402:467
9.404:460
9.404:455
9.404:458
9.405:456
9.405:462
9.405:476
9.405:477
9.405:481
9.406:469
9.408:463
9.408:465
9.408:497
9.408:505
9.408:497
9.410:492
9.424:492
9.424:494
9.425:490
9.425:481
9.428:466
9.429:444
9.429:418
9.429:399
9.430:387
9.430:382
9.430:379
9.430:366
9.430:351
9.430:345
9.433:330
9.433:315
9.433:304
9.433:307
9.434:325
9.434:349
9.434:379
9.434:418
9.434:451
9.437:476
9.437:520
9.437:540
9.437:551
9.438:562
9.438:569
9.438:589
9.453:604
9.457:604
9.457:594
9.457:584
9.457:579
9.458:561
9.458:540
9.458:523
9.459:516
9.459:519
9.460:515
9.461:513
9.461:517
9.461:515
9.461:507
9.461:499
9.461:488
9.461:503
9.462:526
9.462:529
9.465:500
9.465:504
9.465:507
9.466:498
9.466:496
9.466:496
9.466:496
9.466:503
9.467:502
9.467:497
9.486:497
9.486:481
9.486:471
9.486:473
9.487:480
9.487:480
9.487:477
9.487:473
9.487:465
9.488:466
9.490:466
9.490:465
9.491:468
9.491:473
9.491:478
9.491:484
9.491:486
9.491:494
9.491:504
9.493:507
9.493:509
9.494:505
9.494:501
9.494:497
9.494:495
9.495:486
9.495:475
9.495:478
9.495:482
9.498:491
9.514:495
9.515:489
9.515:483
9.515:481
9.515:480
9.515:477
9.516:469
9.518:461
9.519:463
9.519:466
9.519:464
9.519:489
9.520:477
9.520:469
9.520:470
9.520:474
9.523:477
9.523:473
9.523:478
9.523:482
9.524:486
9.524:475
9.524:471
9.524:477
9.525:497
9.525:517
9.526:513
9.527:498
9.527:502
9.527:496
9.543:496
9.543:497
9.543:492
9.544:476
9.544:466
9.544:471
9.547:473
9.547:473
9.547:468
9.547:467
9.548:469
9.548:465
9.549:468
9.549:466
9.549:464
9.551:467
9.551:461
9.551:463
9.552:469
9.552:474
9.553:480
9.553:471
9.553:463
9.554:453
9.554:440
9.555:428
9.555:432
9.556:439
9.556:451
9.556:464
9.572:472
9.572:468
9.576:457
9.576:464
9.576:446
9.577:453
9.577:475
9.577:509
9.577:529
9.577:535
9.577:534
9.577:527
9.580:515
9.580:513
9.580:513
9.580:502
9.580:496
9.580:495
9.581:500
9.581:499
9.581:490
9.581:480
9.584:478
9.584:476
9.584:469
9.585:468
9.585:475
9.586:482
9.586:505
9.586:516
9.599:516
9.600:526
9.604:541
9.604:541
9.605:521
9.605:509
9.606:500
9.606:498
9.606:491
9.607:491
9.607:495
9.608:501
9.609:502
9.610:503
9.610:493
9.610:488
9.610:494
9.611:495
9.611:495
9.611:495
9.612:493
9.613:495
9.613:493
9.613:494
9.614:490
9.614:512
9.615:508
9.615:509
9.615:507
9.616:512
9.633:506
9.633:498
9.633:489
9.633:485
9.634:485
9.634:493
9.634:501
9.634:501
9.637:498
9.637:494
9.638:495
9.638:500
9.638:502
9.639:500
9.639:502
9.640:501
9.640:500
9.641:499
9.641:496
9.641:497
9.641:496
9.642:493
9.642:495
9.642:495
9.642:486
9.643:490
9.643:489
9.645:480
9.645:477
9.645:471
9.662:471
9.663:463
9.663:451
9.663:445
9.663:452
9.663:462
9.664:471
9.666:474
9.667:467
9.667:447
9.667:438
9.668:450
9.668:469
9.669:476
9.669:489
9.669:495
9.670:489
9.670:523
9.670:509
9.671:501
9.671:493
9.671:501
9.671:508
9.672:506
9.672:511
9.672:510
9.673:515
9.674:516
9.674:508
9.674:498
9.690:504
9.690:508
9.690:514
9.690:504
9.694:495
9.694:493
9.694:501
9.695:508
9.695:513
9.695:508
9.695:499
9.695:501
9.696:507
9.699:508
9.699:500
9.700:493
9.700:491
9.700:489
9.700:488
9.700:484
9.700:488
9.700:498
9.700:505
9.703:513
9.703:521
9.703:518
9.704:513
9.704:510
9.704:505
9.704:497
9.719:497
9.720:497
9.720:501
9.723:506
9.723:501
9.723:493
9.723:487
9.724:479
9.724:473
9.724:509
9.724:499
9.725:496
9.727:492
9.727:491
9.727:494
9.727:503
