0.000:469
0.000:471
0.001:464
0.001:461
0.001:462
0.002:463
0.002:472
0.002:479
0.003:476
0.010:468
0.013:467
0.016:473
0.018:471
0.018:467
0.018:463
0.019:465
0.019:470
0.019:467
0.019:466
0.021:460
0.022:451
0.024:445
0.025:453
0.025:458
0.026:471
0.026:478
0.027:485
0.027:487
0.027:489
0.028:504
0.028:504
0.028:473
0.028:469
0.028:473
0.028:472
0.029:461
0.029:458
0.029:455
0.029:448
0.029:448
0.029:444
0.029:438
0.029:440
0.030:433
0.030:429
0.030:428
0.030:418
0.031:417
0.031:422
0.031:418
0.031:411
0.032:406
0.032:412
0.032:426
0.032:429
0.032:433
0.033:443
0.033:464
0.033:479
0.033:511
0.034:533
0.034:560
0.034:597
0.034:632
0.034:665
0.035:709
0.035:746
0.035:777
0.035:811
0.036:843
0.036:882
0.036:930
0.036:978
0.044:989
0.044:989
0.045:988
0.045:988
0.045:988
0.045:987
0.046:986
0.046:986
0.046:985
0.046:985
0.046:986
0.047:987
0.047:987
0.047:987
0.047:988
0.048:988
0.048:988
0.048:988
0.048:989
0.048:989
0.049:949
0.049:903
0.049:849
0.049:790
0.050:719
0.050:648
0.050:584
0.050:512
0.051:431
0.051:353
0.051:309
0.051:284
0.051:264
0.052:243
0.052:229
0.052:221
0.052:219
0.052:215
0.054:213
0.057:218
0.061:223
0.061:224
0.061:215
0.062:215
0.062:224
0.062:242
0.062:260
0.063:270
0.063:274
0.063:290
0.063:323
0.064:346
0.064:353
0.064:359
0.064:365
0.064:381
0.065:388
0.065:398
0.065:401
0.065:400
0.065:425
0.066:423
0.066:414
0.066:407
0.066:398
0.067:384
0.067:382
0.067:394
0.067:396
0.067:393
0.068:393
0.068:402
0.068:402
0.068:401
0.069:399
0.069:415
0.069:422
0.069:422
0.071:418
0.071:412
0.074:410
0.076:414
0.077:420
0.077:416
0.078:404
0.078:398
0.078:404
0.078:416
0.078:427
0.078:437
0.078:440
0.078:432
0.079:430
0.079:437
0.079:433
0.079:431
0.079:440
0.079:447
0.080:437
0.080:433
0.080:432
0.080:437
0.081:443
0.081:448
0.081:460
0.081:467
0.081:462
0.081:468
0.081:466
0.081:466
0.082:468
0.082:479
0.083:504
0.083:503
0.083:481
0.083:464
0.083:460
0.083:461
0.083:456
0.084:455
0.084:447
0.084:454
0.084:468
0.084:474
0.084:472
0.084:472
0.084:476
0.085:471
0.085:480
0.085:484
0.089:480
0.091:482
0.093:488
0.093:491
0.093:487
0.094:482
0.094:485
0.094:485
0.094:496
0.094:494
0.094:496
0.095:497
0.095:499
0.095:495
0.096:491
0.096:487
0.096:483
0.096:474
0.097:480
0.097:490
0.097:491
0.098:499
0.098:509
0.098:517
0.098:516
0.098:514
0.099:511
0.099:511
0.099:508
0.099:508
0.099:509
0.099:513
0.100:516
0.100:515
0.100:521
0.100:528
0.100:523
0.101:517
0.101:511
0.101:510
0.101:515
0.102:511
0.102:524
0.102:514
0.102:506
0.105:508
0.106:508
0.108:519
0.109:543
0.110:548
0.110:551
0.110:554
0.111:547
0.111:544
0.111:539
0.111:536
0.111:533
0.112:536
0.112:535
0.112:534
0.112:534
0.112:536
0.112:540
0.113:541
0.113:554
0.113:568
0.113:577
0.113:577
0.114:579
0.114:576
0.115:572
0.115:567
0.115:563
0.115:569
0.116:569
0.116:571
0.116:570
0.117:562
0.117:556
0.117:566
0.118:574
0.118:572
0.118:574
0.119:582
0.119:592
0.119:597
0.119:599
0.121:603
0.122:587
0.124:589
0.126:589
0.126:594
0.127:597
0.127:591
0.127:589
0.128:596
0.128:609
0.128:612
0.129:603
0.129:604
0.129:605
0.129:625
0.129:629
0.130:628
0.130:625
0.130:624
0.130:625
0.131:625
0.131:621
0.131:629
0.131:632
0.131:631
0.132:629
0.132:624
0.132:625
0.132:623
0.132:617
0.133:613
0.133:612
0.133:599
0.133:592
0.134:593
0.134:599
0.134:611
0.134:618
0.134:621
0.135:619
0.135:619
0.135:615
0.135:605
0.135:605
0.136:612
0.141:613
0.143:608
0.143:597
0.143:590
0.143:585
0.143:589
0.143:589
0.144:612
0.144:600
0.144:595
0.144:587
0.144:574
0.145:565
0.145:568
0.145:562
0.145:552
0.146:544
0.146:540
0.146:546
0.146:542
0.146:534
0.147:527
0.147:519
0.147:522
0.147:518
0.147:506
0.148:499
0.149:491
0.149:486
0.149:484
0.149:479
0.149:474
0.149:470
0.149:465
0.150:457
0.150:451
0.150:445
0.150:438
0.150:435
0.151:434
0.151:421
0.151:419
0.151:418
0.151:416
0.152:413
0.152:415
0.152:408
0.152:394
0.153:395
0.153:403
0.154:402
0.154:386
0.155:366
0.155:360
0.156:358
0.157:358
0.158:355
0.159:354
0.159:354
0.159:375
0.160:371
0.160:355
0.160:348
0.160:352
0.160:348
0.160:332
0.160:344
0.162:354
0.162:361
0.162:359
0.162:356
0.162:339
0.162:338
0.162:356
0.162:368
0.162:361
0.162:366
0.162:372
0.162:372
0.162:386
0.162:396
0.163:390
0.163:386
0.163:386
0.163:391
0.163:382
0.164:368
0.164:353
0.164:353
0.164:348
0.164:361
0.165:379
0.165:388
0.165:386
0.165:383
0.166:382
0.166:375
0.166:363
0.166:360
0.166:364
0.167:370
0.168:365
0.168:362
0.168:373
0.168:388
0.168:389
0.168:381
0.169:379
0.169:384
0.169:396
0.169:413
0.170:403
0.171:410
0.171:415
0.172:407
0.173:407
0.174:399
0.175:398
0.176:397
0.176:397
0.176:390
0.176:392
0.177:391
0.177:390
0.178:393
0.178:392
0.179:394
0.179:398
0.179:395
0.179:400
0.180:400
0.180:399
0.181:404
0.181:411
0.181:417
0.182:420
0.182:416
0.182:415
0.183:419
0.183:416
0.183:421
0.184:428
0.184:430
0.184:424
0.184:424
0.185:419
0.185:420
0.185:424
0.186:424
0.191:418
0.192:419
0.192:418
0.193:415
0.193:422
0.194:428
0.194:439
0.194:446
0.194:440
0.194:440
0.195:444
0.195:443
0.195:444
0.195:462
0.196:449
0.196:447
0.196:440
0.196:439
0.196:434
0.197:431
0.197:441
0.197:449
0.197:435
0.198:421
0.198:416
0.198:418
0.199:418
0.199:425
0.199:429
0.200:440
0.200:447
0.200:452
0.201:458
0.201:462
0.201:452
0.201:437
0.201:464
0.202:475
0.202:462
0.202:468
0.206:474
0.207:463
0.208:453
0.209:448
0.209:452
0.211:455
0.211:534
0.211:544
0.211:496
0.211:475
0.212:467
0.212:460
0.212:459
0.213:454
0.213:448
0.215:452
0.215:454
0.215:454
0.215:461
0.215:456
0.215:451
0.215:451
0.215:456
0.216:461
0.216:459
0.217:464
0.217:491
0.217:489
0.218:472
0.218:466
0.218:469
0.218:468
0.219:464
0.221:456
0.222:450
0.222:450
0.224:455
0.225:454
0.226:455
0.226:455
0.226:454
0.227:449
0.227:456
0.227:463
0.228:467
0.228:470
0.228:470
0.228:469
0.229:470
0.229:473
0.229:471
0.229:457
0.229:461
0.230:459
0.230:458
0.230:451
0.231:444
0.231:440
0.231:442
0.232:447
0.232:447
0.232:449
0.233:449
0.233:449
0.234:447
0.234:452
0.234:449
0.235:452
0.235:456
0.236:456
0.241:458
0.244:462
0.244:470
0.245:471
0.246:465
0.246:463
0.247:459
0.248:478
0.249:482
0.249:474
0.249:467
0.250:454
0.250:451
0.250:452
0.251:452
0.251:456
0.252:454
0.252:455
0.252:466
0.256:474
0.260:471
0.260:456
0.260:455
0.261:457
0.262:466
0.263:470
0.263:467
0.264:461
0.265:461
0.266:465
0.267:460
0.267:453
0.280:447
0.280:441
0.280:435
0.280:450
0.280:450
0.280:458
0.281:453
0.281:452
0.281:456
0.282:472
0.283:481
0.283:490
0.283:492
0.283:487
0.284:472
0.285:468
0.286:475
0.286:475
0.291:469
0.292:463
0.292:460
0.293:463
0.293:462
0.293:468
0.294:475
0.294:475
0.294:474
0.294:474
0.294:478
0.295:468
0.296:461
0.296:454
0.296:457
0.297:465
0.297:477
0.297:478
0.297:472
0.297:468
0.298:471
0.298:465
0.299:460
0.300:460
0.300:465
0.300:462
0.300:462
0.301:467
0.301:473
0.302:467
0.302:462
0.302:472
0.302:484
0.310:487
0.310:482
0.310:480
0.310:478
0.310:463
0.311:467
0.311:480
0.311:478
0.312:463
0.312:453
0.312:456
0.313:464
0.313:468
0.313:468
0.314:472
0.314:468
0.314:467
0.315:473
0.315:478
0.315:470
0.315:462
0.316:459
0.316:459
0.316:461
0.317:466
0.317:463
0.318:463
0.318:464
0.323:466
0.327:475
0.327:454
0.327:456
0.327:455
0.327:457
0.328:465
0.328:469
0.329:471
0.329:482
0.330:481
0.330:478
0.330:470
0.330:468
0.330:466
0.330:471
0.331:466
0.331:478
0.331:472
0.331:470
0.332:475
0.332:471
0.332:461
0.332:454
0.333:467
0.333:472
0.333:475
0.333:478
0.333:483
0.334:486
0.334:489
0.334:487
0.334:484
0.335:479
0.335:471
0.335:472
0.335:476
0.335:482
0.341:483
0.342:484
0.343:484
0.343:476
0.355:477
0.358:480
0.359:478
0.359:478
0.360:472
0.360:470
0.362:467
0.362:468
0.362:473
0.362:486
0.362:484
0.362:495
0.362:482
0.362:478
0.363:472
0.364:460
0.364:457
0.364:460
0.364:487
0.364:489
0.364:474
0.365:461
0.365:454
0.365:464
0.365:477
0.365:480
0.366:477
0.366:480
0.366:491
0.366:496
0.366:491
0.367:489
0.367:491
0.367:493
0.368:497
0.368:494
0.368:488
0.368:485
0.368:484
0.375:476
0.379:476
0.380:474
0.380:476
0.380:473
0.380:474
0.381:476
0.381:473
0.381:475
0.381:479
0.382:481
0.382:471
0.382:479
0.382:484
0.383:484
0.383:485
0.383:494
0.384:498
0.384:496
0.384:497
0.384:501
0.385:503
0.385:500
0.385:516
0.385:516
0.386:505
0.388:499
0.388:491
0.390:483
0.391:477
0.392:471
0.393:478
0.393:479
0.393:481
0.394:479
0.394:483
0.394:488
0.394:494
0.395:493
0.395:496
0.395:500
0.395:498
0.395:493
0.396:495
0.396:501
0.396:505
0.396:513
0.397:511
0.397:504
0.398:504
0.398:503
0.398:504
0.398:503
0.399:506
0.399:515
0.399:508
0.400:510
0.400:519
0.400:525
0.401:571
0.401:541
0.401:519
0.401:505
0.402:504
0.402:505
0.402:498
0.406:498
0.409:503
0.409:504
0.410:499
0.410:498
0.410:497
0.411:487
0.411:481
0.411:470
0.411:487
0.412:474
0.412:488
0.412:508
0.413:512
0.413:502
0.413:491
0.413:474
0.414:468
0.414:468
0.414:466
0.414:472
0.415:472
0.415:472
0.415:470
0.416:468
0.416:455
0.417:451
0.417:458
0.417:457
0.417:453
0.417:455
0.418:459
0.418:460
0.418:457
0.418:449
0.418:447
0.419:451
0.419:465
0.419:465
0.419:464
0.419:458
0.420:462
0.421:461
0.421:461
0.421:461
0.422:465
0.425:468
0.426:471
0.426:465
0.427:469
0.427:464
0.427:467
0.427:468
0.428:472
0.428:472
0.428:467
0.428:462
0.428:448
0.428:451
0.428:457
0.429:459
0.430:486
0.430:467
0.430:460
0.430:468
0.431:471
0.431:470
0.431:474
0.431:480
0.432:485
0.432:481
0.432:469
0.432:464
0.433:469
0.433:464
0.433:454
0.433:448
0.433:445
0.434:445
0.434:448
0.434:450
0.434:453
0.434:459
0.434:469
0.434:469
0.434:465
0.435:475
0.435:471
0.437:462
0.438:462
0.440:457
0.442:453
0.443:458
0.444:457
0.444:449
0.444:445
0.444:438
0.445:430
0.445:417
0.445:412
0.445:406
0.446:403
0.446:413
0.446:420
0.446:413
0.447:397
0.447:398
0.447:409
0.448:421
0.448:437
0.448:458
0.448:485
0.448:504
0.448:549
0.449:562
0.449:576
0.449:606
0.449:644
0.449:672
0.450:697
0.450:732
0.450:753
0.451:780
0.451:817
0.451:851
0.451:895
0.454:948
0.455:989
0.457:989
0.458:988
0.460:988
0.460:987
0.460:987
0.460:987
0.460:986
0.460:987
0.460:987
0.461:988
0.461:988
0.462:988
0.462:988
0.462:988
0.462:988
0.463:989
0.463:989
0.463:955
0.463:912
0.464:874
0.464:831
0.464:787
0.465:722
0.465:655
0.465:588
0.465:523
0.466:452
0.466:388
0.466:326
0.466:286
0.467:261
0.467:245
0.467:231
0.468:226
0.468:222
0.468:217
0.471:211
0.472:220
0.474:214
0.476:213
0.476:221
0.476:222
0.476:219
0.476:219
0.477:238
0.477:266
0.477:284
0.477:306
0.477:320
0.477:327
0.479:335
0.479:341
0.479:350
0.479:360
0.480:366
0.480:372
0.480:379
0.480:382
0.480:384
0.481:382
0.481:390
0.481:402
0.482:404
0.482:402
0.482:395
0.482:405
0.483:411
0.483:411
0.483:419
0.483:412
0.483:412
0.484:416
0.484:426
0.484:429
0.484:421
0.484:405
0.484:405
0.484:411
0.485:415
0.485:415
0.486:420
0.487:429
0.489:435
0.492:430
0.492:425
0.493:423
0.493:421
0.493:425
0.494:434
0.494:447
0.494:451
0.494:439
0.494:442
0.494:440
0.494:438
0.495:429
0.495:424
0.496:422
0.496:432
0.496:442
0.496:449
0.496:459
0.497:462
0.497:453
0.497:444
0.497:440
0.498:440
0.498:446
0.498:450
0.498:463
0.499:471
0.499:478
0.499:476
0.500:479
0.500:477
0.500:478
0.501:476
0.501:473
0.502:470
0.507:476
0.509:473
0.510:477
0.510:480
0.511:480
0.511:475
0.512:465
0.513:466
0.513:474
0.513:480
0.513:481
0.513:481
0.514:484
0.515:487
0.515:488
0.515:479
0.515:476
0.516:477
0.516:482
0.516:481
0.516:483
0.516:482
0.517:489
0.517:513
0.517:500
0.517:493
0.518:496
0.518:503
0.518:499
0.518:494
0.518:496
0.521:505
0.525:509
0.526:516
0.526:518
0.527:510
0.527:508
0.527:506
0.527:511
0.528:511
0.528:510
0.528:506
0.528:508
0.529:515
0.529:511
0.529:498
0.530:497
0.530:522
0.530:536
0.530:537
0.531:532
0.531:531
0.531:530
0.532:531
0.532:528
0.532:527
0.532:526
0.533:521
0.533:519
0.534:521
0.534:524
0.534:523
0.534:521
0.534:528
0.534:536
0.535:542
0.535:550
0.535:543
0.535:533
0.535:537
0.536:549
0.542:549
0.543:554
0.543:557
0.543:554
0.544:566
0.544:556
0.544:551
0.544:551
0.544:561
0.544:565
0.545:564
0.545:560
0.545:565
0.546:574
0.546:580
0.546:575
0.546:570
0.547:566
0.547:568
0.547:574
0.547:583
0.548:586
0.548:586
0.548:586
0.548:578
0.548:573
0.548:579
0.548:591
0.548:587
0.549:594
0.549:606
0.549:611
0.549:615
0.549:604
0.550:595
0.550:592
0.550:590
0.550:596
0.551:596
0.551:606
0.551:611
0.551:614
0.553:618
0.559:619
0.560:620
0.560:614
0.560:607
0.560:601
0.560:600
0.560:606
0.560:609
0.561:606
0.561:610
0.562:611
0.562:615
0.562:631
0.562:619
0.562:620
0.562:623
0.563:628
0.563:628
0.563:627
0.563:619
0.563:607
0.563:604
0.563:602
0.564:594
0.564:592
0.564:585
0.564:579
0.564:585
0.565:598
0.565:595
0.565:581
0.565:580
0.565:577
0.566:577
0.566:580
0.566:582
0.566:579
0.567:574
0.567:562
0.567:553
0.567:545
0.567:547
0.568:556
0.568:556
0.568:552
0.568:539
0.568:524
0.568:517
0.571:517
0.576:508
0.576:500
0.576:495
0.577:494
0.577:495
0.577:491
0.577:488
0.577:473
0.577:459
0.577:447
0.579:441
0.579:434
0.579:434
0.579:436
0.579:440
0.579:453
0.580:427
0.580:407
0.580:402
0.580:396
0.580:389
0.581:393
0.581:390
0.581:382
0.582:385
0.582:382
0.582:376
0.583:376
0.583:376
0.583:382
0.583:379
0.583:365
0.584:351
0.584:351
0.584:357
0.584:350
0.584:345
0.584:343
0.585:337
0.585:337
0.585:337
0.585:332
0.585:337
0.586:337
0.588:340
0.591:343
0.592:342
0.593:336
0.593:331
0.593:345
0.593:351
0.593:350
0.594:351
0.594:352
0.595:352
0.595:347
0.595:341
0.596:332
0.596:328
0.596:335
0.596:336
0.597:331
0.597:330
0.597:335
0.598:345
0.598:349
0.598:347
0.598:368
0.599:353
0.599:347
0.599:349
0.599:351
0.600:352
0.600:358
0.601:365
0.601:368
0.601:365
0.601:371
0.601:376
0.603:377
0.606:372
0.607:370
0.609:368
0.609:368
0.609:369
0.609:370
0.610:367
0.610:365
0.610:365
0.611:367
0.611:368
0.611:368
0.611:373
0.611:382
0.612:388
0.612:391
0.612:386
0.613:378
0.613:385
0.613:381
0.613:379
0.613:379
0.614:376
0.614:373
0.614:376
0.614:375
0.614:373
0.615:376
0.615:385
0.615:386
0.615:394
0.616:398
0.616:407
0.616:400
0.616:394
0.616:400
0.617:404
0.617:405
0.617:403
0.617:395
0.618:406
0.618:404
0.619:398
0.621:395
0.624:397
0.626:405
0.626:397
0.626:402
0.626:412
0.627:422
0.627:428
0.627:417
0.627:410
0.627:413
0.627:417
0.628:424
0.628:423
0.628:416
0.628:407
0.628:407
0.628:407
0.628:408
0.629:405
0.629:408
0.629:411
0.629:410
0.629:413
0.629:411
0.630:411
0.630:409
0.630:405
0.630:415
0.630:423
0.630:426
0.631:427
0.631:430
0.632:432
0.632:427
0.632:424
0.632:416
0.632:412
0.632:409
0.632:413
0.632:429
0.632:432
0.632:432
0.632:425
0.633:416
0.633:415
0.633:414
0.633:424
0.633:440
0.634:439
0.634:435
0.634:433
0.634:436
0.634:446
0.634:436
0.634:423
0.636:411
0.643:407
0.643:406
0.643:421
0.643:430
0.643:430
0.643:430
0.643:427
0.643:427
0.643:421
0.644:414
0.644:416
0.644:424
0.644:428
0.645:429
0.645:427
0.645:433
0.646:442
0.646:441
0.646:437
0.647:434
0.647:442
0.647:444
0.648:438
0.648:434
0.648:423
0.648:408
0.648:412
0.648:414
0.648:414
0.649:412
0.649:406
0.649:410
0.649:422
0.649:436
0.649:435
0.649:427
0.649:424
0.650:426
0.650:428
0.650:421
0.650:415
0.650:405
0.651:411
0.651:430
0.651:439
0.654:434
0.656:429
0.660:423
0.660:421
0.660:427
0.660:436
0.660:433
0.661:435
0.661:436
0.661:431
0.661:429
0.662:428
0.662:437
0.662:445
0.663:446
0.663:433
0.663:416
0.664:415
0.664:417
0.665:422
0.665:422
0.666:418
0.666:411
0.666:409
0.667:409
0.667:407
0.667:416
0.668:432
0.668:429
0.673:420
0.675:416
0.675:421
0.676:426
0.676:421
0.676:412
0.677:411
0.677:406
0.677:405
0.678:411
0.679:421
0.679:422
0.680:418
0.680:422
0.680:422
0.681:420
0.681:421
0.681:421
0.682:428
0.682:439
0.682:435
0.683:418
0.683:418
0.683:418
0.684:419
0.684:422
0.685:425
0.685:420
0.685:424
0.687:424
0.688:426
0.692:418
0.693:413
0.693:422
0.693:433
0.693:434
0.694:423
0.694:428
0.694:429
0.694:431
0.694:431
0.695:425
0.695:419
0.695:413
0.696:409
0.696:409
0.696:410
0.696:415
0.696:414
0.696:410
0.696:405
0.697:400
0.697:400
0.697:399
0.697:410
0.698:423
0.698:428
0.698:421
0.698:421
0.699:425
0.699:430
0.699:421
0.699:411
0.699:406
0.700:407
0.700:407
0.700:412
0.700:412
0.700:407
0.701:405
0.701:400
0.701:404
0.702:410
0.704:431
0.706:431
0.707:422
0.708:416
0.708:415
0.709:418
0.709:418
0.709:415
0.709:413
0.709:405
0.709:398
0.710:399
0.710:404
0.710:401
0.710:409
0.710:415
0.711:411
0.711:415
0.711:416
0.711:414
0.711:413
0.712:414
0.712:422
0.713:422
0.713:417
0.713:412
0.714:407
0.714:397
0.715:417
0.715:403
0.716:400
0.716:406
0.716:408
0.717:400
0.717:399
0.718:410
0.723:419
0.724:423
0.725:416
0.726:410
0.726:400
0.726:405
0.726:419
0.727:421
0.727:419
0.728:417
0.728:410
0.728:407
0.728:411
0.728:421
0.728:418
0.729:418
0.729:437
0.729:425
0.729:420
0.730:408
0.730:403
0.730:403
0.730:395
0.730:400
0.731:404
0.731:404
0.732:422
0.732:421
0.732:417
0.733:401
0.733:389
0.733:388
0.734:406
0.734:473
0.735:426
0.741:424
0.742:424
0.742:419
0.743:408
0.743:398
0.743:390
0.743:386
0.743:389
0.743:394
0.744:402
0.744:401
0.744:401
0.744:395
0.744:394
0.744:390
0.744:386
0.745:383
0.745:389
0.745:414
0.745:397
0.745:405
0.745:411
0.745:412
0.745:404
0.746:402
0.746:395
0.746:394
0.746:448
0.746:603
0.747:479
0.747:422
0.747:398
0.747:395
0.748:413
0.748:397
0.748:395
0.748:399
0.749:405
0.749:401
0.749:396
0.750:399
0.750:391
0.750:384
0.751:387
0.751:398
0.754:400
0.754:396
0.755:393
0.757:386
0.760:378
0.760:378
0.760:375
0.761:372
0.761:384
0.761:383
0.761:384
0.762:385
0.762:383
0.763:379
0.763:383
0.763:386
0.764:394
0.764:400
0.764:399
0.765:393
0.765:385
0.766:387
0.766:388
0.766:390
0.767:389
0.767:384
0.768:385
0.768:393
0.771:401
0.776:407
0.776:400
0.778:390
0.778:385
0.779:393
0.779:399
0.779:401
0.779:402
0.780:404
0.780:398
0.780:392
0.780:412
0.781:387
0.781:382
0.781:393
0.781:390
0.782:392
0.782:381
0.782:375
0.783:378
0.783:382
0.783:383
0.783:385
0.784:388
0.784:395
0.784:398
0.785:398
0.786:396
0.786:397
0.787:400
0.787:396
0.792:391
0.792:388
0.793:390
0.793:386
0.793:388
0.794:388
0.794:388
0.794:388
0.794:394
0.795:398
0.795:393
0.795:390
0.796:386
0.796:392
0.796:428
0.796:458
0.797:425
0.797:416
0.797:410
0.797:398
0.797:391
0.798:389
0.798:390
0.799:399
0.799:433
0.799:458
0.799:433
0.800:408
0.800:396
0.800:398
0.800:401
0.801:409
0.801:430
0.801:420
0.807:415
0.809:413
0.809:418
0.810:419
0.810:415
0.810:409
0.810:406
0.811:403
0.811:399
0.811:395
0.811:396
0.811:397
0.812:395
0.812:391
0.812:391
0.812:390
0.813:391
0.813:389
0.813:385
0.813:383
0.814:384
0.814:388
0.814:386
0.815:379
0.815:377
0.815:372
0.816:369
0.816:358
0.816:356
0.816:352
0.816:350
0.817:350
0.817:353
0.817:357
0.818:359
0.818:360
0.818:361
0.823:361
0.824:357
0.826:356
0.826:349
0.826:374
0.826:386
0.826:360
0.826:363
0.827:365
0.827:360
0.828:356
0.828:357
0.828:360
0.829:366
0.829:364
0.829:365
0.829:363
0.830:350
0.830:345
0.830:344
0.830:352
0.831:358
0.831:357
0.831:353
0.832:352
0.832:354
0.832:351
0.832:354
0.833:348
0.833:342
0.833:353
0.833:358
0.834:358
0.834:353
0.834:349
0.834:345
0.834:349
0.835:349
0.840:346
0.841:345
0.842:347
0.842:349
0.843:350
0.843:360
0.843:371
0.843:374
0.843:371
0.844:363
0.844:343
0.844:340
0.844:347
0.845:351
0.845:352
0.845:349
0.845:349
0.845:351
0.846:358
0.846:352
0.846:351
0.846:350
0.847:354
0.847:351
0.847:357
0.847:362
0.848:354
0.848:356
0.848:354
0.848:336
0.848:324
0.848:318
0.848:315
0.849:310
0.849:291
0.849:283
0.849:293
0.850:298
0.850:304
0.850:310
0.850:307
0.851:306
0.851:314
0.854:326
0.857:339
0.859:354
0.860:381
0.860:412
0.860:443
0.860:474
0.860:499
0.860:530
0.860:573
0.860:618
0.860:658
0.860:687
0.860:706
0.860:742
0.861:784
0.861:829
0.861:861
0.861:896
0.861:945
0.861:989
0.862:989
0.862:988
0.862:988
0.862:987
0.862:987
0.862:987
0.862:987
0.863:988
0.863:989
0.863:989
0.863:989
0.863:972
0.863:972
0.863:948
0.863:917
0.864:894
0.864:879
0.864:830
0.864:788
0.864:746
0.864:688
0.864:622
0.865:557
0.865:489
0.865:402
0.866:321
0.866:250
0.866:197
0.866:158
0.866:135
0.866:133
0.866:122
0.866:108
0.866:107
0.866:100
0.867:98
0.867:98
0.867:100
0.867:111
0.867:128
0.867:143
0.867:145
0.867:154
0.870:165
0.870:189
0.870:206
0.870:215
0.870:233
0.871:251
0.872:266
0.872:275
0.873:275
0.873:268
0.873:266
0.874:268
0.874:270
0.875:277
0.875:283
0.875:284
0.875:282
0.875:285
0.875:284
0.875:278
0.876:277
0.876:282
0.876:288
0.876:289
0.876:309
0.876:293
0.876:283
0.876:277
0.877:292
0.877:292
0.877:309
0.877:302
0.877:294
0.877:297
0.877:297
0.878:304
0.878:306
0.879:306
0.879:294
0.879:292
0.879:313
0.879:334
0.880:376
0.880:358
0.880:341
0.880:337
0.881:338
0.881:337
0.881:334
0.881:337
0.881:339
0.881:340
0.881:333
0.882:336
0.882:336
0.882:339
0.882:340
0.882:342
0.882:347
0.882:347
0.882:344
0.883:349
0.883:383
0.883:370
0.883:363
0.883:365
0.884:359
0.884:353
0.884:355
0.884:360
0.884:355
0.884:349
0.884:352
0.884:358
0.885:363
0.885:361
0.886:384
0.887:374
0.887:373
0.890:370
0.892:371
0.892:369
0.892:366
0.893:368
0.894:379
0.894:383
0.894:383
0.894:386
0.894:381
0.894:381
0.895:378
0.895:380
0.895:388
0.895:390
0.895:388
0.896:382
0.896:383
0.896:386
0.896:390
0.897:396
0.897:402
0.897:401
0.898:394
0.900:404
0.900:407
0.900:408
0.900:407
0.900:409
0.900:414
0.901:413
0.901:414
0.902:426
0.902:426
0.903:427
0.903:431
0.904:421
0.905:410
0.906:406
0.907:404
0.909:424
0.909:436
0.909:425
0.909:421
0.909:419
0.910:420
0.910:421
0.910:419
0.910:421
0.910:439
0.911:432
0.911:439
0.911:451
0.911:449
0.912:436
0.912:432
0.912:436
0.912:445
0.912:448
0.912:448
0.912:455
0.913:462
0.913:473
0.913:471
0.913:465
0.913:465
0.914:472
0.914:467
0.914:466
0.914:458
0.914:458
0.914:456
0.915:457
0.915:454
0.915:459
0.915:470
0.915:491
0.915:498
0.915:499
0.916:499
0.916:498
0.916:502
0.916:509
0.916:507
0.916:503
0.916:503
0.916:503
0.917:502
0.917:501
0.917:501
0.917:501
0.917:504
0.918:505
0.918:506
0.918:505
0.921:507
0.923:505
0.924:508
0.925:507
0.926:507
0.927:509
0.927:533
0.927:524
0.927:527
0.927:533
0.927:544
0.927:544
0.927:534
0.927:540
0.927:542
0.927:539
0.928:541
0.928:545
0.928:548
0.929:553
0.929:551
0.929:536
0.929:527
0.931:528
0.931:532
0.932:541
0.932:544
0.932:544
0.933:545
0.933:546
0.933:539
0.933:535
0.933:541
0.933:550
0.933:552
0.934:552
0.934:543
0.934:543
0.943:541
0.943:536
0.944:527
0.944:527
0.944:521
0.944:508
0.945:519
0.945:526
0.945:523
0.945:530
0.945:536
0.946:524
0.946:515
0.946:509
0.946:509
0.946:508
0.947:502
0.947:499
0.947:497
0.947:490
0.947:505
0.947:494
0.947:475
0.948:461
0.948:457
0.948:446
0.948:447
0.948:431
0.949:433
0.949:447
0.949:459
0.949:453
0.949:443
0.949:426
0.949:417
0.950:407
0.950:408
0.950:410
0.950:396
0.950:385
0.951:381
0.958:373
0.960:362
0.960:350
0.960:353
0.961:358
0.961:356
0.961:353
0.961:357
0.961:364
0.961:357
0.961:350
0.961:346
0.962:339
0.962:337
0.962:350
0.962:343
0.963:343
0.963:335
0.963:333
0.963:336
0.964:337
0.964:332
0.964:316
0.964:303
0.965:300
0.965:303
0.965:308
0.965:303
0.966:304
0.966:308
0.967:309
0.967:317
0.967:315
0.968:301
0.970:295
0.970:296
0.978:298
0.979:306
0.979:308
0.979:308
0.979:312
0.980:318
0.980:327
0.980:325
0.980:323
0.980:321
0.980:315
0.980:306
0.981:314
0.981:326
0.981:329
0.981:323
0.981:316
0.982:315
0.982:314
0.982:327
0.982:331
0.983:330
0.983:325
0.983:314
0.983:309
0.984:312
0.984:323
0.984:336
0.984:344
0.991:350
0.993:356
0.993:348
0.993:342
0.993:350
0.994:345
0.994:351
0.994:354
0.994:352
0.995:358
0.995:371
0.995:371
0.995:369
0.995:363
0.995:357
0.996:361
0.996:363
0.996:356
0.997:367
0.997:379
0.997:376
0.997:379
0.998:380
0.998:375
0.998:370
0.998:365
0.998:367
0.998:373
0.999:378
0.999:380
0.999:381
0.999:386
0.999:381
0.999:378
0.999:379
0.999:388
1.000:387
1.000:382
1.000:377
1.001:375
1.005:379
1.007:379
1.009:390
1.010:388
1.010:390
1.010:407
1.010:419
1.010:416
1.010:406
1.010:396
1.010:395
1.011:397
1.011:397
1.011:399
1.011:402
1.012:404
1.012:408
1.012:402
1.012:392
1.012:385
1.012:390
1.013:393
1.013:400
1.013:402
1.013:402
1.013:403
1.013:406
1.013:400
1.014:398
1.014:402
1.014:425
1.014:425
1.015:424
1.015:425
1.015:428
1.016:432
1.016:435
1.016:440
1.016:434
1.016:420
1.017:419
1.017:417
1.018:415
1.024:429
1.025:434
1.025:426
1.025:420
1.026:421
1.026:419
1.026:416
1.027:421
1.027:425
1.027:433
1.027:437
1.027:436
1.028:434
1.028:430
1.028:430
1.028:432
1.028:439
1.028:438
1.029:424
1.029:432
1.029:443
1.030:446
1.030:443
1.030:446
1.031:453
1.031:445
1.032:438
1.032:439
1.032:441
1.032:444
1.033:447
1.033:437
1.033:435
1.033:432
1.033:435
1.034:447
1.034:453
1.034:456
1.042:456
1.042:469
1.043:464
1.043:462
1.043:456
1.045:457
1.045:452
1.046:445
1.046:446
1.046:448
1.046:448
1.046:447
1.047:439
1.047:434
1.047:435
1.047:446
1.047:456
1.047:457
1.047:454
1.048:449
1.048:450
1.048:451
1.048:447
1.049:446
1.049:460
1.049:479
1.049:483
1.050:473
1.050:456
1.050:449
1.050:448
1.051:443
1.051:444
1.056:450
1.058:460
1.059:467
1.059:461
1.059:451
1.059:449
1.059:453
1.060:457
1.060:457
1.060:450
1.061:454
1.061:452
1.061:444
1.061:442
1.061:446
1.061:448
1.061:
1.061:487
1.062:489
1.062:479
1.062:470
1.062:470
1.062:473487
1.062:487
1.062:477
1.063:471
1.063:478
1.063:489
1.063:493
1.063:480
1.064:481
1.064:484
1.064:479
1.064:478
1.064:475
1.065:476
1.065:485
1.065:493
1.065:497
1.066:491
1.066:495
1.066:498
1.066:487
1.066:489
1.067:479
1.067:470
1.067:470
1.067:473
1.068:467
1.069:47177
1.069:471
1.070:478
1.071:489
1.072:493
1.072:480
1.073:481
1.073:484
1.074:479
1.074:478
1.074:475
1.074:476
1.075:485
1.075:493
1.075:497
1.075:491
1.076:495
1.076:498
1.076:487
1.076:489
1.076:479
1.077:470
1.077:470
1.077:473
1.077:467
1.077:471
1.078:476
1.078:478
1.078:47
1.078:489
1.078:493
1.078:480
1.079:481
1.079:484
1.079:479
1.079:478
1.079:475
1.079:476
1.080:485
1.080:493
1.080:497
1.080:491
1.080:495
1.081:498
1.081:487
1.081:489
1.081:479
1.081:470
1.082:470
1.082:473
1.082:467
1.082:471
1.083:476
1.083:478
1.083:471
1.084:479
1.087:479
1.087:483
1.088:489
1.090:485
1.090:471
1.091:469
1.092:480
1.092:490
1.092:490
1.092:493
1.093:493
1.093:483
1.093:473
1.093:472
1.094:477
1.094:473
1.094:464
1.094:470
1.094:473
1.095:480
1.095:487
1.095:490
1.095:496
1.095:499
1.096:490
1.096:480
1.096:503
1.096:500
1.096:504
1.097:505
1.097:501
1.097:483
1.097:474
1.098:483
1.098:485
1.098:476
1.098:470
1.098:478
1.099:488
1.099:488
1.099:481
1.099:475
1.099:485
1.100:501
1.100:493
1.100:484
1.100:481
1.103:490
1.103:496
1.103:492
1.103:500
1.104:497
1.105:490
1.106:487
1.106:481
1.107:470
1.107:462
1.108:467
1.108:474
1.108:478
1.108:483
1.108:488
1.109:492
1.109:494
1.109:488
1.109:487
1.110:489
1.110:498
1.110:498
1.110:507
1.111:498
1.111:500
1.111:493
1.111:482
1.112:480
1.112:483
1.112:474
1.112:495
1.112:487
1.114:497
1.114:495
1.114:488
1.114:483
1.114:480
1.115:485
1.115:491
1.115:488
1.116:491
1.116:503
1.116:507
1.116:500
1.116:491
1.117:484
1.117:485
1.118:491
1.121:492
1.121:491
1.122:483
1.123:485
1.124:499
1.125:496
1.125:488
1.125:486
1.126:491
1.126:506
1.126:506
1.126:498
1.127:495
1.127:498
1.127:506
1.127:508
1.128:501
1.128:503
1.128:510
1.128:513
1.129:508
1.129:504
1.129:504
1.129:504
1.129:504
1.130:497
1.130:488
1.130:492
1.130:494
1.131:502
1.131:498
1.131:490
1.132:492
1.132:492
1.132:523
1.133:516
1.133:508
1.133:508
1.134:515
1.134:526
1.134:523
1.134:512
1.142:504
1.142:502
1.142:508
1.143:524
1.143:517
1.143:505
1.143:505
1.144:507
1.144:517
1.145:529
1.145:536
1.145:537
1.146:538
1.146:546
1.147:534
1.147:524
1.148:513
1.148:517
1.149:527
1.149:519
1.149:517
1.149:516
1.150:521
1.150:527
1.150:518
1.151:517
1.155:507
1.159:508
1.159:515
1.159:518
1.160:509
1.160:504
1.160:515
1.160:521
1.161:504
1.161:487
1.161:478
1.161:480
1.162:482
1.162:477
1.163:463
1.163:459
1.164:472
1.164:496
1.164:469
1.165:458
1.165:460
1.165:472
1.166:484
1.166:481
1.167:472
1.167:472
1.168:472
1.170:488
1.172:493
1.173:479
1.173:467
1.174:462
1.175:466
1.175:464
1.175:467
1.175:467
1.176:466
1.176:474
1.176:477
1.176:467
1.177:466
1.177:464
1.178:459
1.178:461
1.178:461
1.178:458
1.179:462
1.179:482
1.179:483
1.179:469
1.179:460
1.179:447
1.179:451
1.179:462
1.180:474
1.180:481
1.180:472
1.180:470
1.180:469
1.180:458
1.180:454
1.180:457
1.181:460
1.181:463
1.181:463
1.181:463
1.181:466
1.181:485
1.181:487
1.181:497
1.181:484
1.182:469
1.182:466
1.182:468
1.182:464
1.182:453
1.183:452
1.183:467
1.183:473
1.183:467
1.183:458
1.184:458
1.184:463
1.184:475
1.184:471
1.186:471
1.187:463
1.187:467
1.188:480
1.191:480
1.192:465
1.192:459
1.192:448
1.193:445
1.193:450
1.193:434
1.193:412
1.194:407
1.194:406
1.194:402
1.194:391
1.194:392
1.195:394
1.195:403
1.195:408
1.195:406
1.196:401
1.196:410
1.196:420
1.196:431
1.196:440
1.197:453
1.197:473
1.197:500
1.197:524
1.197:558
1.198:587
1.198:626
1.198:678
1.198:720
1.198:753
1.199:807
1.199:852
1.199:899
1.199:945
1.199:982
1.199:989
1.200:989
1.200:988
1.200:987
1.202:987
1.203:986
1.203:986
1.204:985
1.205:985
1.206:985
1.207:985
1.208:986
1.208:986
1.208:986
1.209:987
1.209:987
1.209:987
1.209:987
1.210:989
1.210:989
1.210:989
1.211:989
1.211:951
1.212:902
1.212:833
1.212:761
1.213:684
1.213:605
1.213:525
1.214:442
1.214:360
1.215:298
1.215:248
1.215:216
1.216:208
1.216:197
1.216:193
1.217:197
1.217:199
1.219:204
1.219:203
1.224:204
1.225:211
1.225:218
1.225:225
1.225:224
1.226:239
1.226:256
1.226:286
1.226:299
1.227:327
1.227:342
1.227:340
1.228:352
1.228:364
1.228:364
1.228:365
1.229:364
1.229:370
1.229:383
1.230:383
1.230:376
1.231:373
1.231:379
1.231:388
1.232:382
1.232:379
1.232:383
1.233:388
1.233:392
1.234:395
1.234:387
1.236:385
1.240:386
1.241:386
1.242:378
1.242:386
1.242:397
1.243:411
1.243:411
1.244:417
1.244:423
1.244:413
1.245:406
1.245:410
1.246:413
1.246:411
1.246:414
1.247:416
1.247:424
1.247:426
1.248:425
1.248:419
1.248:417
1.248:419
1.249:429
1.249:423
1.249:410
1.249:414
1.249:426
1.250:447
1.250:453
1.250:447
1.250:451
1.252:461
1.252:457
1.253:449
1.255:436
1.256:430
1.258:439
1.258:447
1.258:454
1.258:443
1.258:437
1.258:443
1.259:447
1.259:441
1.259:436
1.259:438
1.259:455
1.260:466
1.260:467
1.261:465
1.261:476
1.261:478
1.261:477
1.261:468
1.261:457
1.261:450
1.261:460
1.262:462
1.262:467
1.262:465
1.263:461
1.263:461
1.263:464
1.264:466
1.264:480
1.265:481
1.265:481
1.265:496
1.266:497
1.266:490
1.267:480
1.267:489
1.270:500
1.270:502
1.271:488
1.272:479
1.273:483
1.273:492
1.274:497
1.274:521
1.274:497
1.275:486
1.275:492
1.275:498
1.275:496
1.275:497
1.276:499
1.276:515
1.276:518
1.276:515
1.277:512
1.277:510
1.277:513
1.277:520
1.277:517
1.278:512
1.278:517
1.278:518
1.279:522
1.279:525
1.279:516
1.280:514
1.280:519
1.280:518
1.280:516
1.281:517
1.281:524
1.281:539
1.282:543
1.282:537
1.282:530
1.283:531
1.283:548
1.283:548
1.286:539
1.286:532
1.287:530
1.289:540
1.290:550
1.291:543
1.291:540
1.292:553
1.292:571
1.292:563
1.293:545
1.293:551
1.293:551
1.294:557
1.294:565
1.295:576
1.295:573
1.295:588
1.296:591
1.296:595
1.297:594
1.297:589
1.297:584
1.298:585
1.298:594
1.298:595
1.299:586
1.299:579
1.300:578
1.300:591
1.300:587
1.300:583
1.300:585
1.302:581
1.303:598
1.303:610
1.305:612
1.306:606
1.308:606
1.308:614
1.309:616
1.309:610
1.309:606
1.310:604
1.310:611
1.310:615
1.310:623
1.310:612
1.310:605
1.311:616
1.311:624
1.311:629
1.311:633
1.312:627
1.312:635
1.312:636
1.312:631
1.313:629
1.313:627
1.313:638
1.313:641
1.313:626
1.314:614
1.314:616
1.314:619
1.315:617
1.315:617
1.315:607
1.315:631
1.315:632
1.316:628
1.316:616
1.316:616
1.316:608
1.316:606
1.317:608
1.317:615
1.319:608
1.319:597
1.320:595
1.321:595
1.321:596
1.322:583
1.323:578
1.323:569
1.323:566
1.324:569
1.324:571
1.324:570
1.324:570
1.325:572
1.325:571
1.325:551
1.325:533
1.326:523
1.326:528
1.326:529
1.326:519
1.326:507
1.327:502
1.327:502
1.327:498
1.327:490
1.327:483
1.328:472
1.329:468
1.329:460
1.329:451
1.330:440
1.330:435
1.330:436
1.330:435
1.331:424
1.331:411
1.331:410
1.331:413
1.331:410
1.332:470
1.332:421
1.332:400
1.332:416
1.333:398
1.333:381
1.333:376
1.333:374
1.333:367
1.334:361
1.334:358
1.334:347
1.341:350
1.342:354
1.342:351
1.343:351
1.343:346
1.343:341
1.343:345
1.343:353
1.344:354
1.344:351
1.344:347
1.345:348
1.345:347
1.345:347
1.345:341
1.345:333
1.346:337
1.346:343
1.346:341
1.346:333
1.346:325
1.347:332
1.347:337
1.347:338
1.347:339
1.348:344
1.348:342
1.348:350
1.348:361
1.348:363
1.349:369
1.349:362
1.349:361
1.349:360
1.349:351
1.350:339
1.350:336
1.350:344
1.350:351
1.351:351
1.351:350
1.352:356
1.353:362
1.354:373
1.355:365
1.356:360
1.357:360
1.357:373
1.358:378
1.358:374
1.358:374
1.359:381
1.359:389
1.359:383
1.359:373
1.360:371
1.360:369
1.361:373
1.361:376
1.361:376
1.361:372
1.361:375
1.362:382
1.362:382
1.362:386
1.362:379
1.363:371
1.363:374
1.363:389
1.364:400
1.364:399
1.364:391
1.364:400
1.364:414
1.364:415
1.365:403
1.365:389
1.365:385
1.365:402
1.365:416
1.366:423
1.366:405
1.366:393
1.366:396
1.367:398
1.367:400
1.370:398
1.370:402
1.370:408
1.371:406
1.372:406
1.372:403
1.373:414
1.373:421
1.374:424
1.374:425
1.374:420
1.375:414
1.375:426
1.375:429
1.375:420
1.375:415
1.376:419
1.376:428
1.376:423
1.376:416
1.376:419
1.377:423
1.377:432
1.377:435
1.377:438
1.378:440
1.378:432
1.378:433
1.378:442
1.379:443
1.379:434
1.379:418
1.379:419
1.379:414
1.380:411
1.380:416
1.380:421
1.380:421
1.380:425
1.381:429
1.381:481
1.381:451
1.381:433
1.382:435
1.382:430
1.382:429
1.383:428
1.383:430
1.383:448
1.383:449
1.383:440
1.383:435
1.383:434
1.386:443
1.386:451
1.386:450
1.386:436
1.389:431
1.391:431
1.392:432
1.392:435
1.392:432
1.393:461
1.393:458
1.393:460
1.394:462
1.394:452
1.394:443
1.395:454
1.395:459
1.395:459
1.395:453
1.396:445
1.396:441
1.396:438
1.396:447
1.397:446
1.397:448
1.397:443
1.397:443
1.397:443
1.398:447
1.398:447
1.398:445
1.398:445
1.399:448
1.399:450
1.399:454
1.399:454
1.400:446
1.400:444
1.400:439
1.400:441
1.400:441
1.400:441
1.402:441
1.403:440
1.403:440
1.404:444
1.405:449
1.406:451
1.406:443
1.408:440
1.408:440
1.408:446
1.408:461
1.409:498
1.409:464
1.409:454
1.409:447
1.410:448
1.410:452
1.410:455
1.410:453
1.410:450
1.411:453
1.411:448
1.411:447
1.411:450
1.411:451
1.412:459
1.412:462
1.412:462
1.412:458
1.413:455
1.413:447
1.413:442
1.413:450
1.413:459
1.414:451
1.414:444
1.414:435
1.414:437
1.415:443
1.415:455
1.415:459
1.415:457
1.415:455
1.416:458
1.416:461
1.416:467
1.416:463
1.416:447
1.417:444
1.417:448
1.419:447
1.420:449
1.421:448
1.422:444
1.423:452
1.425:450
1.425:448
1.425:453
1.425:456
1.426:456
1.426:452
1.426:448
1.427:448
1.427:449
1.428:453
1.428:456
1.428:452
1.428:443
1.429:447
1.429:450
1.429:458
1.429:483
1.429:464
1.430:456
1.430:459
1.430:465
1.430:473
1.430:475
1.431:457
1.431:451
1.431:453
1.431:453
1.431:449
1.432:446
1.432:452
1.432:451
1.432:447
1.432:445
1.433:448
1.433:454
1.433:462
1.433:457
1.437:454
1.442:457
1.442:461
1.443:460
1.443:465
1.444:458
1.444:455
1.444:459
1.445:455
1.445:454
1.446:456
1.446:454
1.446:455
1.447:459
1.447:477
1.447:485
1.448:467
1.448:458
1.448:474
1.448:468
1.448:459
1.449:456
1.449:467
1.450:477
1.450:474
1.450:476
1.452:463
1.453:460
1.456:454
1.458:454
1.458:454
1.459:478
1.459:467
1.460:465
1.460:465
1.461:466
1.461:456
1.461:455
1.461:463
1.461:467
1.461:461
1.462:462
1.462:466
1.463:466
1.463:460
1.463:457
1.464:457
1.464:454
1.465:451
1.465:461
1.465:465
1.466:464
1.466:465
1.466:468
1.470:475
1.470:470
1.470:460
1.472:451
1.473:448
1.474:454
1.474:459
1.475:474
1.475:472
1.476:467
1.476:463
1.476:463
1.477:457
1.477:455
1.477:454
1.478:458
1.479:460
1.479:456
1.479:458
1.480:458
1.480:462
1.481:481
1.481:484
1.481:469
1.482:466
1.482:468
1.482:490
1.483:496
1.483:518
1.483:500
1.484:491
1.486:483
1.487:471
1.489:460
1.489:457
1.490:458
1.491:458
1.491:450
1.491:452
1.492:449
1.492:446
1.493:445
1.493:455
1.493:466
1.494:468
1.494:460
1.495:461
1.495:465
1.495:468
1.496:464
1.496:461
1.496:464
1.497:461
1.497:468
1.497:470
1.499:467
1.499:461
1.499:453
1.500:450
1.500:459
1.500:474
1.500:479
1.503:482
1.503:482
1.506:476
1.507:472
1.508:478
1.508:478
1.509:471
1.509:466
1.509:470
1.510:472
1.510:466
1.510:471
1.511:471
1.511:464
1.512:461
1.512:464
1.512:465
1.513:457
1.513:487
1.513:483
1.514:481
1.514:476
1.514:482
1.515:480
1.515:475
1.516:467
1.516:468
1.516:466
1.518:470
1.520:480
1.522:488
1.523:489
1.523:476
1.523:472
1.525:472
1.525:475
1.525:469
1.525:474
1.525:481
1.525:480
1.526:472
1.526:459
1.526:460
1.526:472
1.526:474
1.527:480
1.527:481
1.527:480
1.527:483
1.527:491
1.528:497
1.528:496
1.528:499
1.528:500
1.529:477
1.529:458
1.529:462
1.529:475
1.529:487
1.530:486
1.530:481
1.530:474
1.530:469
1.531:473
1.531:480
1.531:489
1.531:484
1.532:488
1.532:492
1.532:492
1.532:508
1.532:498
1.533:489
1.533:488
1.533:493
1.536:497
1.536:496
1.536:498
1.539:502
1.540:501
1.541:501
1.541:506
1.542:510
1.542:508
1.542:511
1.542:520
1.542:522
1.542:519
1.543:513
1.543:505
1.543:502
1.543:497
1.543:502
1.544:492
1.544:492
1.544:482
1.545:483
1.545:493
1.545:503
1.545:501
1.545:510
1.546:513
1.546:507
1.546:499
1.546:497
1.547:488
1.547:486
1.547:486
1.547:489
1.548:480
1.548:478
1.548:470
1.548:461
1.548:450
1.549:444
1.549:443
1.549:440
1.549:447
1.549:441
1.551:446
1.552:458
1.555:452
1.559:455
1.560:454
1.560:448
1.560:458
1.560:463
1.560:457
1.560:455
1.560:456
1.561:455
1.561:451
1.561:448
1.561:445
1.562:446
1.562:441
1.562:441
1.562:447
1.563:444
1.563:442
1.563:440
1.563:447
1.563:456
1.564:461
1.564:469
1.564:472
1.564:461
1.565:452
1.565:448
1.565:447
1.565:454
1.565:459
1.566:450
1.566:446
1.566:446
1.566:455
1.566:464
1.569:452
1.570:453
1.570:445
1.571:435
1.572:434
1.572:434
1.573:436
1.573:436
1.574:438
1.574:442
1.574:456
1.575:460
1.575:454
1.575:454
1.575:459
1.576:457
1.576:455
1.576:452
1.576:464
1.576:458
1.577:455
1.577:456
1.577:454
1.577:455
1.581:450
1.581:451
1.581:450
1.581:451
1.582:442
1.582:453
1.582:454
1.582:446
1.582:442
1.583:442
1.583:444
1.583:428
1.583:412
1.584:404
1.585:396
1.586:391
1.586:389
1.587:379
1.589:369
1.590:376
1.590:387
1.590:395
1.591:393
1.591:400
1.591:404
1.591:402
1.591:413
1.592:432
1.592:456
1.592:477
1.592:507
1.592:541
1.593:581
1.600:581
1.600:619
1.600:652
1.606:693
1.607:728
1.607:763
1.608:798
1.608:837
1.608:887
1.608:924
1.609:967
1.609:989
1.609:988
1.609:987
1.609:987
1.610:986
1.610:986
1.610:985
1.610:985
1.611:985
1.611:985
1.611:986
1.612:986
1.613:987
1.613:987
1.613:987
1.614:987
1.614:988
1.614:989
1.614:989
1.632:958
1.633:919
1.633:872
1.633:807
1.633:748
1.635:669
1.635:588
1.637:503
1.640:418
1.642:351
1.642:305
1.643:259
1.643:218
1.643:194
1.644:187
1.644:192
1.644:190
1.644:192
1.645:197
1.645:193
1.646:184
1.646:189
1.646:194
1.647:204
1.647:218
1.647:228
1.648:239
1.648:252
1.648:276
1.648:292
1.661:292
1.662:309
1.662:325
1.663:343
1.663:352
1.663:379
1.664:375
1.664:369
1.666:365
1.666:372
1.666:377
1.667:374
1.668:364
1.669:365
1.669:372
1.670:376
1.670:381
1.674:384
1.675:380
1.676:386
1.676:386
1.676:383
1.677:384
1.677:383
1.678:385
1.678:392
1.679:393
1.679:399
1.679:405
1.680:402
1.691:407
1.691:410
1.692:408
1.692:404
1.692:406
1.694:416
1.694:418
1.695:407
1.695:402
1.695:411
1.696:418
1.696:417
1.696:415
1.697:416
1.698:422
1.698:421
1.698:417
1.698:420
1.699:422
1.699:430
1.699:437
1.699:433
1.700:431
1.701:436
1.702:445
1.702:451
1.704:474
1.705:456
1.706:454
1.707:446
1.718:446
1.718:445
1.718:455
1.719:453
1.722:456
1.723:460
1.723:447
1.724:446
1.724:445
1.724:439
1.725:440
1.725:444
1.725:445
1.726:458
1.727:463
1.727:463
1.727:465
1.728:467
1.728:459
1.728:459
1.728:466
1.728:477
1.728:475
1.730:468
1.731:467
1.731:470
1.731:471
1.732:468
1.732:467
1.733:472
1.747:478
1.751:491
1.752:482
1.752:470
1.753:470
1.753:482
1.753:491
1.754:491
1.754:487
1.754:484
1.755:491
1.755:495
1.756:487
1.756:485
1.756:487
1.756:487
1.756:484
1.756:493
1.757:527
1.757:513
1.759:506
1.759:504
1.760:500
1.760:495
1.760:501
1.761:513
1.761:519
1.762:510
1.762:517
1.763:522
1.780:522
1.780:524
1.781:526
1.781:520
1.781:516
1.782:518
1.782:519
1.783:518
1.783:516
1.784:518
1.784:519
1.784:529
1.785:532
1.785:533
1.785:531
1.785:534
1.785:539
1.786:534
1.786:527
1.788:526
1.788:532
1.788:529
1.788:535
1.789:539
1.789:536
1.789:551
1.789:563
1.789:555
1.789:553
1.792:549
1.809:563
1.809:571
1.809:571
1.810:565
1.810:565
1.810:572
1.813:574
1.813:570
1.814:565
1.814:566
1.814:595
1.814:585
1.814:581
1.815:592
1.815:596
1.815:593
1.818:597
1.818:594
1.818:594
1.818:588
1.819:584
1.819:584
1.819:581
1.819:584
1.819:597
1.821:609
1.821:613
1.821:608
1.821:608
1.822:607
1.837:607
1.837:611
1.838:621
1.838:625
1.838:620
1.842:619
1.842:614
1.842:614
1.842:609
1.843:604
1.843:606
1.843:608
1.843:609
1.843:609
1.844:612
1.846:612
1.846:614
1.846:621
1.846:629
1.847:628
1.847:617
1.847:615
1.847:617
1.848:615
1.849:614
1.850:614
1.850:611
1.851:605
1.851:602
1.852:598
1.866:603
1.866:608
1.870:622
1.870:617
1.870:600
1.870:594
1.871:604
1.871:601
1.871:581
1.871:578
1.871:580
1.872:573
1.875:575
1.875:580
1.875:563
1.875:543
1.875:531
1.875:531
1.875:529
1.876:529
1.876:532
1.878:529
1.879:520
1.879:510
1.879:506
1.879:498
1.879:490
1.879:482
1.880:479
1.880:473
1.894:473
1.899:472
1.899:472
1.899:462
1.899:451
1.899:443
1.900:434
1.900:419
1.901:414
1.901:414
1.901:414
1.903:408
1.903:406
1.903:401
1.903:393
1.904:390
1.904:384
1.904:382
1.904:383
1.904:377
1.907:371
1.907:368
1.907:368
1.907:368
1.908:367
1.908:361
1.908:347
1.908:342
1.909:344
1.909:349
1.927:355
1.927:351
1.928:339
1.928:338
1.928:332
1.928:331
1.929:338
1.929:340
1.931:339
1.932:339
1.932:343
1.932:341
1.932:342
1.932:351
1.933:356
1.933:341
1.933:329
1.936:332
1.936:339
1.936:338
1.936:338
1.937:332
1.937:339
1.937:358
1.937:368
1.937:352
1.938:347
1.939:347
1.939:339
1.939:342
1.956:342
1.956:350
1.957:352
1.957:351
1.957:354
1.957:356
1.957:353
1.960:364
1.961:379
1.961:382
1.961:375
1.961:353
1.961:342
1.962:354
1.962:361
1.962:361
1.965:368
1.965:391
1.965:390
1.965:390
1.966:388
1.966:374
1.966:368
1.966:377
1.967:386
1.967:384
1.968:383
1.968:381
1.969:380
1.969:380
1.985:374
1.986:373
1.986:381
1.988:385
1.989:388
1.989:394
1.989:395
1.989:398
1.989:396
1.990:399
1.990:408
1.990:406
1.990:410
1.993:411
1.993:416
1.993:412
1.993:406
1.994:402
1.994:402
1.994:404
1.994:403
1.994:400
1.995:401
1.997:403
1.997:409
1.997:408
1.997:411
1.997:417
1.998:418
1.999:414
2.013:414
2.013:419
2.013:416
2.018:413
2.018:415
2.018:419
2.019:427
2.019:428
2.019:419
2.019:431
2.019:416
2.020:430
2.022:435
2.022:425
2.022:425
2.022:437
2.023:435
2.023:444
2.023:450
2.023:435
2.024:431
2.024:432
2.026:433
2.026:430
2.026:427
2.026:432
2.027:434
2.027:435
2.027:435
2.027:437
2.046:437
2.046:444
2.046:448
2.047:440
2.047:434
2.047:438
2.048:438
2.048:441
2.048:444
2.050:441
2.051:447
2.051:455
2.051:453
2.051:456
2.052:458
2.052:460
2.052:453
2.052:447
2.054:449
2.054:440
2.054:435
2.054:437
2.055:440
2.055:443
2.055:454
2.055:456
2.056:440
2.056:435
2.058:433
2.058:437
2.075:437
2.075:450
2.075:454
2.075:450
2.076:449
2.076:464
2.076:455
2.076:443
2.079:437
2.079:432
2.079:434
2.079:434
2.079:436
2.080:446
2.080:450
2.080:451
2.080:453
2.083:451
2.083:449
2.083:462
2.084:468
2.084:472
2.084:461
2.084:448
2.084:443
2.084:447
2.084:455
2.087:457
2.087:453
2.088:448
2.103:450
2.103:451
2.104:460
2.104:458
2.104:452
2.108:456
2.108:462
2.108:457
2.108:442
2.108:440
2.108:449
2.109:456
2.109:453
2.109:444
2.111:448
2.112:453
2.112:456
2.112:452
2.113:447
2.113:451
2.114:446
2.114:444
2.114:470
2.115:459
2.115:458
2.117:453
2.118:440
2.119:435
2.119:439
2.121:442
2.132:442
2.132:444
2.133:452
2.134:453
2.136:460
2.136:466
2.137:464
2.137:460
2.138:461
2.138:473
2.138:469
2.138:451
2.139:443
2.140:442
2.140:434
2.140:436
2.140:458
2.140:471
2.140:477
2.141:470
2.141:456
2.141:451
2.141:452
2.144:457
2.144:453
2.145:447
2.145:446
2.145:458
2.146:461
2.146:461
2.160:456
2.165:455
2.165:459
2.165:462
2.167:463
2.167:457
2.167:461
2.167:461
2.168:462
2.168:463
2.169:461
2.169:457
2.169:452
2.169:453
2.169:472
2.169:461
2.170:458
2.170:458
2.171:456
2.171:450
2.173:448
2.173:449
2.174:453
2.174:452
2.175:456
2.175:458
2.175:459
2.176:457
2.176:451
2.177:449
2.193:449
2.194:452
2.194:451
2.195:457
2.195:453
2.195:455
2.196:456
2.196:465
2.196:474
2.197:473
2.198:468
2.198:463
2.198:463
2.199:470
2.199:508
2.199:484
2.200:454
2.200:454
2.200:466
2.202:459
2.202:440
2.203:431
2.203:432
2.203:443
2.203:449
2.203:451
2.204:455
2.204:464
2.205:465
2.206:457
2.222:456
2.222:457
2.222:462
2.222:459
2.223:459
2.223:462
2.226:482
2.226:470
2.226:469
2.227:471
2.227:465
2.227:456
2.227:455
2.227:458
2.228:464
2.228:464
2.230:468
2.230:468
2.230:458
2.231:450
2.231:451
2.231:448
2.231:452
2.231:462
2.232:477
2.234:464
2.234:459
2.234:457
2.235:458
2.235:475
2.250:475
2.251:479
2.251:468
2.251:466
2.251:469
2.255:467
2.255:469
2.255:464
2.256:460
2.256:463
2.256:462
2.257:455
2.257:450
2.257:451
2.258:464
2.259:465
2.259:459
2.259:457
2.260:459
2.260:459
2.261:457
2.261:459
2.261:464
2.262:469
2.263:473
2.263:478
2.263:478
2.264:480
2.264:499
2.264:494
2.279:479
2.279:471
2.283:467
2.283:465
2.284:468
2.284:474
2.284:470
2.284:460
2.284:458
2.285:460
2.285:458
2.285:455
2.287:452
2.287:453
2.289:464
2.289:478
2.289:476
2.289:473
2.289:483
2.289:481
2.289:484
2.292:482
2.292:487
2.292:483
2.292:486
2.293:495
2.293:492
2.293:489
2.293:489
2.293:493
2.308:493
2.312:489
2.312:486
2.312:492
2.312:496
2.312:503
2.313:498
2.313:495
2.313:501
2.313:501
2.314:521
2.316:496
2.316:488
2.316:484
2.316:487
2.317:491
2.317:485
2.317:475
2.317:476
2.317:478
2.321:478
2.321:495
2.321:486
2.321:477
2.322:477
2.322:479
2.322:479
2.322:478
2.323:459
2.323:444
2.341:448
2.341:443
2.341:441
2.341:444
2.341:442
2.341:435
2.342:434
2.345:433
2.345:439
2.345:437
2.346:441
2.346:442
2.346:431
2.346:425
2.347:427
2.347:430
2.347:433
2.350:433
2.350:432
2.350:440
2.351:441
2.351:434
2.352:432
2.352:432
2.352:433
2.352:432
2.353:437
2.353:441
2.354:434
2.355:435
2.370:435
2.370:436
2.370:429
2.370:422
2.371:417
2.371:419
2.371:424
2.374:428
2.374:432
2.374:433
2.374:433
2.375:437
2.375:439
2.375:444
2.375:454
2.376:455
2.378:456
2.378:449
2.378:436
2.378:433
2.378:436
2.379:438
2.379:436
2.379:439
2.379:436
2.379:427
2.382:428
2.382:426
2.382:429
2.383:429
2.398:435
2.398:437
2.398:437
2.402:433
2.403:430
2.403:432
2.403:433
2.403:433
2.403:433
2.403:432
2.403:431
2.403:437
2.403:435
2.407:431
2.407:430
2.407:431
2.407:435
2.407:432
2.407:425
2.407:422
2.408:418
2.408:414
2.411:401
2.411:383
2.411:371
2.411:361
2.411:353
2.412:349
2.412:348
2.412:347
2.427:347
2.427:351
2.431:361
2.431:368
2.431:369
2.431:388
2.432:380
2.432:386
2.433:400
2.433:428
2.433:466
2.434:494
2.435:522
2.435:547
2.435:572
2.435:608
2.436:642
2.436:670
2.436:699
2.437:735
2.437:774
2.437:808
2.439:856
2.439:911
2.439:964
2.439:989
2.440:988
2.440:988
2.440:987
2.440:987
2.460:986
2.460:986
2.460:986
2.460:987
2.460:987
2.461:987
2.461:988
2.461:988
2.461:988
2.464:988
2.464:989
2.464:977
2.465:929
2.465:898
2.465:848
2.467:792
2.467:728
2.467:669
2.467:607
2.469:529
2.469:441
2.469:370
2.470:319
2.470:272
2.470:224
2.471:191
2.471:200
2.471:178
2.472:171
2.472:170
2.488:170
2.488:174
2.488:179
2.489:177
2.489:173
2.489:170
2.489:168
2.489:173
2.492:187
2.492:207
2.493:223
2.493:230
2.494:229
2.494:253
2.494:275
2.494:281
2.494:284
2.496:292
2.496:305
2.497:322
2.497:334
2.497:332
2.498:333
2.498:340
2.498:341
2.498:352
2.498:365
2.500:359
2.501:351
2.501:339
2.516:344
2.516:350
2.517:360
2.517:360
2.518:354
2.521:355
2.521:353
2.521:353
2.522:356
2.522:357
2.522:360
2.522:360
2.523:365
2.523:372
2.525:377
2.525:381
2.525:379
2.526:379
2.526:408
2.526:395
2.527:393
2.527:390
2.528:391
2.528:387
2.529:377
2.529:370
2.530:366
2.530:366
2.530:368
2.531:380
2.546:380
2.546:390
2.546:390
2.546:395
2.550:402
2.550:397
2.550:395
2.550:400
2.551:413
2.551:416
2.551:403
2.552:397
2.552:399
2.554:404
2.554:403
2.555:406
2.555:421
2.555:419
2.556:407
2.556:405
2.557:403
2.557:399
2.557:411
2.558:428
2.558:427
2.558:434
2.558:431
2.559:415
2.559:412
2.559:418
2.574:420
2.579:425
2.579:430
2.579:429
2.579:427
2.579:429
2.579:423
2.579:421
2.580:422
2.580:427
2.583:442
2.583:448
2.583:435
2.583:434
2.583:431
2.584:430
2.584:430
2.584:433
2.584:431
2.584:439
2.587:443
2.587:446
2.587:445
2.588:450
2.588:452
2.588:449
2.588:444
2.588:442
2.588:447
2.590:452
2.607:452
2.607:452
2.608:444
2.608:442
2.608:446
2.608:446
2.608:451
2.609:455
2.609:457
2.611:455
2.611:452
2.612:461
2.612:461
2.612:458
2.613:467
2.613:466
2.614:463
2.614:466
2.614:466
2.615:468
2.616:467
2.616:464
2.616:465
2.616:472
2.616:467
2.617:464
2.617:463
2.617:467
2.619:476
2.619:487
2.637:503
2.637:499
2.638:514
2.638:502
2.639:497
2.639:498
2.640:495
2.640:488
2.641:487
2.641:488
2.641:488
2.642:487
2.642:490
2.642:496
2.643:506
2.643:510
2.644:513
2.644:518
2.645:510
2.645:512
2.646:518
2.646:520
2.646:527
2.647:528
2.647:521
2.648:515
2.649:517
2.649:520
2.649:527
2.649:543
2.664:543
2.665:541
2.665:538
2.666:542
2.666:549
2.668:548
2.668:551
2.669:557
2.669:550
2.669:539
2.669:531
2.669:543
2.669:548
2.670:550
2.670:546
2.672:543
2.673:546
2.673:550
2.673:541
2.673:540
2.674:551
2.674:557
2.674:556
2.674:549
2.676:564
2.677:565
2.677:561
2.678:554
2.678:551
2.678:548
2.693:553
2.693:562
2.697:564
2.697:556
2.697:554
2.698:554
2.698:553
2.698:549
2.698:547
2.699:546
2.699:545
2.701:542
2.701:535
2.701:530
2.702:538
2.702:546
2.702:537
2.702:525
2.703:527
2.703:523
2.703:515
2.705:514
2.705:512
2.705:508
2.706:508
2.706:516
2.706:509
2.707:504
2.707:497
2.707:489
2.721:489
2.726:484
2.726:479
2.726:464
2.726:448
2.727:438
2.727:445
2.727:448
2.727:439
2.727:433
2.728:423
2.730:411
2.730:408
2.730:395
2.730:393
2.731:388
2.731:391
2.731:392
2.731:381
2.731:365
2.734:358
2.734:364
2.734:357
2.735:344
2.735:328
2.735:322
2.735:318
2.735:312
2.736:305
2.736:301
2.754:307
2.754:310
2.755:306
2.755:300
2.755:292
2.755:290
2.756:293
2.759:291
2.759:290
2.759:284
2.759:277
2.759:271
2.760:272
2.760:277
2.760:277
2.760:275
2.761:266
2.763:264
2.763:264
2.763:268
2.763:271
2.764:277
2.764:274
2.764:267
2.764:268
2.764:274
2.767:278
2.767:277
2.767:272
2.767:268
2.783:268
2.783:272
2.783:274
2.783:277
2.784:275
2.784:273
2.787:267
2.788:276
2.788:286
2.789:294
2.789:276
2.789:272
2.790:279
2.790:282
2.790:284
2.791:279
2.792:282
2.792:284
2.792:290
2.792:288
2.792:290
2.792:301
2.792:309
2.794:312
2.794:302
2.795:293
2.796:291
2.796:295
2.796:296
2.796:295
2.811:300
2.811:315
2.812:325
2.816:309
2.816:300
2.816:313
2.816:321
2.816:315
2.816:306
2.816:302
2.816:306
2.816:311
2.817:317
2.820:323
2.820:321
2.820:319
2.820:321
2.821:322
2.821:326
2.821:323
2.821:321
2.822:315
2.824:320
2.824:327
2.824:325
2.824:329
2.824:335
2.825:336
2.825:334
2.825:333
2.840:333
2.841:360
2.845:344
2.845:343
2.845:341
2.845:343
2.846:338
2.846:341
2.846:338
2.846:338
2.846:344
2.847:348
2.849:349
2.849:352
2.849:351
2.850:348
2.851:342
2.851:343
2.851:350
2.851:356
2.851:354
2.853:355
2.853:348
2.854:349
2.854:349
2.854:350
2.854:349
2.854:352
2.855:358
2.855:359
2.873:365
2.873:367
2.874:369
2.874:370
2.874:370
2.874:371
2.874:360
2.875:363
2.875:375
2.877:372
2.877:368
2.878:365
2.878:363
2.878:360
2.878:360
2.878:358
2.879:361
2.879:365
2.882:366
2.882:365
2.883:363
2.883:364
2.883:387
2.883:386
2.884:399
2.884:392
2.884:387
2.884:397
2.885:387
2.886:380
2.904:380
2.904:375
2.904:370
2.905:365
2.905:363
2.905:371
2.905:386
2.906:383
2.906:375
2.906:375
2.906:377
2.907:369
2.907:374
2.907:379
2.907:384
2.908:390
2.908:390
2.910:389
2.910:392
2.910:393
2.910:388
2.911:380
2.911:374
2.911:376
2.911:384
2.911:385
2.912:382
2.914:380
2.914:377
2.914:377
2.931:374
2.931:370
2.931:372
2.931:380
2.932:388
2.935:398
2.935:390
2.936:384
2.936:391
2.936:395
2.936:385
2.936:378
2.937:377
2.937:375
2.939:396
2.939:392
2.939:389
2.939:378
2.940:375
2.940:380
2.940:382
2.940:383
2.940:386
2.940:389
2.943:396
2.943:401
2.943:393
2.943:388
2.944:390
2.944:389
2.959:389
2.959:388
2.960:386
2.960:387
2.963:380
2.964:379
2.964:389
2.964:398
2.964:396
2.964:386
2.965:376
2.965:369
2.966:375
2.968:382
2.968:387
2.968:395
2.968:398
2.969:398
2.969:404
2.969:399
2.969:390
2.969:391
2.969:392
2.972:391
2.972:391
2.972:387
2.972:383
2.972:387
2.973:383
2.973:386
2.992:387
2.992:380
2.992:376
2.993:380
2.993:383
2.993:385
2.994:386
2.994:411
2.995:413
2.995:411
2.996:405
2.996:400
2.996:392
2.996:390
2.997:383
2.997:384
2.998:384
2.998:383
2.999:392
2.999:395
3.000:395
3.000:392
3.001:385
3.001:385
3.001:387
3.001:393
3.002:393
3.002:388
3.002:386
3.004:390
3.021:390
3.021:400
3.021:404
3.021:403
3.021:400
3.022:389
3.022:387
3.022:386
3.022:382
3.025:379
3.025:384
3.025:384
3.025:391
3.026:390
3.026:392
3.026:393
3.026:401
3.026:408
3.027:409
3.029:408
3.029:401
3.029:393
3.029:390
3.029:388
3.030:385
3.030:392
3.030:404
3.030:401
3.033:412
3.033:396
3.049:389
3.050:392
3.050:394
3.050:397
3.050:399
3.051:404
3.054:401
3.054:402
3.054:416
3.055:418
3.055:410
3.055:415
3.056:422
3.056:409
3.056:397
3.058:396
3.058:394
3.058:393
3.059:398
3.059:396
3.059:395
3.059:400
3.060:405
3.060:402
3.061:399
3.062:400
3.062:399
3.062:400
3.063:404
3.063:406
3.078:406
3.079:405
3.079:410
3.080:413
3.080:407
3.082:403
3.082:393
3.083:394
3.083:401
3.083:399
3.084:398
3.084:397
3.085:396
3.085:400
3.085:403
3.086:404
3.087:405
3.087:410
3.087:410
3.088:412
3.088:427
3.088:425
3.089:420
3.089:410
3.090:401
3.090:403
3.090:413
3.091:419
3.091:423
3.091:416
3.107:411
3.107:416
3.111:421
3.111:422
3.111:422
3.112:421
3.112:419
3.113:423
3.113:426
3.113:425
3.114:418
3.114:422
3.115:421
3.115:412
3.115:410
3.116:428
3.116:430
3.116:423
3.116:415
3.116:417
3.116:423
3.119:428
3.119:428
3.120:430
3.120:424
3.120:422
3.121:422
3.121:428
3.121:422
3.121:424
3.135:424
3.139:423
3.139:424
3.140:432
3.140:420
3.140:422
3.140:413
3.141:413
3.141:416
3.141:417
3.143:420
3.144:428
3.144:447
3.144:461
3.145:448
3.145:448
3.146:453
3.146:450
3.146:443
3.147:432
3.147:426
3.149:424
3.149:438
3.149:447
3.150:447
3.150:447
3.150:448
3.150:451
3.150:452
3.150:451
3.168:451
3.168:450
3.168:447
3.169:444
3.169:444
3.169:441
3.170:437
3.172:437
3.172:447
3.173:449
3.173:450
3.173:449
3.174:457
3.174:457
3.174:449
3.175:436
3.175:428
3.176:427
3.176:429
3.177:428
3.177:431
3.178:430
3.179:424
3.179:425
3.179:427
3.179:418
3.180:400
3.181:391
3.181:398
3.182:401
3.197:401
3.197:398
3.197:396
3.197:406
3.198:415
3.199:421
3.201:401
3.201:390
3.202:395
3.202:397
3.202:400
3.202:395
3.202:390
3.203:382
3.203:386
3.203:389
3.205:389
3.206:393
3.206:405
3.206:427
3.206:428
3.206:420
3.207:406
3.207:399
3.207:399
3.209:398
3.209:403
3.209:407
3.209:408
3.209:406
3.225:406
3.225:408
3.225:397
3.230:394
3.230:397
3.230:399
3.230:399
3.230:398
3.231:404
3.231:418
3.232:416
3.232:407
3.232:414
3.233:412
3.234:404
3.234:396
3.234:399
3.234:404
3.235:406
3.235:410
3.235:410
3.235:401
3.238:400
3.238:404
3.239:402
3.239:400
3.239:420
3.239:408
3.240:405
3.240:413
3.254:413
3.254:416
3.258:406
3.259:401
3.259:414
3.259:425
3.259:417
3.259:413
3.260:404
3.260:402
3.260:401
3.260:401
3.265:400
3.265:400
3.266:397
3.266:391
3.266:374
3.266:360
3.266:352
3.267:342
3.267:339
3.267:343
3.267:342
3.268:339
3.268:342
3.268:345
3.268:341
3.268:339
3.269:348
3.269:356
3.287:361
3.287:378
3.287:391
3.288:407
3.288:436
3.288:461
3.289:480
3.289:512
3.289:552
3.291:596
3.292:642
3.292:684
3.292:721
3.292:756
3.292:806
3.292:851
3.293:878
3.293:923
3.295:979
3.295:989
3.296:989
3.296:988
3.296:988
3.296:987
3.297:987
3.297:986
3.297:986
3.299:986
3.303:987
3.305:987
3.316:987
3.317:988
3.318:988
3.318:988
3.318:989
3.319:989
3.322:989
3.322:979
3.322:943
3.322:896
3.322:848
3.323:783
3.323:708
3.323:643
3.323:577
3.324:493
3.324:414
3.324:347
3.324:298
3.324:253
3.324:218
3.324:208
3.325:195
3.325:190
3.325:185
3.326:180
3.326:177
3.328:178
3.328:173
3.328:163
3.345:165
3.345:184
3.346:194
3.346:196
3.349:200
3.349:210
3.349:232
3.350:249
3.350:269
3.352:286
3.354:326
3.355:330
3.355:328
3.355:324
3.355:328
3.356:338
3.356:342
3.356:338
3.357:336
3.357:332
3.357:328
3.358:328
3.358:331
3.359:331
3.359:336
3.360:344
3.360:345
3.360:349
3.360:349
3.360:350
3.373:350
3.373:351
3.374:356
3.374:359
3.377:353
3.377:347
3.377:349
3.377:354
3.378:357
3.378:359
3.378:358
3.378:359
3.379:365
3.382:368
3.382:363
3.382:365
3.383:374
3.383:386
3.384:387
3.386:386
3.387:382
3.388:382
3.389:385
3.390:382
3.390:387
3.390:397
3.391:400
3.391:400
3.392:394
3.393:391
3.406:393
3.406:391
3.407:414
3.409:404
3.409:404
3.409:403
3.409:407
3.410:406
3.410:393
3.410:392
3.410:393
3.411:394
3.411:401
3.411:412
3.411:423
3.411:426
3.412:432
3.412:440
3.412:432
3.413:418
3.414:414
3.415:420
3.416:424
3.416:421
3.417:421
3.421:425
3.421:432
3.422:444
3.423:438
3.423:433
3.435:433
3.437:438
3.438:430
3.440:430
3.440:432
3.440:431
3.441:431
3.441:435
3.442:445
3.442:446
3.442:445
3.443:444
3.443:452
3.443:455
3.444:447
3.445:443
3.445:453
3.446:457
3.446:451
3.446:450
3.446:456
3.446:469
3.447:479
3.447:484
3.450:500
3.452:483
3.453:466
3.454:469
3.455:473
3.455:470
3.463:469
3.463:463
3.463:462
3.463:464
3.463:467
3.470:469
3.471:475
3.472:479
3.472:482
3.472:478
3.472:474
3.473:478
3.473:478
3.473:482
3.474:484
3.474:478
3.476:485
3.476:494
3.476:498
3.476:497
3.476:499
3.476:495
3.476:496
3.476:502
3.477:501
3.477:502
3.477:510
3.477:516
3.477:521
3.477:516
3.492:516
3.492:513
3.493:526
3.493:529
3.493:526
3.496:521
3.496:511
3.496:515
3.496:523
3.497:528
3.497:531
3.497:535
3.498:531
3.499:535
3.504:537
3.504:531
3.505:540
3.505:541
3.506:542
3.506:545
3.507:544
3.507:542
3.508:544
3.508:559
3.509:557
3.509:554
3.510:559
3.511:558
3.511:565
3.512:572
3.521:563
3.522:560
3.524:565
3.525:573
3.526:568
3.527:572
3.527:570
3.527:571
3.527:575
3.527:585
3.528:581
3.528:578
3.529:577
3.529:577
3.529:588
3.529:596
3.529:603
3.530:596
3.530:592
3.530:594
3.530:593
3.534:587
3.536:583
3.537:582
3.539:582
3.539:588
3.540:592
3.540:595
3.541:588
3.543:580
3.554:580
3.555:581
3.555:578
3.556:572
3.556:570
3.556:586
3.556:592
3.557:580
3.557:579
3.559:583
3.561:571
3.562:560
3.562:559
3.562:568
3.563:567
3.563:561
3.563:559
3.564:556
3.564:548
3.568:542
3.569:537
3.570:527
3.570:523
3.570:518
3.571:518
3.571:526
3.572:522
3.573:516
3.574:508
3.575:496
3.585:497
3.587:493
3.587:483
3.588:477
3.590:477
3.590:467
3.591:462
3.592:450
3.593:437
3.593:435
3.593:437
3.593:433
3.594:423
3.594:411
3.595:402
3.595:401
3.595:399
3.596:390
3.596:390
3.596:389
3.601:384
3.603:376
3.604:362
3.604:357
3.605:365
3.606:366
3.606:369
3.607:363
3.607:345
3.609:339
3.610:339
3.610:352
3.610:334
3.611:329
3.611:330
3.611:342
3.614:346
3.615:343
3.615:339
3.616:331
3.619:329
3.621:330
3.621:326
3.621:325
3.622:323
3.622:327
3.622:323
3.623:327
3.623:328
3.623:326
3.623:327
3.624:325
3.625:328
3.625:335
3.625:334
3.625:347
3.625:357
3.626:346
3.626:327
3.627:323
3.639:330
3.640:332
3.640:334
3.643:339
3.643:335
3.644:327
3.644:321
3.644:320
3.644:329
3.645:337
3.645:336
3.645:329
3.645:333
3.648:346
3.649:349
3.652:352
3.653:358
3.654:359
3.654:362
3.654:368
3.655:372
3.655:367
3.655:387
3.656:375
3.656:370
3.656:369
3.657:369
3.658:372
3.659:367
3.660:361
3.667:361
3.668:361
3.672:359
3.672:357
3.672:359
3.673:363
3.674:368
3.674:373
3.674:373
3.674:374
3.674:380
3.674:380
3.676:386
3.676:386
3.676:376
3.676:373
3.677:375
3.677:378
3.677:381
3.677:384
3.678:394
3.679:393
3.680:384
3.680:387
3.681:391
3.682:392
3.683:400
3.685:409
3.687:414
3.688:413
3.702:410
3.702:410
3.703:411
3.704:414
3.704:413
3.705:413
3.705:417
3.705:411
3.705:410
3.706:409
3.706:407
3.706:404
3.707:400
3.707:398
3.707:414
3.707:404
3.707:408
3.708:421
3.708:417
3.709:416
3.709:418
3.709:423
3.709:424
3.710:414
3.710:414
3.710:412
3.711:406
3.711:406
3.713:413
3.715:424
3.729:424
3.729:434
3.729:427
3.730:425
3.730:425
3.731:423
3.731:421
3.731:427
3.736:429
3.737:421
3.738:421
3.738:430
3.738:447
3.739:453
3.739:439
3.739:432
3.739:428
3.740:437
3.740:439
3.740:441
3.740:430
3.741:417
3.742:417
3.743:420
3.743:426
3.744:429
3.744:434
3.744:436
3.744:440
3.744:441
3.758:441
3.758:443
3.758:444
3.759:444
3.762:445
3.762:436
3.762:460
3.762:450
3.762:443
3.763:440
3.763:444
3.764:444
3.764:442
3.765:444
3.767:450
3.770:451
3.771:436
3.771:432
3.771:434
3.772:434
3.772:434
3.773:439
3.774:442
3.775:444
3.775:447
3.776:453
3.776:449
3.776:449
3.776:451
3.776:449
3.787:449
3.788:443
3.788:444
3.790:448
3.791:454
3.791:453
3.791:444
3.792:444
3.792:443
3.792:447
3.793:456
3.793:459
3.793:457
3.794:455
3.795:454
3.795:454
3.796:450
3.796:454
3.796:456
3.798:456
3.799:451
3.803:449
3.804:450
3.804:453
3.805:444
3.805:446
3.806:445
3.806:445
3.807:473
3.807:464
3.821:459
3.821:455
3.822:456
3.822:456
3.823:456
3.824:467
3.824:466
3.825:458
3.825:456
3.826:454
3.826:448
3.826:444
3.826:445
3.826:446
3.826:450
3.827:452
3.827:458
3.827:459
3.828:466
3.828:462
3.828:458
3.828:452
3.828:452
3.828:458
3.829:462
3.829:458
3.829:455
3.829:450
3.829:452
3.831:457
3.848:457
3.849:462
3.851:463
3.852:458
3.853:458
3.854:454
3.854:454
3.854:457
3.854:457
3.855:465
3.855:463
3.856:459
3.856:461
3.856:467
3.857:468
3.858:463
3.858:462
3.859:467
3.859:463
3.859:466
3.859:490
3.859:479
3.860:465
3.860:457
3.860:457
3.860:451
3.861:451
3.861:459
3.861:465
3.861:467
3.876:470
3.877:469
3.877:469
3.877:470
3.877:464
3.877:463
3.881:456
3.881:451
3.882:455
3.882:465
3.884:470
3.885:470
3.886:462
3.887:459
3.887:463
3.887:464
3.888:468
3.888:466
3.888:464
3.889:467
3.889:464
3.891:458
3.891:456
3.892:456
3.892:455
3.892:456
3.892:459
3.892:462
3.893:462
3.893:461
3.905:461
3.905:460
3.906:463
3.907:466
3.908:478
3.909:482
3.909:476
3.910:476
3.910:481
3.910:479
3.910:482
3.910:489
3.910:496
3.910:483
3.913:478
3.915:474
3.917:473
3.921:472
3.922:469
3.923:461
3.923:455
3.924:460
3.925:463
3.925:466
3.927:466
3.928:462
3.928:460
3.929:459
3.929:462
3.932:466
3.936:474
3.940:477
3.941:472
3.943:471
3.945:477
3.945:478
3.946:472
3.949:470
3.954:474
3.955:474
3.956:470
3.957:470
3.957:473
3.958:475
3.959:482
3.959:481
3.961:473
3.963:467
3.970:466
3.972:469
3.972:483
3.973:483
3.975:475
3.975:473
3.975:478
3.977:487
3.978:488
3.979:482
3.979:475
3.979:475
3.979:475
3.980:483
3.982:477
3.983:475
3.983:482
3.983:486
3.984:485
3.984:488
3.984:486
3.985:478
3.985:474
3.985:480
3.986:482
3.987:481
3.988:475
3.989:478
3.989:482
3.990:482
3.991:476
3.991:474
3.991:487
3.992:486
3.992:470
3.992:453
3.992:453
3.993:463
3.993:467
3.993:470
3.993:480
3.993:488
3.995:487
3.995:490
3.996:496
3.996:498
3.996:500
3.996:499
3.997:497
4.001:492
4.001:486
4.001:485
4.002:490
4.002:490
4.003:484
4.003:481
4.003:476
4.004:477
4.004:483
4.004:489
4.006:487
4.006:486
4.006:484
4.006:489
4.010:492
4.010:492
4.010:484
4.010:488
4.010:506
4.010:511
4.011:514
4.011:516
4.024:516
4.025:517
4.025:512
4.025:526
4.025:534
4.026:530
4.028:520
4.028:515
4.028:516
4.028:519
4.029:542
4.029:520
4.029:507
4.029:496
4.029:483
4.030:477
4.034:474
4.035:470
4.036:471
4.037:481
4.037:489
4.038:489
4.039:485
4.041:483
4.041:479
4.042:480
4.042:493
4.042:505
4.042:512
4.042:516
4.053:514
4.053:516
4.054:518
4.057:517
4.057:526
4.058:530
4.058:541
4.058:540
4.059:516
4.059:500
4.059:491
4.059:493
4.060:500
4.060:508
4.061:513
4.061:518
4.061:530
4.061:538
4.061:553
4.061:542
4.061:524
4.062:516
4.066:522
4.068:525
4.069:524
4.070:523
4.070:523
4.070:526
4.070:518
4.071:504
4.081:504
4.083:493
4.086:483
4.088:483
4.089:490
4.089:499
4.090:506
4.090:513
4.091:525
4.091:522
4.091:510
4.092:502
4.092:495
4.092:495
4.093:476
4.093:461
4.094:440
4.094:433
4.094:446
4.095:462
4.095:473
4.095:474
4.096:468
4.096:473
4.097:477
4.098:483
4.099:486
4.100:489
4.100:482
4.101:475
4.114:470
4.115:471
4.116:481
4.118:489
4.118:479
4.120:475
4.120:485
4.122:516
4.122:529
4.122:522
4.122:533
4.122:504
4.122:496
4.123:480
4.123:468
4.123:468
4.124:465
4.124:459
4.125:444
4.125:431
4.125:433
4.126:432
4.126:449
4.126:479
4.127:494
4.127:497
4.128:484
4.128:470
4.128:448
4.128:445
4.143:445
4.143:465
4.143:486
4.144:498
4.144:503
4.144:496
4.145:476
4.146:446
4.148:435
4.149:459
4.151:493
4.153:517
4.153:538
4.155:550
4.156:557
4.156:565
4.157:552
4.157:537
4.157:532
4.157:522
4.158:496
4.159:471
4.159:457
4.159:434
4.160:410
4.160:418
4.160:431
4.160:434
4.160:436
4.161:444
4.172:457
4.172:452
4.173:476
4.173:464
4.176:482
4.176:508
4.176:507
4.177:494
4.177:488
4.177:488
4.178:467
4.178:438
4.178:441
4.178:438
4.180:456
4.181:492
4.181:522
4.181:553
4.182:577
4.186:627
4.186:704
4.188:751
4.188:786
4.189:804
4.189:820
4.189:833
4.189:853
4.190:890
4.190:940
4.190:989
4.201:989
4.204:988
4.204:987
4.206:986
4.206:986
4.206:985
4.206:984
4.206:985
4.207:985
4.208:985
4.208:986
4.208:987
4.208:987
4.209:987
4.209:987
4.209:988
4.210:989
4.210:978
4.210:943
4.211:919
4.211:883
4.211:801
4.212:702
4.212:593
4.213:533
4.214:477
4.214:448
4.215:392
4.216:328
4.219:294
4.233:259
4.234:231
4.234:217
4.234:261
4.235:308
4.236:298
4.237:253
4.237:186
4.238:140
4.239:134
4.239:150
4.239:176
4.239:184
4.239:193
4.240:240
4.240:287
4.240:307
4.240:292
4.241:260
4.241:221
4.241:222
4.241:237
4.242:290
4.242:332
4.242:340
4.242:380
4.242:403
4.243:407
4.243:377
4.245:352
4.262:352
4.262:337
4.263:373
4.265:396
4.267:386
4.270:369
4.271:372
4.273:381
4.274:383
4.274:389
4.274:394
4.275:406
4.275:418
4.276:421
4.276:399
4.276:385
4.277:400
4.277:385
4.278:386
4.279:406
4.279:418
4.282:420
4.285:405
4.286:406
4.286:422
4.289:439
4.290:397
4.290:374
4.291:356
4.292:342
4.292:368
4.292:379
4.293:376
4.293:351
4.294:362
4.294:401
4.295:448
4.295:469
4.295:486
4.296:510
4.296:520
4.303:488
4.305:435
4.307:431
4.308:431
4.308:431
4.308:428
4.309:403
4.309:351
4.309:306
4.309:302
4.310:320
4.310:351
4.310:351
4.310:345
4.311:376
4.311:430
4.311:477
4.311:485
4.312:462
4.319:462
4.320:413
4.320:382
4.320:389
4.321:417
4.323:444
4.323:505
4.323:541
4.323:565
4.324:531
4.324:453
4.324:400
4.324:377
4.325:366
4.327:409
4.327:451
4.327:495
4.327:540
4.328:566
4.328:586
4.328:590
4.328:557
4.329:531
4.329:498
4.331:434
4.331:418
4.332:415
4.333:413
4.335:396
4.335:405
4.348:438
4.351:474
4.352:491
4.352:482
4.352:489
4.353:519
4.353:535
4.353:545
4.353:558
4.354:578
4.354:590
4.356:584
4.356:536
4.356:481
4.356:443
4.357:428
4.357:418
4.357:425
4.357:442
4.358:479
4.358:504
4.359:507
4.360:498
4.360:502
4.360:531
4.360:531
4.361:520
4.361:508
4.361:512
4.361:504
4.376:504
4.380:440
4.380:364
4.381:363
4.381:386
4.381:416
4.381:431
4.382:426
4.382:428
4.382:480
4.384:507
4.384:516
4.385:546
4.385:562
4.385:575
4.385:575
4.386:540
4.386:527
4.386:513
4.386:482
4.388:475
4.388:503
4.389:578
4.389:601
4.389:587
4.389:594
4.390:627
4.390:657
4.390:664
4.392:657
4.409:644
4.409:654
4.409:664
4.409:653
4.410:615
4.410:601
4.410:592
4.413:603
4.414:626
4.414:620
4.414:570
4.414:527
4.415:504
4.415:487
4.415:495
4.416:504
4.417:533
4.417:594
4.417:646
4.418:663
4.418:688
4.418:714
4.418:750
4.419:738
4.419:686
4.419:672
4.421:687
4.421:690
4.421:687
4.422:658
4.437:658
4.438:639
4.438:646
4.438:668
4.439:711
4.439:720
4.442:696
4.442:621
4.442:537
4.442:473
4.443:420
4.443:391
4.443:398
4.443:402
4.444:428
4.444:510
4.446:604
4.447:629
4.447:613
4.448:619
4.448:637
4.448:619
4.449:627
4.449:628
4.449:618
4.449:615
4.450:601
4.450:569
4.450:565
4.451:591
4.465:609
4.466:609
4.466:607
4.471:638
4.471:666
4.471:666
4.471:663
4.471:669
4.472:647
4.472:639
4.472:656
4.472:661
4.475:650
4.475:623
4.475:585
4.475:519
4.475:460
4.476:399
4.476:372
4.476:402
4.476:452
4.477:441
4.479:391
4.479:395
4.479:434
4.480:448
4.480:395
4.480:328
4.481:351
4.481:372
4.494:372
4.495:345
4.499:291
4.500:287
4.500:299
4.500:312
4.500:339
4.500:364
4.501:399
4.501:422
4.501:437
4.503:457
4.503:467
4.504:483
4.505:464
4.505:418
4.506:383
4.507:371
4.507:383
4.508:403
4.508:390
4.509:366
4.509:361
4.510:340
4.511:326
4.511:344
4.513:362
4.513:379
4.514:368
4.515:352
4.527:343
4.529:335
4.529:299
4.530:260
4.531:229
4.531:213
4.531:240
4.532:244
4.532:231
4.532:244
4.532:265
4.533:287
4.533:302
4.534:302
4.534:296
4.534:315
4.535:329
4.535:329
4.536:333
4.536:344
4.537:351
4.537:379
4.537:417
4.538:422
4.538:417
4.538:422
4.539:431
4.539:438
4.540:418
4.540:392
4.556:392
4.557:362
4.557:366
4.557:406
4.558:444
4.559:459
4.559:422
4.560:348
4.561:324
4.561:319
4.561:341
4.562:371
4.562:379
4.563:391
4.563:412
4.564:442
4.564:438
4.565:423
4.565:411
4.565:400
4.565:415
4.566:430
4.566:430
4.566:418
4.566:399
4.566:377
4.568:366
4.569:336
4.569:302
4.569:289
4.585:321
4.585:350
4.586:363
4.586:352
4.589:352
4.589:369
4.590:365
4.590:363
4.590:370
4.591:384
4.591:396
4.591:415
4.592:435
4.592:469
4.593:506
4.593:529
4.594:522
4.594:494
4.595:482
4.595:453
4.595:442
4.596:422
4.596:393
4.597:380
4.597:396
4.597:400
4.597:378
4.597:348
4.598:342
4.598:332
4.613:332
4.613:343
4.613:349
4.618:347
4.618:332
4.618:327
4.618:331
4.618:359
4.619:417
4.619:461
4.619:482
4.619:485
4.619:487
4.622:504
4.622:517
4.622:549
4.622:555
4.623:552
4.623:544
4.623:518
4.624:489
4.624:431
4.625:392
4.626:383
4.626:379
4.627:394
4.627:424
4.627:474
4.628:503
4.628:517
4.646:531
4.646:538
4.646:522
4.646:499
4.646:470
4.646:439
4.646:437
4.648:465
4.648:503
4.648:542
4.650:540
4.650:507
4.651:445
4.651:408
4.651:397
4.651:411
4.651:446
4.652:473
4.652:483
4.655:473
4.655:455
4.655:448
4.655:425
4.656:403
4.656:396
4.656:441
4.656:502
4.656:538
4.657:542
4.658:533
4.675:533
4.675:543
4.675:566
4.675:564
4.675:536
4.676:484
4.676:437
4.676:409
4.676:377
4.679:367
4.679:341
4.679:333
4.679:389
4.680:437
4.680:433
4.680:440
4.680:447
4.681:446
4.683:463
4.683:464
4.684:425
4.684:379
4.684:382
4.684:384
4.684:368
4.685:381
4.685:394
4.685:415
4.687:454
4.687:505
4.703:530
4.703:522
4.703:517
4.704:510
4.704:519
4.707:521
4.708:511
4.709:497
4.709:495
4.709:519
4.709:541
4.710:560
4.710:551
4.710:541
4.711:524
4.711:485
4.711:442
4.713:457
4.713:513
4.713:548
4.713:568
4.713:577
4.714:555
4.714:511
4.714:470
4.715:439
4.716:439
4.716:433
4.716:421
4.716:416
4.732:416
4.732:422
4.733:445
4.733:495
4.733:554
4.736:561
4.736:545
4.737:526
4.737:503
4.738:489
4.739:477
4.739:463
4.739:473
4.739:480
4.741:481
4.741:439
4.741:403
4.742:364
4.742:318
4.743:285
4.743:279
4.743:310
4.744:348
4.744:404
4.745:488
4.745:524
4.746:542
4.746:566
4.747:561
4.747:521
4.761:495
4.765:508
4.765:512
4.766:530
4.767:550
4.767:535
4.767:535
4.767:536
4.768:525
4.768:527
4.768:540
4.769:540
4.769:501
4.770:492
4.770:517
4.771:552
4.771:545
4.771:549
4.772:557
4.772:538
4.773:536
4.773:532
4.774:537
4.774:525
4.774:518
4.775:546
4.775:549
4.775:515
4.776:506
4.776:477
4.794:477
4.794:471
4.794:524
4.795:540
4.795:528
4.796:540
4.797:549
4.797:537
4.797:534
4.797:512
4.798:461
4.798:372
4.798:333
4.799:376
4.799:455
4.799:510
4.799:558
4.799:601
4.800:600
4.800:551
4.802:497
4.802:495
4.802:529
4.802:529
4.802:498
4.802:461
4.803:470
4.803:502
4.803:502
4.806:472
4.822:432
4.822:391
4.823:384
4.823:337
4.823:310
4.823:350
4.823:414
4.827:460
4.827:497
4.827:546
4.827:577
4.828:594
4.828:592
4.829:605
4.830:591
4.830:549
4.831:528
4.831:563
4.831:598
4.832:616
4.832:589
4.832:561
4.832:545
4.833:528
4.833:553
4.833:595
4.835:606
4.835:587
4.835:587
4.836:567
4.851:567
4.851:499
4.851:381
4.851:287
4.851:264
4.852:299
4.855:363
4.855:433
4.855:473
4.855:483
4.856:505
4.856:498
4.856:491
4.856:486
4.857:501
4.859:497
4.859:514
4.859:562
4.859:607
4.860:614
4.860:582
4.860:532
4.860:479
4.861:449
4.861:457
4.863:488
4.863:500
4.863:522
4.864:537
4.864:534
4.880:518
4.880:494
4.880:499
4.884:501
4.884:491
4.884:486
4.884:482
4.884:481
4.884:493
4.884:516
4.885:527
4.885:494
4.888:495
4.888:518
4.889:513
4.889:480
4.889:451
4.890:424
4.890:440
4.890:434
4.890:419
4.891:423
4.892:474
4.892:519
4.892:559
4.892:554
4.893:547
4.893:557
4.893:620
4.893:649
4.908:649
4.908:632
4.913:579
4.913:574
4.914:583
4.914:563
4.914:505
4.914:465
4.914:450
4.915:474
4.915:492
4.917:476
4.917:449
4.917:463
4.917:488
4.917:517
4.918:545
4.919:520
4.919:502
4.919:507
4.919:521
4.921:515
4.921:509
4.921:508
4.921:502
4.922:504
4.922:492
4.922:509
4.922:562
4.923:597
4.941:627
4.941:651
4.941:654
4.941:642
4.941:612
4.943:603
4.943:559
4.943:543
4.946:523
4.946:490
4.946:470
4.947:473
4.947:454
4.947:403
4.947:383
4.947:394
4.949:428
4.949:476
4.949:519
4.949:546
4.949:561
4.949:536
4.949:503
4.951:555
4.951:566
4.951:542
4.951:500
4.953:453
4.953:433
4.953:425
4.970:425
4.970:374
4.970:354
4.970:349
4.970:373
4.970:423
4.971:460
4.974:466
4.975:478
4.975:477
4.975:484
4.975:468
4.975:441
4.976:449
4.976:451
4.976:460
4.976:483
4.978:537
4.979:559
4.979:573
4.980:592
4.980:612
4.980:600
4.980:549
4.980:551
4.981:550
4.982:564
4.982:548
4.982:505
4.982:492
4.998:480
4.998:486
4.998:503
4.998:499
5.002:507
5.002:500
5.003:454
5.003:406
5.004:416
5.004:431
5.004:407
5.005:376
5.006:354
5.006:371
5.006:433
5.007:511
5.007:563
5.008:527
5.008:475
5.008:454
5.008:420
5.009:423
5.009:447
5.010:490
5.011:526
5.011:510
5.012:488
5.012:462
5.012:471
5.013:499
5.027:499
5.027:498
5.027:513
5.031:512
5.032:498
5.032:451
5.032:408
5.033:354
5.033:340
5.033:364
5.034:385
5.034:386
5.035:431
5.035:474
5.036:501
5.036:558
5.037:602
5.037:569
5.037:530
5.038:484
5.038:433
5.038:382
5.039:363
5.039:349
5.040:333
5.040:322
5.041:344
5.041:368
5.041:373
5.042:372
5.060:338
5.060:332
5.060:348
5.060:377
5.061:421
5.061:425
5.062:455
5.062:509
5.063:590
5.064:688
5.064:750
5.064:764
5.065:783
5.065:787
5.066:799
5.066:832
5.066:908
5.067:989
5.067:988
5.068:987
5.068:987
5.068:987
5.069:986
5.069:986
5.069:986
5.070:985
5.070:985
5.070:984
5.071:985
5.072:985
5.088:985
5.088:985
5.089:985
5.089:985
5.090:987
5.090:989
5.090:984
5.091:947
5.091:902
5.092:832
5.093:750
5.093:703
5.094:664
5.094:614
5.094:533
5.095:459
5.095:389
5.096:335
5.096:283
5.097:233
5.097:217
5.098:244
5.098:263
5.098:275
5.098:270
5.098:253
5.098:208
5.099:156
5.100:126
5.100:128
5.117:149
5.117:170
5.117:187
5.117:197
5.117:195
5.121:206
5.122:228
5.122:258
5.123:285
5.123:291
5.123:293
5.124:289
5.124:283
5.125:304
5.125:340
5.126:365
5.126:364
5.126:320
5.127:281
5.127:269
5.127:274
5.127:281
5.128:281
5.128:275
5.129:276
5.129:278
5.130:302
5.130:383
5.131:433
5.131:464
5.146:464
5.146:489
5.146:469
5.147:482
5.150:506
5.150:486
5.150:414
5.151:348
5.151:323
5.151:309
5.151:304
5.151:307
5.152:317
5.152:332
5.154:337
5.154:353
5.155:373
5.155:394
5.155:419
5.155:430
5.155:417
5.156:401
5.156:397
5.156:403
5.158:442
5.158:474
5.158:463
5.159:440
5.159:429
5.159:448
5.174:476
5.179:478
5.179:464
5.180:428
5.180:388
5.181:342
5.181:300
5.181:301
5.182:311
5.182:309
5.182:310
5.183:316
5.183:336
5.183:380
5.184:429
5.184:461
5.184:440
5.184:439
5.185:460
5.185:463
5.187:453
5.187:458
5.187:457
5.187:439
5.188:452
5.189:471
5.189:470
5.190:467
5.190:480
5.190:484
5.207:484
5.207:485
5.208:488
5.209:478
5.210:470
5.210:470
5.210:461
5.210:445
5.211:429
5.211:410
5.212:411
5.213:443
5.213:470
5.214:482
5.214:497
5.214:491
5.215:457
5.215:461
5.216:483
5.216:514
5.217:510
5.217:485
5.217:480
5.218:486
5.218:471
5.218:436
5.220:398
5.220:374
5.221:370
5.221:366
5.235:369
5.236:386
5.236:409
5.236:421
5.236:426
5.237:456
5.237:489
5.239:506
5.240:506
5.240:496
5.240:506
5.240:518
5.240:502
5.241:506
5.241:531
5.241:519
5.244:496
5.244:477
5.245:440
5.246:426
5.246:430
5.246:456
5.246:487
5.247:502
5.247:519
5.247:526
5.247:518
5.248:509
5.249:514
5.249:548
5.264:548
5.264:542
5.264:529
5.265:527
5.265:510
5.265:498
5.269:485
5.269:485
5.269:490
5.269:512
5.269:532
5.270:548
5.270:550
5.270:541
5.270:524
5.273:519
5.273:531
5.273:555
5.273:554
5.274:556
5.274:554
5.274:554
5.274:583
5.274:594
5.275:567
5.277:548
5.277:538
5.277:521
5.277:502
5.279:485
5.293:486
5.293:502
5.294:520
5.298:531
5.298:536
5.298:542
5.298:584
5.299:600
5.299:625
5.299:657
5.299:682
5.300:682
5.302:692
5.302:678
5.303:650
5.303:639
5.303:629
5.303:613
5.303:583
5.304:550
5.304:549
5.304:572
5.306:598
5.306:605
5.306:579
5.306:562
5.306:582
5.307:610
5.307:610
5.307:620
5.321:620
5.322:630
5.326:625
5.326:624
5.326:618
5.326:608
5.327:606
5.327:588
5.327:530
5.327:494
5.328:488
5.331:496
5.331:518
5.331:555
5.331:585
5.331:590
5.331:594
5.331:574
5.331:546
5.331:533
5.331:546
5.335:562
5.335:569
5.335:580
5.335:584
5.336:558
5.336:522
5.336:495
5.336:489
5.336:510
5.354:498
5.354:473
5.355:451
5.355:440
5.355:426
5.355:413
5.356:417
5.356:426
5.359:409
5.359:385
5.359:386
5.359:394
5.359:393
5.360:388
5.360:376
5.360:365
5.360:354
5.360:348
5.363:337
5.363:332
5.364:340
5.364:360
5.364:387
5.364:414
5.365:411
5.365:380
5.365:355
5.366:348
5.366:348
5.368:340
5.383:340
5.383:342
5.383:337
5.384:341
5.384:349
5.384:337
5.384:307
5.388:285
5.388:300
5.388:317
5.388:330
5.388:349
5.388:386
5.389:388
5.389:364
5.389:322
5.389:289
5.391:265
5.391:250
5.392:256
5.392:273
5.392:257
5.392:249
5.393:239
5.393:232
5.393:256
5.395:287
5.395:319
5.395:352
5.396:362
5.412:350
5.412:330
5.412:319
5.412:323
5.416:310
5.416:310
5.416:326
5.417:339
5.417:334
5.417:326
5.417:348
5.417:355
5.418:353
5.421:357
5.421:372
5.421:401
5.421:423
5.422:427
5.422:409
5.422:373
5.422:328
5.422:280
5.423:245
5.424:267
5.424:308
5.424:339
5.424:350
5.426:328
5.426:297
5.426:299
5.440:299
5.440:318
5.440:323
5.445:316
5.445:312
5.446:307
5.446:305
5.446:303
5.446:305
5.447:308
5.447:318
5.447:323
5.448:318
5.449:336
5.449:362
5.449:398
5.449:407
5.449:399
5.449:387
5.450:375
5.450:367
5.450:355
5.453:343
5.453:343
5.453:362
5.453:382
5.454:385
5.454:392
5.454:418
5.454:431
5.474:423
5.474:394
5.474:382
5.475:392
5.475:395
5.476:385
5.476:387
5.476:386
5.477:375
5.477:367
5.478:380
5.478:400
5.478:403
5.479:395
5.480:400
5.480:407
5.480:404
5.480:410
5.480:412
5.481:414
5.481:428
5.482:434
5.482:435
5.483:426
5.483:422
5.483:418
5.484:408
5.484:388
5.485:375
5.485:380
5.502:380
5.502:386
5.502:399
5.503:403
5.503:402
5.503:399
5.504:427
5.504:425
5.506:424
5.506:421
5.506:413
5.507:412
5.507:404
5.507:378
5.507:361
5.507:363
5.508:375
5.508:392
5.510:398
5.510:396
5.510:397
5.511:390
5.511:396
5.512:403
5.512:411
5.512:447
5.513:475
5.513:467
5.514:445
5.514:409
5.531:405
5.531:420
5.531:431
5.532:450
5.532:457
5.535:448
5.535:436
5.535:432
5.536:438
5.536:454
5.536:485
5.537:501
5.537:471
5.538:436
5.538:400
5.539:370
5.539:374
5.539:372
5.539:391
5.539:417
5.539:420
5.540:422
5.540:430
5.540:434
5.542:443
5.543:448
5.543:457
5.544:436
5.545:413
5.545:395
5.559:395
5.560:395
5.560:424
5.560:436
5.564:446
5.564:434
5.564:406
5.565:382
5.565:372
5.565:374
5.566:376
5.566:393
5.566:415
5.567:410
5.567:402
5.568:400
5.568:407
5.568:413
5.568:436
5.568:455
5.569:453
5.569:451
5.569:448
5.571:431
5.572:418
5.572:415
5.572:411
5.573:422
5.573:439
5.574:435
5.588:437
5.591:432
5.592:425
5.592:423
5.593:408
5.593:401
5.595:412
5.595:439
5.595:464
5.595:471
5.595:475
5.596:477
5.596:479
5.596:469
5.596:464
5.596:464
5.598:445
5.598:443
5.598:454
5.598:437
5.600:433
5.600:430
5.600:430
5.601:412
5.601:412
5.601:406
5.601:400
5.602:419
5.602:432
5.602:438
5.621:438
5.621:443
5.621:437
5.622:426
5.622:416
5.622:421
5.622:441
5.622:459
5.623:466
5.623:473
5.625:470
5.625:464
5.625:465
5.626:457
5.626:445
5.626:438
5.626:434
5.627:422
5.627:412
5.629:398
5.629:397
5.629:396
5.630:408
5.630:426
5.630:438
5.630:456
5.630:469
5.631:469
5.631:453
5.633:439
5.649:429
5.650:422
5.650:428
5.650:424
5.650:430
5.651:443
5.651:448
5.654:455
5.654:466
5.654:445
5.654:434
5.654:451
5.655:465
5.655:458
5.655:426
5.655:381
5.658:353
5.658:308
5.659:253
5.659:248
5.660:293
5.660:340
5.662:407
5.662:470
5.662:515
5.663:506
5.663:475
5.663:464
5.664:453
5.664:446
5.678:446
5.678:453
5.678:465
5.679:468
5.679:463
5.679:449
5.682:418
5.682:409
5.682:425
5.683:454
5.683:467
5.683:459
5.683:461
5.683:482
5.684:494
5.686:506
5.687:513
5.687:515
5.688:510
5.688:497
5.689:493
5.689:472
5.689:445
5.690:451
5.690:443
5.691:445
5.691:455
5.691:478
5.692:492
5.692:473
5.707:453
5.707:440
5.711:444
5.711:457
5.712:455
5.712:462
5.712:464
5.712:462
5.712:474
5.712:500
5.712:491
5.713:436
5.715:416
5.715:415
5.715:422
5.715:426
5.716:437
5.716:435
5.716:425
5.716:408
5.716:396
5.717:387
5.719:374
5.719:374
5.719:385
5.719:407
5.719:436
5.719:457
5.720:461
5.720:455
5.735:455
5.736:462
5.739:464
5.739:449
5.740:446
5.740:449
5.740:445
5.740:445
5.740:452
5.741:461
5.741:461
5.744:442
5.745:428
5.746:443
5.746:465
5.746:480
5.746:492
5.747:492
5.747:485
5.747:486
5.747:481
5.748:481
5.748:474
5.748:453
5.748:452
5.748:440
5.749:437
5.749:426
5.749:427
5.749:452
5.768:447
5.768:417
5.768:416
5.768:449
5.768:502
5.769:525
5.769:535
5.769:524
5.772:515
5.772:499
5.772:468
5.772:433
5.774:423
5.774:452
5.774:506
5.774:558
5.775:561
5.777:530
5.777:492
5.778:445
5.778:430
5.778:420
5.779:445
5.779:489
5.779:493
5.779:469
5.779:467
5.781:469
5.781:463
5.781:467
5.797:467
5.797:458
5.797:441
5.798:428
5.798:408
5.798:390
5.798:396
5.801:391
5.802:381
5.802:380
5.802:367
5.803:358
5.803:349
5.803:352
5.804:348
5.804:359
5.804:379
5.805:375
5.806:379
5.806:390
5.806:406
5.807:420
5.807:435
5.807:441
5.808:449
5.808:444
5.809:424
5.809:403
5.809:395
5.810:384
5.825:368
5.825:354
5.826:355
5.826:380
5.833:412
5.833:438
5.833:443
5.834:441
5.834:440
5.834:436
5.835:448
5.835:456
5.835:456
5.836:434
5.836:387
5.836:387
5.837:384
5.837:351
5.838:324
5.838:308
5.838:301
5.838:314
5.839:336
5.839:360
5.839:399
5.839:446
5.839:456
5.839:458
5.839:443
5.840:426
5.854:426
5.855:431
5.855:438
5.858:438
5.859:456
5.859:473
5.859:476
5.860:472
5.861:466
5.861:436
5.861:393
5.862:347
5.862:334
5.862:352
5.863:367
5.863:380
5.863:420
5.863:435
5.863:455
5.863:484
5.863:506
5.863:524
5.866:498
5.867:454
5.867:417
5.868:377
5.868:354
5.868:322
5.868:314
5.868:313
5.887:306
5.887:314
5.888:328
5.888:339
5.888:359
5.888:382
5.889:401
5.889:403
5.889:419
5.891:439
5.891:450
5.891:465
5.892:509
5.892:547
5.892:589
5.893:643
5.893:689
5.893:726
5.894:782
5.895:847
5.895:908
5.896:969
5.896:989
5.896:989
5.896:989
5.897:989
5.897:989
5.897:989
5.899:989
5.899:988
5.915:988
5.915:987
5.916:986
5.916:987
5.916:987
5.916:987
5.917:987
5.917:987
5.920:987
5.920:988
5.920:989
5.920:955
5.921:911
5.921:866
5.921:816
5.921:735
5.922:669
5.922:619
5.924:566
5.924:505
5.924:422
5.924:342
5.925:270
5.925:219
5.925:199
5.925:214
5.925:223
5.928:203
5.928:199
5.928:200
5.944:198
5.945:213
5.945:211
5.945:187
5.945:167
5.948:173
5.949:173
5.949:163
5.949:149
5.950:178
5.950:204
5.951:218
5.951:236
5.951:264
5.952:322
5.952:373
5.953:381
5.953:385
5.954:379
5.954:355
5.954:343
5.955:358
5.955:362
5.955:370
5.956:371
5.957:369
5.957:330
5.958:333
5.958:338
5.958:359
5.972:359
5.973:367
5.973:334
5.973:318
5.977:307
5.978:316
5.978:337
5.978:342
5.979:319
5.979:311
5.980:323
5.980:332
5.980:312
5.981:286
5.981:285
5.982:302
5.982:329
5.982:361
5.983:385
5.983:380
5.983:362
5.984:360
5.984:366
5.985:366
5.985:376
5.986:389
5.986:406
5.987:444
5.987:470
5.987:470
6.001:457
6.005:440
6.006:427
6.006:403
6.007:407
6.007:416
6.007:435
6.008:466
6.008:479
6.008:471
6.008:456
6.010:466
6.010:459
6.010:441
6.011:432
6.011:420
6.011:418
6.011:407
6.011:412
6.011:433
6.013:442
6.014:435
6.014:435
6.015:437
6.015:435
6.015:438
6.016:451
6.016:464
6.016:456
6.017:422
6.034:422
6.034:405
6.035:399
6.035:409
6.035:430
6.036:435
6.036:434
6.037:433
6.037:444
6.037:446
6.038:442
6.039:454
6.039:473
6.040:488
6.040:493
6.040:490
6.041:466
6.041:444
6.041:445
6.042:452
6.042:455
6.043:463
6.044:470
6.044:477
6.044:498
6.044:526
6.045:538
6.045:539
6.045:535
6.046:526
6.063:507
6.063:471
6.063:441
6.063:448
6.063:445
6.063:454
6.067:481
6.067:499
6.068:512
6.068:500
6.068:495
6.068:496
6.068:492
6.069:483
6.069:489
6.069:500
6.071:511
6.071:509
6.072:511
6.072:508
6.072:506
6.072:519
6.073:530
6.073:520
6.073:501
6.073:506
6.075:512
6.075:522
6.075:549
6.076:572
6.091:572
6.091:570
6.092:551
6.092:528
6.092:515
6.092:515
6.095:524
6.095:529
6.095:536
6.096:550
6.096:558
6.096:559
6.096:556
6.096:545
6.096:541
6.100:550
6.100:556
6.100:555
6.100:556
6.101:565
6.101:579
6.101:574
6.101:581
6.101:602
6.102:607
6.104:602
6.104:602
6.104:594
6.104:599
6.104:599
6.120:600
6.120:593
6.124:581
6.125:589
6.125:602
6.125:605
6.125:619
6.126:604
6.126:587
6.126:590
6.126:587
6.126:595
6.128:619
6.128:626
6.129:663
6.129:703
6.129:695
6.129:658
6.129:610
6.129:583
6.130:561
6.133:567
6.133:598
6.133:628
6.134:626
6.134:615
6.135:610
6.135:596
6.135:592
6.136:595
6.149:595
6.149:594
6.153:595
6.153:618
6.153:637
6.154:654
6.154:654
6.154:643
6.154:638
6.155:626
6.155:625
6.157:609
6.158:608
6.159:608
6.159:591
6.159:586
6.160:583
6.161:585
6.161:591
6.162:586
6.162:590
6.162:600
6.163:577
6.163:566
6.163:579
6.163:591
6.164:597
6.164:584
6.164:564
6.164:539
6.181:526
6.182:534
6.182:539
6.182:520
6.182:493
6.183:484
6.183:479
6.183:487
6.186:497
6.186:483
6.186:468
6.187:457
6.187:458
6.187:456
6.187:449
6.187:435
6.188:414
6.190:415
6.190:414
6.190:416
6.190:413
6.191:412
6.191:384
6.191:358
6.191:372
6.191:382
6.192:366
6.194:344
6.194:335
6.194:345
6.211:345
6.211:337
6.211:344
6.211:353
6.211:371
6.212:385
6.212:390
6.215:405
6.215:416
6.215:399
6.215:366
6.216:362
6.216:362
6.216:361
6.216:343
6.217:343
6.218:352
6.219:355
6.220:340
6.220:325
6.220:337
6.220:358
6.220:359
6.220:368
6.220:390
6.221:408
6.223:432
6.223:434
6.223:400
6.223:343
6.239:285
6.239:320
6.239:347
6.239:343
6.244:319
6.244:323
6.244:342
6.245:361
6.245:372
6.245:360
6.246:336
6.246:337
6.246:356
6.248:365
6.248:368
6.248:368
6.248:363
6.248:369
6.249:384
6.249:390
6.249:391
6.249:403
6.249:414
6.252:404
6.252:392
6.252:382
6.253:369
6.253:371
6.253:376
6.253:378
6.268:378
6.268:381
6.268:391
6.272:409
6.272:431
6.272:407
6.272:398
6.273:411
6.273:436
6.273:440
6.273:442
6.274:435
6.276:450
6.277:450
6.277:433
6.278:399
6.278:383
6.278:377
6.279:384
6.279:420
6.279:414
6.279:391
6.280:380
6.280:388
6.280:394
6.280:398
6.281:395
6.281:405
6.281:422
6.282:430
6.300:428
6.301:444
6.301:466
6.301:426
6.301:394
6.301:408
6.302:413
6.302:422
6.302:433
6.305:427
6.305:407
6.305:402
6.305:412
6.306:407
6.306:411
6.306:427
6.306:436
6.306:442
6.307:458
6.309:473
6.309:478
6.309:462
6.309:471
6.310:474
6.310:479
6.310:492
6.311:481
6.311:463
6.313:454
6.313:450
6.329:450
6.329:434
6.329:435
6.329:449
6.329:468
6.330:461
6.330:419
6.330:421
6.333:454
6.333:475
6.333:470
6.334:440
6.334:439
6.335:459
6.335:461
6.335:452
6.336:450
6.336:453
6.338:463
6.338:474
6.338:478
6.339:469
6.339:461
6.339:465
6.339:465
6.339:476
6.340:482
6.341:472
6.341:480
6.341:504
6.358:497
6.358:470
6.358:454
6.358:460
6.358:452
6.362:444
6.362:449
6.362:453
6.362:458
6.363:466
6.363:472
6.363:485
6.363:472
6.364:464
6.364:457
6.366:450
6.366:454
6.366:470
6.366:484
6.367:478
6.367:455
6.367:437
6.367:444
6.367:458
6.370:466
6.370:478
6.370:484
6.370:471
6.371:447
6.371:455
6.386:455
6.386:460
6.386:472
6.387:514
6.390:507
6.391:482
6.391:455
6.391:430
6.391:425
6.391:439
6.392:457
6.392:469
6.392:476
6.393:469
6.394:462
6.395:462
6.395:461
6.395:454
6.395:440
6.395:443
6.396:455
6.396:476
6.396:498
6.399:509
6.399:489
6.399:466
6.399:466
6.400:479
6.400:484
6.400:486
6.414:458
6.419:439
6.419:431
6.419:448
6.419:467
6.420:476
6.420:481
6.420:478
6.420:468
6.420:458
6.423:454
6.423:471
6.423:486
6.424:485
6.424:472
6.424:470
6.424:464
6.424:450
6.425:426
6.425:434
6.427:461
6.427:468
6.428:469
6.428:472
6.428:463
6.429:446
6.429:437
6.429:443
6.429:435
6.429:448
6.448:448
6.449:449
6.449:453
6.449:455
6.450:471
6.450:478
6.450:473
6.450:476
6.451:464
6.451:461
6.452:469
6.453:467
6.453:469
6.454:473
6.454:484
6.454:490
6.455:488
6.455:502
6.456:490
6.456:472
6.457:463
6.457:451
6.458:445
6.458:443
6.458:454
6.459:470
6.459:500
6.459:513
6.460:497
6.461:458
6.476:445
6.476:455
6.477:461
6.477:444
6.477:434
6.477:428
6.480:444
6.481:460
6.481:449
6.481:448
6.482:446
6.482:454
6.482:457
6.483:428
6.484:425
6.484:465
6.484:485
6.485:503
6.485:522
6.486:536
6.486:544
6.486:536
6.487:514
6.487:501
6.488:507
6.488:511
6.489:489
6.489:479
6.489:468
6.489:447
6.505:447
6.505:461
6.506:502
6.506:521
6.507:528
6.509:527
6.509:524
6.510:504
6.510:491
6.510:494
6.511:495
6.511:502
6.511:513
6.512:495
6.512:461
6.513:449
6.513:463
6.514:476
6.514:480
6.514:475
6.515:470
6.515:479
6.516:476
6.516:472
6.516:485
6.517:481
6.518:490
6.518:495
6.519:489
6.519:480
6.534:488
6.534:506
6.538:508
6.538:494
6.538:478
6.539:484
6.539:505
6.539:507
6.539:499
6.539:486
6.539:471
6.540:485
6.542:493
6.543:489
6.543:490
6.543:497
6.544:502
6.544:520
6.545:517
6.545:504
6.545:493
6.546:491
6.546:489
6.546:485
6.546:476
6.547:485
6.547:504
6.548:512
6.548:509
6.548:503
6.562:503
6.567:514
6.567:514
6.567:518
6.568:513
6.568:516
6.569:517
6.569:514
6.569:500
6.570:486
6.570:489
6.571:492
6.571:491
6.571:504
6.572:510
6.572:527
6.572:559
6.572:539
6.573:524
6.573:514
6.575:514
6.575:510
6.575:525
6.575:525
6.576:511
6.577:502
6.577:488
6.577:481
6.577:494
6.577:516
6.595:534
6.595:525
6.595:514
6.595:503
6.596:523
6.596:524
6.596:513
6.596:510
6.599:499
6.599:486
6.599:496
6.600:537
6.600:539
6.600:516
6.600:516
6.600:533
6.601:527
6.604:518
6.604:516
6.604:493
6.604:504
6.604:514
6.605:531
6.605:542
6.605:559
6.605:561
6.606:552
6.608:535
6.609:516
6.610:507
6.624:507
6.624:501
6.624:509
6.624:513
6.624:526
6.625:532
6.625:519
6.628:512
6.628:527
6.628:509
6.628:500
6.629:498
6.629:502
6.629:507
6.629:514
6.629:521
6.632:504
6.632:485
6.632:493
6.633:494
6.633:478
6.634:468
6.634:467
6.634:471
6.635:478
6.635:467
6.636:461
6.636:458
6.636:452
6.636:451
6.653:454
6.653:464
6.653:484
6.653:486
6.657:471
6.657:454
6.657:447
6.657:475
6.658:505
6.658:502
6.658:491
6.658:485
6.659:469
6.661:458
6.661:448
6.661:443
6.662:440
6.662:454
6.662:472
6.662:469
6.663:470
6.663:492
6.663:513
6.665:515
6.665:494
6.665:480
6.665:484
6.666:491
6.666:483
6.666:487
6.681:487
6.681:448
6.681:447
6.685:473
6.685:507
6.686:497
6.686:474
6.686:461
6.686:456
6.686:459
6.687:477
6.687:491
6.690:489
6.690:475
6.690:475
6.690:479
6.691:470
6.691:434
6.691:429
6.691:441
6.691:458
6.692:479
6.694:477
6.694:481
6.694:478
6.694:468
6.694:464
6.695:465
6.695:468
6.695:475
6.714:473
6.714:477
6.714:485
6.714:473
6.714:463
6.716:463
6.716:462
6.716:460
6.716:466
6.718:475
6.719:498
6.719:502
6.719:489
6.719:473
6.719:443
6.719:423
6.719:426
6.720:419
6.720:412
6.722:402
6.722:392
6.722:410
6.723:406
6.723:419
6.723:432
6.723:413
6.723:399
6.724:402
6.726:425
6.726:455
6.743:455
6.743:484
6.744:516
6.744:532
6.744:546
6.744:563
6.744:591
6.744:616
6.747:642
6.747:688
6.747:732
6.748:766
6.748:813
6.748:874
6.748:924
6.748:965
6.749:990
6.749:989
6.751:989
6.751:988
6.751:987
6.751:987
6.752:987
6.752:987
6.752:986
6.752:986
6.752:986
6.755:986
6.755:986
6.755:987
6.772:988
6.772:988
6.772:988
6.772:989
6.772:988
6.776:988
6.777:990
6.777:970
6.777:911
6.777:840
6.777:770
6.778:716
6.778:646
6.778:575
6.779:491
6.780:423
6.780:372
6.780:332
6.780:304
6.781:285
6.781:277
6.781:258
6.781:232
6.781:212
6.784:209
6.784:217
6.784:240
6.784:253
6.785:242
6.785:243
6.799:243
6.799:244
6.800:248
6.800:271
6.804:298
6.804:328
6.804:347
6.804:365
6.805:384
6.805:394
6.805:406
6.805:416
6.805:412
6.806:405
6.809:394
6.809:392
6.810:383
6.810:390
6.810:401
6.810:395
6.811:407
6.811:421
6.811:408
6.813:391
6.813:379
6.813:371
6.813:382
6.814:393
6.814:392
6.814:408
6.829:411
6.833:373
6.833:345
6.833:338
6.833:343
6.834:382
6.834:417
6.834:417
6.834:402
6.834:399
6.837:414
6.837:425
6.838:424
6.838:431
6.839:456
6.839:471
6.839:450
6.839:440
6.839:440
6.839:445
6.841:447
6.841:463
6.842:465
6.842:440
6.843:427
6.843:434
6.843:454
6.844:458
6.844:452
6.845:445
6.861:445
6.861:447
6.861:444
6.862:458
6.862:477
6.862:456
6.862:433
6.862:412
6.863:405
6.866:409
6.866:428
6.866:449
6.866:460
6.867:459
6.867:461
6.867:463
6.867:477
6.867:482
6.868:474
6.870:467
6.870:459
6.870:464
6.870:465
6.870:470
6.871:462
6.871:458
6.871:460
6.871:469
6.871:487
6.873:479
6.890:472
6.890:470
6.891:468
6.891:462
6.892:449
6.892:454
6.894:472
6.894:494
6.895:500
6.895:496
6.896:505
6.896:526
6.896:528
6.897:525
6.897:568
6.897:565
6.899:526
6.899:501
6.899:495
6.899:504
6.899:517
6.900:530
6.900:544
6.900:543
6.901:557
6.902:541
6.903:540
6.903:556
6.903:529
6.904:465
6.919:465
6.919:431
6.919:432
6.920:447
6.920:452
6.923:458
6.923:467
6.923:472
6.923:473
6.924:482
6.924:486
6.924:498
6.924:502
6.925:508
6.925:507
6.927:504
6.927:510
6.927:520
6.927:531
6.927:535
6.928:538
6.928:534
6.928:518
6.929:513
6.930:502
6.931:513
6.931:538
6.931:552
6.932:548
6.932:543
6.947:543
6.948:547
6.952:557
6.952:563
6.952:549
6.953:547
6.953:553
6.954:555
6.954:534
6.954:523
6.955:526
6.955:540
6.956:554
6.956:547
6.957:530
6.957:527
6.957:531
6.958:546
6.958:557
6.958:565
6.960:557
6.960:563
6.960:571
6.960:574
6.960:573
6.961:581
6.961:581
6.961:588
6.962:604
6.962:596
6.976:596
6.980:583
6.980:570
6.981:568
6.981:568
6.981:569
6.981:574
6.982:580
6.982:581
6.982:579
6.982:586
6.984:591
6.985:609
6.985:605
6.985:601
6.986:608
6.986:626
6.987:616
6.987:602
6.987:598
6.988:592
6.988:596
6.989:611
6.989:610
6.989:599
6.990:587
6.990:586
6.990:588
6.990:593
6.991:588
7.009:601
7.009:621
7.009:623
7.009:633
7.009:619
7.010:612
7.010:598
7.010:598
7.013:610
7.013:593
7.014:564
7.014:541
7.014:541
7.015:560
7.015:555
7.015:534
7.016:531
7.017:538
7.017:543
7.017:547
7.018:530
7.018:509
7.018:508
7.018:511
7.019:510
7.019:504
7.019:496
7.021:497
7.021:514
7.022:514
7.037:514
7.038:500
7.038:479
7.038:459
7.038:456
7.039:444
7.039:430
7.043:414
7.044:409
7.046:415
7.046:420
7.047:413
7.047:402
7.047:391
7.047:385
7.048:385
7.048:395
7.048:401
7.048:398
7.049:408
7.049:384
7.049:359
7.049:344
7.050:342
7.050:348
7.050:348
7.051:340
7.051:334
7.051:329
7.051:323
7.066:313
7.066:309
7.066:314
7.070:323
7.070:332
7.070:333
7.070:331
7.071:332
7.071:341
7.071:353
7.071:352
7.071:344
7.072:321
7.074:312
7.075:311
7.075:315
7.075:318
7.076:322
7.076:329
7.076:343
7.076:355
7.076:358
7.078:360
7.078:355
7.078:342
7.079:356
7.079:365
7.079:379
7.079:371
7.079:365
7.094:365
7.094:389
7.095:395
7.098:360
7.099:332
7.099:333
7.099:330
7.099:335
7.099:345
7.100:337
7.100:332
7.100:341
7.103:349
7.103:350
7.103:348
7.103:354
7.103:365
7.104:360
7.104:361
7.104:364
7.104:378
7.105:399
7.107:401
7.107:383
7.108:397
7.108:399
7.108:388
7.109:380
7.109:390
7.109:379
7.128:372
7.128:391
7.128:390
7.128:373
7.128:375
7.128:386
7.128:397
7.129:401
7.129:406
7.132:379
7.132:380
7.132:386
7.133:385
7.133:398
7.133:409
7.133:420
7.133:412
7.134:418
7.136:403
7.136:401
7.136:421
7.136:415
7.137:413
7.137:408
7.137:429
7.137:447
7.137:442
7.138:432
7.140:432
7.140:435
7.156:435
7.156:432
7.157:428
7.157:454
7.157:465
7.157:444
7.158:410
7.158:398
7.161:393
7.161:390
7.161:386
7.161:390
7.161:399
7.161:397
7.162:396
7.162:393
7.162:402
7.162:416
7.165:423
7.165:430
7.165:425
7.165:418
7.166:417
7.166:433
7.166:453
7.166:468
7.166:482
7.169:459
7.169:442
7.169:459
7.185:472
7.185:476
7.185:472
7.186:455
7.186:437
7.189:436
7.189:443
7.189:437
7.190:428
7.190:436
7.190:434
7.190:448
7.190:474
7.191:463
7.193:453
7.193:462
7.193:476
7.194:485
7.194:482
7.194:481
7.194:461
7.194:441
7.195:432
7.195:451
7.197:463
7.197:449
7.198:443
7.198:469
7.198:504
7.199:517
7.213:517
7.214:503
7.214:500
7.214:494
7.218:466
7.218:455
7.218:457
7.218:479
7.220:487
7.220:474
7.220:454
7.220:441
7.220:435
7.222:430
7.222:428
7.222:438
7.222:467
7.223:479
7.223:476
7.223:452
7.223:445
7.223:448
7.224:457
7.225:462
7.226:462
7.226:490
7.226:502
7.226:500
7.226:483
7.226:474
7.242:461
7.246:476
7.247:487
7.247:502
7.247:527
7.247:510
7.248:492
7.248:479
7.248:483
7.248:472
7.250:459
7.251:445
7.251:444
7.251:449
7.251:466
7.252:484
7.252:487
7.252:512
7.252:517
7.252:507
7.255:489
7.255:481
7.255:471
7.255:454
7.256:454
7.256:475
7.256:485
7.256:472
7.257:466
7.259:462
7.276:462
7.276:469
7.276:473
7.276:472
7.276:481
7.276:511
7.277:492
7.277:465
7.277:479
7.279:500
7.279:502
7.280:487
7.280:481
7.280:470
7.280:476
7.280:485
7.281:477
7.281:479
7.281:477
7.284:469
7.284:460
7.284:450
7.284:449
7.285:458
7.285:468
7.285:471
7.285:483
7.285:493
7.287:506
7.287:503
7.304:495
7.304:499
7.304:508
7.304:523
7.305:527
7.305:525
7.309:524
7.309:513
7.309:505
7.309:532
7.309:552
7.310:534
7.310:485
7.310:446
7.310:436
7.310:447
7.312:464
7.312:477
7.312:488
7.312:496
7.312:511
7.313:505
7.313:518
7.313:510
7.313:481
7.316:450
7.316:442
7.316:449
7.317:457
7.317:465
7.332:465
7.333:477
7.333:486
7.333:496
7.333:510
7.337:505
7.337:502
7.337:507
7.337:513
7.338:493
7.338:476
7.338:470
7.338:478
7.338:485
7.338:493
7.341:512
7.341:523
7.342:508
7.342:498
7.342:487
7.342:480
7.343:476
7.343:471
7.343:479
7.345:499
7.345:509
7.345:515
7.345:510
7.346:510
7.346:511
7.361:507
7.361:505
7.365:482
7.365:466
7.365:460
7.365:448
7.366:452
7.366:464
7.366:481
7.366:499
7.366:495
7.367:501
7.369:495
7.370:489
7.370:484
7.370:482
7.370:481
7.371:476
7.371:477
7.371:484
7.371:487
7.374:497
7.374:509
7.374:526
7.374:529
7.375:517
7.375:508
7.375:503
7.376:489
7.376:473
7.390:473
7.394:464
7.394:466
7.395:472
7.395:483
7.395:492
7.396:497
7.396:499
7.396:495
7.397:487
7.397:512
7.398:506
7.398:502
7.399:493
7.399:492
7.399:486
7.400:486
7.400:468
7.400:458
7.401:475
7.402:489
7.402:485
7.402:488
7.403:495
7.403:492
7.404:505
7.404:498
7.404:506
7.405:498
7.405:502
7.422:520
7.423:514
7.423:500
7.423:502
7.424:486
7.425:474
7.425:495
7.425:486
7.426:490
7.427:507
7.427:514
7.428:492
7.428:478
7.428:475
7.429:496
7.429:504
7.429:491
7.430:486
7.431:485
7.431:481
7.432:472
7.432:473
7.432:477
7.433:488
7.433:512
7.434:504
7.434:502
7.435:512
7.435:507
7.435:508
7.451:508
7.451:478
7.451:464
7.451:465
7.452:479
7.452:482
7.452:479
7.455:478
7.455:491
7.455:513
7.456:536
7.456:541
7.456:526
7.457:507
7.457:499
7.457:493
7.459:485
7.459:480
7.459:479
7.460:477
7.460:483
7.460:487
7.460:486
7.460:491
7.461:491
7.461:493
7.463:504
7.463:510
7.463:511
7.463:526
7.479:541
7.480:528
7.480:512
7.484:491
7.484:474
7.484:474
7.485:481
7.485:489
7.485:504
7.486:509
7.486:497
7.487:475
7.487:459
7.488:465
7.489:482
7.489:510
7.489:534
7.489:536
7.489:518
7.489:504
7.489:498
7.489:522
7.491:511
7.491:486
7.492:465
7.492:462
7.492:452
7.493:461
7.493:471
7.493:487
7.508:487
7.509:486
7.512:475
7.512:488
7.512:513
7.513:508
7.513:479
7.513:494
7.513:498
7.513:508
7.514:547
7.514:566
7.517:596
7.517:636
7.517:619
7.517:541
7.517:490
7.517:427
7.518:401
7.518:406
7.519:413
7.519:423
7.521:453
7.521:489
7.521:496
7.521:493
7.521:496
7.522:510
7.522:525
7.522:502
7.541:472
7.541:446
7.542:421
7.542:430
7.542:470
7.542:485
7.542:525
7.542:584
7.543:611
7.545:585
7.545:583
7.545:565
7.545:528
7.546:528
7.546:533
7.546:530
7.546:520
7.547:500
7.549:482
7.549:456
7.549:449
7.549:457
7.549:465
7.550:473
7.550:469
7.550:442
7.550:429
7.550:418
7.553:424
7.553:452
7.569:452
7.570:470
7.570:480
7.570:489
7.570:501
7.571:528
7.571:567
7.571:577
7.574:583
7.575:580
7.575:565
7.575:563
7.576:569
7.576:571
7.576:551
7.577:529
7.577:528
7.578:539
7.578:521
7.578:503
7.579:494
7.579:498
7.579:503
7.579:501
7.579:503
7.580:524
7.580:551
7.582:571
7.582:582
7.582:577
7.598:558
7.598:548
7.598:548
7.599:543
7.599:534
7.603:535
7.603:526
7.603:524
7.603:530
7.604:518
7.604:517
7.604:533
7.604:545
7.604:530
7.607:519
7.607:521
7.607:494
7.608:470
7.608:470
7.609:483
7.609:494
7.609:528
7.609:521
7.610:517
7.611:525
7.611:532
7.611:529
7.612:512
7.612:487
7.612:472
7.627:472
7.627:470
7.627:455
7.628:455
7.632:458
7.632:452
7.632:448
7.632:450
7.633:454
7.633:451
7.633:437
7.633:441
7.634:484
7.636:489
7.636:494
7.636:492
7.636:497
7.637:496
7.637:467
7.637:464
7.637:451
7.638:416
7.638:411
7.640:439
7.640:468
7.640:463
7.640:451
7.641:466
7.641:498
7.642:510
7.656:512
7.660:491
7.660:485
7.660:475
7.660:468
7.661:467
7.661:479
7.661:486
7.661:486
7.661:483
7.664:468
7.664:459
7.664:467
7.664:480
7.665:514
7.665:517
7.665:485
7.665:463
7.665:455
7.666:476
7.669:496
7.669:513
7.669:510
7.669:490
7.669:484
7.669:476
7.670:462
7.670:475
7.670:482
7.672:475
7.689:475
7.689:460
7.689:464
7.690:474
7.690:473
7.690:468
7.690:464
7.690:457
7.691:451
7.693:435
7.693:429
7.693:415
7.693:394
7.693:393
7.694:429
7.694:438
7.694:422
7.694:401
7.695:409
7.697:422
7.697:420
7.697:425
7.698:437
7.698:469
7.698:511
7.698:549
7.698:573
7.699:579
7.701:613
7.701:657
7.717:709
7.717:751
7.718:771
7.718:788
7.718:831
7.718:881
7.722:918
7.722:956
7.722:981
7.722:989
7.723:988
7.723:988
7.723:987
7.723:987
7.724:987
7.724:986
7.726:986
7.726:985
7.726:985
7.726:985
7.727:986
7.727:986
7.727:986
7.727:987
7.727:987
7.730:988
7.730:988
7.730:989
7.730:989
7.730:963
7.746:963
7.746:937
7.746:892
7.746:842
7.746:764
7.750:687
7.750:602
7.750:517
7.750:428
7.751:351
7.751:305
7.751:273
7.751:268
7.751:241
7.752:228
7.754:225
7.754:219
7.754:217
7.754:225
7.755:224
7.755:225
7.755:246
7.755:265
7.755:263
7.758:263
7.759:272
7.759:288
7.759:313
7.759:348
7.760:375
7.775:388
7.775:374
7.779:353
7.780:352
7.780:374
7.780:380
7.780:371
7.781:381
7.781:393
7.781:399
7.781:398
7.783:405
7.783:389
7.783:382
7.783:385
7.784:390
7.784:397
7.784:409
7.784:416
7.785:413
7.785:417
7.787:421
7.787:428
7.788:420
7.788:412
7.789:410
7.789:391
7.789:382
7.790:380
7.790:386
7.802:386
7.809:399
7.810:409
7.810:417
7.811:434
7.811:446
7.812:468
7.812:456
7.812:441
7.812:423
7.812:418
7.813:424
7.813:430
7.813:448
7.813:454
7.814:455
7.814:452
7.814:458
7.814:450
7.815:449
7.816:460
7.816:471
7.816:483
7.816:458
7.817:424
7.817:426
7.817:435
7.817:433
7.818:435
7.818:453
7.836:474
7.836:489
7.837:482
7.837:476
7.837:466
7.837:458
7.837:457
7.840:461
7.840:460
7.841:468
7.842:480
7.842:496
7.842:497
7.842:485
7.843:484
7.843:472
7.843:473
7.844:477
7.844:489
7.844:485
7.844:477
7.845:492
7.845:491
7.845:496
7.845:487
7.846:505
7.848:507
7.849:506
7.849:497
7.849:497
7.864:497
7.865:508
7.865:516
7.866:522
7.866:513
7.866:511
7.869:533
7.869:541
7.869:519
7.870:508
7.870:524
7.870:509
7.870:479
7.870:474
7.871:492
7.871:526
7.873:534
7.873:533
7.874:524
7.875:504
7.875:504
7.875:491
7.875:499
7.876:511
7.876:530
7.876:537
7.877:519
7.877:508
7.877:519
7.878:533
7.893:532
7.893:536
7.894:542
7.898:530
7.898:525
7.898:532
7.899:535
7.899:533
7.899:534
7.900:532
7.900:529
7.900:525
7.900:520
7.901:551
7.902:581
7.902:579
7.903:577
7.903:601
7.903:587
7.904:560
7.904:557
7.904:551
7.905:559
7.906:556
7.906:556
7.906:566
7.907:591
7.908:586
7.908:571
7.908:566
7.922:566
7.922:581
7.926:584
7.926:583
7.926:584
7.927:592
7.927:592
7.927:600
7.928:610
7.929:608
7.929:613
7.929:611
7.930:596
7.930:604
7.931:608
7.931:623
7.931:648
7.932:649
7.932:630
7.932:610
7.933:599
7.934:608
7.934:632
7.935:650
7.935:653
7.935:655
7.936:652
7.936:644
7.936:638
7.937:626
7.954:604
7.954:599
7.955:609
7.955:579
7.955:560
7.955:561
7.955:574
7.956:593
7.956:598
7.958:631
7.959:651
7.959:669
7.959:688
7.960:715
7.960:694
7.960:686
7.961:678
7.962:675
7.962:666
7.962:663
7.963:666
7.963:651
7.963:649
7.963:651
7.964:649
7.964:640
7.964:628
7.964:629
7.966:625
7.966:602
7.983:602
7.983:588
7.983:599
7.984:617
7.984:636
7.984:657
7.985:658
7.985:633
7.987:615
7.988:630
7.988:629
7.988:601
7.989:573
7.989:570
7.989:578
7.989:576
7.990:569
7.992:540
7.992:536
7.992:560
7.992:584
7.993:597
7.993:609
7.994:620
7.994:592
7.994:567
7.995:553
7.996:517
7.996:515
7.997:521
8.012:496
8.012:503
8.012:502
8.013:470
8.013:453
8.016:453
8.016:446
8.017:460
8.017:468
8.017:462
8.017:421
8.017:406
8.018:397
8.018:385
8.020:386
8.020:390
8.020:382
8.020:377
8.020:384
8.021:394
8.021:389
8.021:390
8.021:399
8.022:410
8.024:415
8.024:417
8.024:417
8.024:417
8.024:427
8.024:438
8.041:438
8.041:411
8.041:385
8.042:363
8.045:376
8.045:383
8.045:369
8.045:346
8.046:347
8.046:368
8.046:381
8.046:374
8.046:371
8.049:358
8.049:350
8.049:361
8.049:376
8.049:400
8.050:398
8.050:412
8.050:404
8.050:373
8.051:343
8.053:347
8.053:392
8.053:397
8.053:395
8.054:373
8.054:354
8.054:358
8.069:367
8.074:367
8.074:366
8.074:364
8.074:365
8.074:371
8.075:366
8.075:352
8.075:351
8.075:382
8.077:411
8.078:417
8.078:417
8.078:421
8.078:425
8.078:434
8.079:422
8.079:411
8.079:416
8.079:429
8.082:430
8.082:417
8.082:395
8.082:398
8.082:421
8.083:431
8.083:418
8.083:415
8.083:417
8.086:413
8.103:413
8.103:410
8.104:410
8.104:427
8.104:451
8.105:452
8.105:429
8.106:401
8.106:401
8.107:418
8.107:428
8.108:439
8.108:440
8.108:450
8.109:462
8.109:455
8.109:468
8.109:457
8.110:454
8.110:439
8.110:430
8.111:414
8.111:419
8.111:430
8.111:424
8.111:440
8.112:440
8.112:424
8.114:410
8.114:410
8.131:416
8.131:424
8.131:428
8.131:443
8.131:464
8.132:473
8.135:466
8.136:467
8.136:470
8.137:461
8.137:458
8.137:462
8.138:455
8.139:455
8.139:441
8.140:432
8.141:437
8.142:435
8.143:433
8.144:438
8.144:443
8.144:442
8.145:442
8.146:448
8.146:448
8.147:465
8.147:481
8.147:484
8.148:478
8.149:466
8.159:466
8.160:465
8.160:449
8.160:466
8.160:489
8.164:491
8.164:487
8.164:490
8.164:509
8.165:481
8.165:453
8.165:444
8.165:447
8.165:442
8.166:439
8.168:442
8.168:435
8.168:446
8.168:455
8.168:446
8.169:442
8.169:456
8.169:463
8.169:453
8.172:458
8.172:468
8.172:478
8.172:481
8.173:489
8.173:484
8.188:470
8.188:468
8.193:462
8.193:454
8.193:453
8.193:477
8.194:482
8.194:477
8.194:472
8.194:476
8.194:475
8.196:475
8.196:479
8.197:488
8.197:484
8.197:486
8.198:479
8.198:459
8.198:456
8.199:466
8.199:483
8.201:500
8.201:505
8.201:502
8.201:500
8.202:488
8.202:459
8.202:452
8.202:462
8.202:490
8.216:490
8.221:491
8.221:489
8.221:485
8.221:484
8.222:464
8.222:454
8.222:465
8.222:476
8.222:482
8.225:483
8.225:483
8.225:471
8.225:447
8.226:451
8.226:457
8.226:457
8.226:456
8.226:449
8.227:448
8.229:459
8.230:466
8.230:477
8.230:499
8.230:508
8.231:492
8.231:475
8.231:467
8.231:457
8.231:446
8.249:448
8.250:458
8.250:472
8.250:487
8.250:494
8.250:493
8.251:496
8.254:491
8.254:483
8.254:467
8.254:453
8.255:458
8.255:463
8.255:480
8.255:493
8.255:484
8.256:501
8.258:504
8.258:487
8.258:485
8.258:495
8.262:514
8.262:502
8.262:492
8.262:473
8.262:468
8.262:458
8.262:453
8.262:464
8.262:465
8.278:465
8.278:465
8.278:468
8.279:480
8.279:484
8.279:468
8.282:465
8.282:470
8.282:474
8.282:462
8.282:456
8.284:458
8.284:466
8.284:484
8.284:489
8.285:481
8.287:469
8.287:461
8.287:458
8.287:459
8.287:457
8.287:465
8.287:473
8.288:478
8.289:482
8.290:492
8.291:497
8.291:491
8.291:483
8.291:483
8.307:492
8.307:489
8.307:491
8.311:511
8.311:504
8.311:482
8.311:463
8.312:463
8.312:480
8.312:492
8.312:498
8.312:494
8.313:501
8.315:524
8.315:510
8.315:490
8.315:488
8.316:491
8.316:489
8.316:477
8.316:476
8.317:469
8.319:468
8.320:477
8.320:482
8.320:484
8.320:508
8.320:503
8.320:508
8.320:484
8.336:484
8.336:461
8.340:466
8.341:488
8.341:505
8.342:489
8.342:473
8.342:475
8.343:484
8.343:490
8.343:497
8.343:493
8.344:488
8.344:493
8.344:479
8.344:475
8.345:468
8.345:470
8.345:482
8.345:478
8.345:479
8.348:487
8.348:501
8.348:507
8.349:505
8.349:496
8.349:487
8.349:476
8.349:474
8.350:487
8.368:496
8.368:483
8.368:460
8.368:451
8.369:446
8.369:461
8.369:472
8.369:489
8.369:484
8.372:478
8.372:483
8.372:501
8.372:508
8.373:505
8.373:492
8.373:469
8.373:477
8.373:481
8.376:480
8.376:497
8.377:530
8.377:536
8.378:504
8.378:467
8.378:467
8.378:493
8.378:510
8.379:480
8.381:457
8.381:464
8.397:464
8.397:479
8.398:487
8.398:482
8.398:485
8.398:483
8.399:487
8.399:485
8.401:484
8.401:488
8.402:499
8.402:505
8.402:498
8.403:482
8.403:482
8.403:486
8.404:479
8.405:478
8.405:489
8.406:494
8.406:504
8.407:518
8.407:513
8.407:503
8.407:486
8.408:470
8.408:469
8.409:495
8.409:502
8.409:502
8.425:502
8.425:477
8.426:482
8.426:492
8.430:486
8.430:480
8.430:478
8.430:481
8.431:494
8.431:501
8.431:501
8.432:495
8.432:490
8.433:486
8.434:481
8.434:481
8.434:481
8.435:480
8.435:481
8.435:486
8.436:488
8.436:491
8.437:506
8.437:517
8.438:524
8.438:507
8.438:481
8.438:492
8.438:503
8.439:500
8.454:500
8.454:503
8.455:493
8.455:477
8.459:465
8.459:461
8.459:492
8.459:506
8.460:509
8.460:505
8.460:477
8.461:468
8.461:474
8.462:478
8.463:477
8.463:475
8.463:461
8.463:442
8.464:449
8.464:462
8.464:498
8.464:511
8.465:510
8.467:486
8.467:475
8.467:475
8.467:482
8.467:478
8.468:475
8.468:469
8.487:467
8.488:473
8.488:484
8.489:492
8.489:499
8.489:513
8.490:519
8.491:488
8.491:480
8.491:475
8.491:460
8.492:462
8.492:444
8.492:403
8.492:386
8.492:396
8.492:429
8.493:477
8.493:526
8.495:569
8.495:586
8.495:570
8.495:549
8.496:534
8.496:523
8.496:523
8.496:515
8.497:499
8.497:476
8.499:441
8.515:441
8.515:406
8.516:410
8.516:417
8.516:431
8.516:474
8.516:471
8.517:426
8.517:403
8.520:408
8.520:429
8.520:482
8.520:541
8.520:547
8.521:544
8.521:556
8.521:563
8.521:548
8.521:519
8.524:500
8.524:491
8.524:473
8.524:486
8.524:491
8.525:485
8.525:480
8.525:490
8.525:482
8.527:461
8.528:447
8.544:437
8.544:441
8.545:465
8.545:503
8.545:522
8.545:523
8.548:535
8.548:546
8.549:536
8.549:538
8.549:545
8.549:529
8.550:519
8.550:519
8.550:525
8.553:529
8.553:516
8.553:501
8.553:510
8.554:522
8.554:527
8.554:513
8.554:509
8.554:492
8.555:465
8.557:477
8.558:496
8.558:519
8.559:520
8.559:517
8.573:517
8.573:508
8.574:505
8.574:509
8.574:517
8.577:495
8.577:488
8.578:495
8.578:512
8.578:539
8.579:548
8.579:535
8.579:525
8.579:522
8.581:527
8.581:515
8.582:511
8.582:519
8.582:531
8.582:548
8.582:564
8.582:567
8.583:554
8.583:518
8.585:499
8.585:500
8.585:495
8.585:496
8.586:503
8.586:500
8.601:496
8.602:492
8.607:501
8.607:516
8.607:526
8.607:528
8.608:527
8.608:520
8.608:507
8.608:499
8.608:494
8.610:495
8.610:498
8.610:505
8.610:522
8.611:535
8.611:545
8.611:548
8.611:544
8.612:531
8.612:542
8.614:545
8.614:548
8.614:540
8.615:527
8.615:532
8.615:519
8.615:517
8.615:539
8.616:535
8.630:535
8.635:513
8.636:527
