514
511
499
494
489
478
472
469
472
465
464
468
480
483
475
466
467
476
476
474
480
488
485
487
487
484
476
478
484
485
484
486
490
486
487
488
489
489
488
487
483
483
480
475
469
470
470
473
487
499
499
501
499
496
501
507
508
506
498
497
504
511
510
508
501
497
496
496
497
499
505
507
505
503
503
503
507
510
515
522
525
524
525
524
523
520
518
517
521
527
529
531
530
534
534
524
517
517
516
512
513
510
506
508
513
513
510
511
512
510
510
513
511
510
512
516
512
506
495
488
487
488
482
479
479
482
482
468
458
464
472
476
486
488
481
476
470
464
464
467
465
466
473
476
470
461
462
465
473
479
478
476
477
478
477
473
470
470
473
480
480
482
479
477
473
471
469
470
460
452
450
459
466
468
471
470
472
474
477
474
472
474
477
473
473
475
470
469
472
468
462
470
477
477
477
483
487
491
496
503
517
533
544
564
588
616
646
678
709
739
767
792
812
826
830
824
819
821
826
831
832
829
811
778
737
699
672
656
637
619
603
584
564
534
507
467
416
383
368
368
377
390
399
410
418
425
431
434
436
436
443
451
457
456
454
451
452
455
461
465
469
474
478
476
469
467
468
482
493
482
465
456
454
451
453
454
452
454
452
451
455
454
453
451
452
451
448
448
448
454
457
456
459
454
452
447
445
449
452
461
466
468
463
461
469
473
472
474
475
475
475
474
474
477
481
481
478
474
470
466
469
473
474
483
490
492
495
500
499
491
478
479
484
486
485
483
483
485
487
490
492
494
494
493
497
503
498
492
495
499
505
508
502
504
511
512
509
504
505
510
508
503
494
491
502
517
521
513
514
521
526
522
516
517
519
523
530
533
532
524
521
526
535
541
540
535
540
546
549
546
543
545
550
558
560
562
563
568
571
568
568
576
574
574
571
574
573
570
575
581
589
589
584
583
578
578
576
575
579
571
568
571
576
580
584
579
571
565
564
568
576
579
575
570
566
569
570
572
570
562
558
559
562
563
563
563
560
553
541
536
533
533
532
532
536
542
540
536
532
524
515
506
490
484
488
493
496
499
491
480
476
478
480
470
458
454
450
449
448
448
446
441
436
434
429
428
429
429
419
413
416
417
413
411
412
411
410
411
413
410
406
403
401
397
399
408
413
419
422
421
414
419
418
411
404
398
399
399
399
395
396
400
406
409
406
406
410
414
412
409
410
410
413
418
420
410
404
412
417
417
411
408
412
418
424
430
433
436
441
439
436
436
432
430
431
433
432
428
429
434
439
438
436
439
437
435
434
439
447
447
441
438
437
440
448
450
454
459
447
433
437
444
450
450
446
446
447
448
453
455
455
453
457
455
452
455
459
461
464
460
456
455
457
457
460
460
463
466
472
475
477
471
462
457
460
464
468
462
454
451
451
455
459
456
462
467
473
480
486
486
478
468
465
465
470
479
481
483
482
479
474
474
479
482
481
473
464
462
467
465
462
469
471
470
476
482
485
481
477
477
481
483
487
484
481
478
478
478
470
468
470
475
482
482
483
478
474
477
479
474
470
470
465
458
459
466
467
471
481
483
480
478
480
482
476
468
469
472
474
471
467
467
465
466
471
478
483
483
482
481
486
492
487
473
467
468
468
465
460
463
467
466
465
469
470
466
465
470
475
470
466
467
466
466
469
478
489
492
484
477
474
471
471
470
467
466
465
466
466
469
469
472
474
477
487
493
490
485
479
472
468
466
463
464
464
466
467
473
484
485
479
479
486
485
475
468
466
470
475
480
481
484
483
477
471
474
482
483
481
488
495
491
479
470
469
467
468
468
466
471
471
468
469
471
475
480
480
480
480
476
473
480
483
483
485
485
479
473
475
475
474
473
476
478
480
484
480
478
473
470
472
475
477
475
481
486
480
478
480
478
472
472
472
473
474
478
485
487
486
484
485
489
487
479
479
486
491
492
494
489
483
476
476
481
482
479
483
489
491
498
507
505
503
498
498
500
497
484
480
482
475
476
488
501
504
506
513
521
520
507
494
496
506
506
510
512
511
521
528
529
528
524
519
519
523
509
493
491
496
498
503
512
514
514
510
508
507
509
512
511
511
506
500
500
505
509
509
505
498
497
495
491
486
478
477
477
476
476
472
469
463
459
454
455
460
467
468
462
465
477
486
481
475
470
471
467
463
467
468
469
472
476
475
469
467
472
474
476
478
476
470
466
469
471
470
472
482
488
484
475
474
473
472
469
455
449
454
463
474
473
458
455
457
455
450
450
455
455
454
451
455
453
451
448
450
456
468
478
479
486
498
515
533
549
565
593
629
665
698
728
756
781
806
828
834
825
824
828
833
839
845
843
830
813
781
738
698
667
651
642
634
619
598
568
543
521
492
453
420
397
387
389
393
401
412
425
435
439
442
439
433
439
444
443
443
451
462
466
464
465
469
476
467
460
465
471
467
460
456
450
451
454
454
447
438
440
443
449
455
455
457
463
469
458
447
450
458
454
443
437
435
442
451
456
454
452
452
450
447
448
444
441
443
445
448
453
454
448
447
452
466
474
475
473
470
470
467
468
471
475
477
480
480
474
467
466
459
457
459
466
474
478
470
471
476
479
488
497
494
488
485
488
493
492
489
489
491
492
491
492
492
492
491
491
489
493
500
499
500
497
496
496
503
512
513
512
511
512
514
512
511
509
509
514
516
515
514
520
522
525
528
534
537
536
534
529
526
524
530
534
532
535
540
541
544
553
557
557
557
558
562
558
554
555
551
551
553
560
561
557
562
574
580
588
590
587
581
580
581
583
584
590
591
581
568
571
576
574
572
571
571
565
563
564
562
557
550
549
552
554
563
569
571
569
562
554
545
539
539
543
543
538
536
538
530
521
518
514
511
508
501
499
502
503
500
496
496
498
497
489
478
466
458
453
452
453
450
450
451
451
446
440
442
444
437
425
423
422
425
422
418
423
422
419
416
417
414
412
411
407
405
396
395
405
411
412
410
404
410
416
414
410
411
413
411
414
416
418
418
416
415
413
413
413
412
412
412
412
406
404
405
405
407
409
412
415
414
416
422
425
431
433
435
437
437
436
435
439
446
445
429
417
427
442
435
424
425
422
419
425
428
421
415
425
436
440
435
430
430
434
438
444
441
440
435
433
437
440
439
442
445
443
439
438
442
448
452
453
452
448
442
441
444
446
454
456
451
446
448
460
468
467
469
466
455
451
458
470
473
466
466
467
465
468
469
465
465
465
468
467
468
470
470
472
472
469
469
471
467
466
465
461
461
463
467
469
469
471
468
464
464
465
467
470
473
471
464
460
462
465
474
476
474
472
470
471
471
472
471
472
469
467
469
473
474
473
467
462
464
475
478
474
470
470
474
475
473
470
470
477
482
481
484
489
488
484
476
470
476
481
475
468
465
467
473
471
465
459
458
461
464
458
457
463
475
484
483
488
491
480
464
463
461
462
465
469
474
477
469
465
467
468
465
466
479
487
482
479
477
470
459
458
462
468
473
477
481
482
484
474
464
461
470
477
475
478
476
477
477
475
469
467
474
472
471
475
473
473
473
476
476
477
475
477
481
485
484
481
479
480
479
478
479
482
482
474
465
465
467
472
476
478
478
479
479
476
478
481
483
483
480
474
476
478
478
487
491
491
489
483
479
482
478
466
461
473
482
485
481
487
483
480
481
483
479
475
477
483
490
486
477
472
472
477
475
479
480
479
481
489
492
482
471
465
458
462
467
474
480
488
484
480
477
477
480
477
477
482
492
500
496
494
492
484
480
479
474
471
472
476
478
477
478
478
476
477
479
480
483
489
490
486
481
480
482
485
487
478
475
471
474
482
491
493
498
501
503
490
482
491
496
496
496
498
499
494
493
491
485
484
490
492
495
496
499
500
499
501
507
514
512
512
513
510
503
499
503
510
510
506
511
518
521
519
522
520
518
517
522
525
522
519
516
515
512
509
510
516
522
519
516
519
522
516
512
513
514
511
504
497
491
485
482
478
474
469
472
477
480
475
473
474
471
460
459
463
467
468
470
469
470
471
467
466
461
455
456
468
471
466
468
471
474
474
473
471
469
470
470
471
473
470
468
467
470
471
476
470
460
458
463
471
477
487
494
491
484
475
468
465
464
462
464
464
462
462
463
466
468
464
461
459
468
471
468
468
467
469
479
487
490
489
496
514
540
568
600
637
671
708
741
772
790
806
829
842
841
835
837
844
852
852
847
830
812
783
747
715
696
683
674
669
661
643
613
580
553
523
485
446
413
394
387
389
403
418
431
438
443
441
436
435
440
450
454
454
467
484
487
483
475
462
446
440
443
445
446
443
443
442
441
444
448
441
436
435
437
443
450
449
445
443
438
436
437
434
434
437
437
444
450
453
453
447
440
442
443
444
452
453
452
449
450
453
450
446
444
447
447
449
453
463
464
465
469
467
460
456
456
455
454
453
453
457
458
465
472
477
479
475
474
475
480
480
477
479
482
480
480
482
485
485
481
481
484
486
484
487
490
493
495
495
497
501
505
504
494
488
490
496
501
497
491
498
510
519
512
504
505
510
516
518
521
519
513
509
512
515
522
527
526
522
519
512
510
515
524
534
539
543
544
539
534
531
536
542
540
537
536
543
551
551
552
555
561
572
575
577
583
581
574
568
563
562
563
563
562
564
567
570
572
568
567
563
555
561
574
586
591
587
583
573
572
572
575
571
567
568
567
567
569
571
565
561
551
547
549
548
544
542
540
542
541
534
526
519
519
525
526
519
512
512
509
508
508
507
506
504
497
489
486
485
479
475
478
476
474
470
462
458
457
454
451
448
443
435
437
440
438
432
426
422
420
419
420
420
416
412
415
419
424
431
427
418
414
410
413
417
419
417
421
428
430
421
409
407
408
410
414
411
412
420
431
429
411
399
397
401
401
397
399
402
406
412
414
416
414
415
420
427
426
414
406
412
417
426
430
423
423
423
422
425
431
434
438
446
446
442
436
432
429
431
435
439
447
448
444
434
434
439
447
450
450
449
444
441
440
440
441
443
447
451
447
445
443
444
444
445
450
455
458
456
456
459
459
457
454
453
455
457
454
444
439
452
461
464
467
465
462
464
466
466
464
465
466
466
467
468
467
466
462
457
458
463
467
467
466
464
467
470
477
478
474
472
475
477
477
481
482
474
470
468
471
474
473
473
475
482
487
480
465
459
461
469
477
474
470
462
456
453
459
467
474
472
473
468
466
462
465
467
467
469
473
474
474
472
466
471
479
476
468
463
467
470
472
474
478
484
482
478
468
467
470
468
465
464
465
465
459
462
473
472
474
475
476
477
473
471
473
477
481
482
481
480
480
474
469
468
467
462
459
463
470
475
478
481
475
469
474
481
487
487
481
478
475
478
480
473
472
474
474
470
469
475
480
482
478
474
473
474
473
477
481
480
479
481
479
479
475
471
473
473
475
476
477
475
474
480
487
489
491
493
488
490
496
499
491
481
477
470
462
457
458
462
466
468
466
462
466
470
478
482
480
477
475
471
468
471
473
477
477
474
473
477
482
482
480
478
469
470
479
487
486
484
482
489
492
484
483
486
482
477
479
482

484
482
483
484
480
474
473
470
469
75
474
473
477
480
480
478
477
476
476
474
473
475
475
475
477
483
484
482
483
484
480
474
473
470
469
471
477
476
476
481
482
481
482
482
482
484
488
479
468
473
476
473
471
467
473
480
483
475
473
470
471
479
489
496
494
496
495
484
478
482
484
487
483
480
479
485
491
494
495
494
496
496
494
497
501
505
508
507
503
504
502
503
501
500
502
503
498
493
492
495
502
509
511
515
512
514
516
514
511
511
513
510
510
506
511
515
517
512
511
512
510
508
506
502
503
504
503
508
507
497
487
482
481
488
504
507
492
471
456
454
458
459
463
468
458
454
457
460
461
467
470
471
465
463
463
462
462
465
467
469
472
472
468
468
474
483
479
468
463
464
465
464
465
461
460
463
465
465
466
471
475
477
478
480
480
477
474
469
467
464
462
466
462
457
460
459
455
454
453
451
454
457
461
460
460
464
471
480
489
501
502
499
514
536
567
593
618
645
675
710
744
771
790
808
820
830
832
835
843
843
843
835
817
805
780
750
719
680
655
643
630
609
583
559
531
512
484
454
434
426
426
433
436
442
453
465
477
475
463
440
422
419
427
426
430
442
450
455
467
479
486
487
488
475
469
473
477
466
455
462
466
470
463
449
434
427
428
428
434
433
424
426
429
427
430
432
434
437
442
447
446
444
445
445
450
454
458
459
455
448
442
441
443
450
452
449
448
449
451
456
466
472
476
477
481
482
485
490
496
491
482
481
469
462
459
466
482
487
475
461
462
474
488
491
496
496
476
465
466
471
475
478
477
478
487
496
501
505
506
497
504
512
515
512
509
505
504
506
507
512
521
525
513
498
497
506
515
509
506
508
517
524
524
511
507
509
508
506
511
517
522
524
524
526
531
536
539
543
545
545
546
538
534
538
544
545
543
542
545
545
542
543
549
558
569
571
569
565
566
574
582
585
592
588
583
574
568
570
573
570
565
568
570
571
564
565
564
564
560
562
567
573
574
568
562
558
555
555
558
555
551
550
546
540
534
533
534
537
539
539
536
532
531
531
534
530
525
520
517
519
521
508
500
501
506
508
491
484
485
494
498
495
491
488
482
477
475
469
460
448
442
449
455
453
447
441
428
422
430
439
436
430
432
429
417
408
405
407
414
416
416
415
420
412
402
413
427
425
414
408
408
408
415
421
427
427
423
415
416
418
415
409
408
410
412
419
418
416
413
415
413
413
408
403
408
407
408
407
404
396
395
399
405
422
435
443
447
447
444
446
445
448
457
460
460
459
453
451
447
439
435
437
441
437
433
436
438
442
444
442
443
441
434
437
443
447
450
445
443
445
452
455
455
454
455
451
444
444
446
450
453
455
455
457
456
449
444
450
459
462
458
452
453
458
460
463
461
464
466
472
473
472
468
463
456
447
453
463
470
470
469
469
477
475
471
472
466
459
459
465
464
465
467
470
468
468
466
463
462
463
471
475
479
478
482
481
477
475
476
472
470
473
480
480
479
473
472
468
467
472
470
469
473
476
471
472
481
484
482
475
472
468
468
465
461
459
464
466
468
473
474
481
479
472
469
469
474
481
482
483
482
480
483
481
478
477
469
472
470
469
469
474
470
467
469
474
471
469
471
474
473
475
479
479
475
474
473
472
472
473
476
482
484
479
470
467
466
464
463
466
469
474
477
473
471
473
478
482
479
476
477
479
476
477
480
479
476
474
474
482
480
473
468
469
474
477
475
471
471
471
473
470
467
468
473
473
473
476
479
478
477
465
456
459
473
483
483
481
482
483
485
481
481
482
483
484
479
481
482
484
484
479
477
482
488
489
485
479
483
482
480
480
480
480
479
477
478
482
491
494
489
484
481
481
482
482
485
489
486
483
475
469
471
474
480
481
487
497
501
487
480
489
500
496
485
485
487
490
494
495
494
493
492
496
496
493
492
495
501
506
513
515
513
509
515
521
525
527
529
522
511
509
515
523
526
523
522
518
517
515
512
508
507
510
515
515
511
498
495
486
478
475
476
476
476
473
473
476
482
477
472
471
471
473
474
479
477
471
467
466
472
479
481
478
472
467
468
467
463
457
465
476
483
487
490
492
485
476
469
470
470
475
480
481
477
478
489
487
477
468
464
465
470
479
483
482
478
477
472
466
460
456
458
463
465
470
471
469
470
474
470
460
452
454
460
460
458
461
463
465
468
479
490
496
498
501
519
544
569
598
630
660
686
711
738
762
786
814
834
843
832
826
834
838
842
839
833
817
792
762
726
689
664
651
645
630
617
599
565
530
497
468
438
411
396
391
399
409
417
426
435
444
441
435
434
439
445
447
451
460
467
467
467
468
469
465
461
465
463
464
468
467
462
453
447
440
436
440
444
449
442
443
445
448
456
461
460
457
462
466
465
462
461
458
449
449
450
451
451
452
456
464
465
464
464
460
462
458
456
459
463
462
460
455
449
453
461
466
464
461
463
466
472
484
490
496
505
498
484
472
476
471
466
464
460
462
467
473
474
479
483
488
488
485
478
479
483
492
497
500
506
505
498
497
502
496
494
498
501
503
504
502
500
498
498
498
502
504
505
508
510
506
504
506
505
508
513
518
521
519
521
525
525
522
522
525
525
524
526
529
524
523
526
531
527
529
531
535
537
544
560
566
566
561
552
553
559
565
569
565
560
559
567
572
564
557
560
565
557
546
550
560
562
559
555
562
567
575
581
585
586
585
582
577
577
575
568
563
565
565
561
559
557
551
543
545
553
554
549
544
545
548
547
541
533
529
531
530
526
520
513
512
516
526
525
513
510
512
508
501
494
487
485
483
479
481
482
475
465
464
459
454
452
448
446
445
444
442
440
439
431
425
429
433
427
420
423
422
417
415
411
411
416
419
422
425
427
430
433
425
409
401
400
405
412
417
419
417
416
417
402
393
392
393
388
394
411
415
412
414
409
404
404
407
409
410
413
411
415
422
422
420
414
420
423
425
429
429
421
416
412
407
408
418
436
446
452
453
452
441
435
442
443
450
454
457
449
442
431
434
437
437
436
436
440
439
442
446
454
458
459
461
460
450
435
433
443
452
456
460
460
457
457
457
454
454
457
459
460
459
457
454
456
465
466
459
453
463
470
474
472
471
468
467
470
472
475
472
475
469
458
459
468
473
470
469
466
467
468
468
471
471
466
463
464
464
465
465
466
471
473
471
471
467
464
468
472
474
476
474
472
473
473
472
469
469
468
467
469
471
471
467
466
475
475
476
479
476
469
464
462
462
466
473
478
470
472
471
473
475
475
468
460
461
462
468
469
464
462
467
473
472
470
469
471
471
473
474
473
474
472
473
477
481
478
479
478
471
464
467
469
473
478
477
478
479
483
474
467
471
475
476
474
470
468
467
472
475
477
479
479
480
483
478
472
469
471
476
478
474
470
474
479
478
483
486
486
490
489
484
479
478
473
467
468
467
460
459
462
464
467
471
473
471
474
478
478
482
477
478
484
488
487
485
483
483
487
482
482
479
481
483
479
476
475
478
483
489
489
484
487
488
489
485
480
477
476
477
477
475
474
475
477
476
478
478
478
478
480
488
491
495
496
495
490
482
482
485
490
499
505
495
492
498
500
502
500
503
511
514
512
513
516
518
519
520
525
525
520
515
515
518
519
517
518
519
515
513
516
520
516
514
507
498
486
479
479
480
478
475
473
473
475
478
474
475
478
480
478
473
473
478
478
471
469
469
468
465
461
450
451
459
473
481
483
484
482
483
481
484
493
497
486
479
474
473
474
478
483
475
467
467
466
462
460
462
463
465
469
475
476
477
475
470
473
474
477
475
476
479
480
479
480
474
472
475
473
465
465
469
468
466
468
466
461
460
460
466
469
477
489
498
508
510
520
539
568
592
613
651
692
724
753
778
806
828
838
838
832
825
828
833
833
835
831
819
798
769
730
694
665
653
637
616
600
578
548
513
479
442
412
393
385
384
385
390
396
415
437
439
429
432
443
448
448
454
460
468
474
479
476
473
473
471
470
470
471
469
473
474
472
467
463
463
459
455
460
456
456
457
462
460
454
448
446
450
451
453
455
460
462
464
464
466
465
466
465
463
463
462
458
454
452
464
467
465
468
466
463
465
466
465
470
475
472
468
468
468
469
474
478
476
471
469
472
471
469
472
477
478
477
479
481
483
485
485
485
480
481
484
487
488
493
496
498
499
500
500
497
494
487
482
483
492
496
505
511
501
491
491
491
494
495
500
508
514
519
512
509
512
519
524
521
516
514
519
524
526
523
523
534
533
532
528
532
538
540
540
538
541
544
549
549
547
549
550
545
548
553
553
553
557
559
553
550
555
561
564
564
564
572
580
576
578
584
580
567
559
559
568
580
588
590
579
564
561
559
562
565
565
572
574
572
564
554
551
557
565
565
562
559
557
559
554
552
556
554
544
540
541
540
535
532
532
535
527
519
515
513
515
517
519
512
505
501
501
499
493
486
487
483
474
472
476
473
463
458
460
460
455
451
450
450
447
444
443
441
439
438
436
434
434
430
426
428
429
422
416
416
418
422
425
423
416
415
417
410
404
402
405
411
413
414
421
423
415
411
410
408
411
412
410
414
410
409
413
417
419
418
417
419
419
427
428
425
425
431
439
443
432
424
422
418
415
417
426
430
426
423
425
426
429
433
435
437
436
434
430
426
431
440
446
446
442
446
450
447
443
447
447
444
445
452
447
450
455
454
456
453
448
443
445
450
451
456
456
459
461
461
464
466
464
460
457
455
458
462
465
463
463
463
467
464
465
470
473
474
471
468
464
470
472
466
463
470
475
476
474
471
467
466
464
463
460
467
472
467
466
471
476
483
484
479
476
475
474
475
477
476
477
480
478
472
475
481
485
487
486
478
466
458
455
459
465
468
471
470
466
469
473
478
479
478
477
472
469
473
474
474
477
481
485
481
476
475
468
466
467
467
471
478
479
478
478
480
482
482
475
471
475
478
482
487
485
484
487
491
488
480
469
466
465
466
469
476
478
479
481
481
481
476
472
470
471
471
470
471
474
478
476
476
474
481
488
487
484
481
478
483
484
483
482
483
480
478
475
473
470
467
473
483
484
479
479
479
470
467
471
474
473
480
485
484
483
485
478
475
477
481
481
475
472
467
466
468
472
476
477
486
494
489
485
483
479
478
478
481
479
483
488
491
494
497
497
498
494
492
494
495
498
499
491
485
492
503
505
509
505
498
498
498
498
499
500
506
511
516
526
532
533
528
524
524
520
520
524
520
516
515
515
518
523
521
515
509
497
485
484
484
482
480
480
482
482
480
475
473
473
476
475
470
468
469
469
468
468
469
465
466
467
468
468
469
471
473
479
481
477
474
479
479
473
462
454
458
463
468
474
475
471
469
472
471
471
471
467
470
475
476
473
472
471
470
465
467
470
470
469
469
468
467
468
475
479
481
481
476
470
468
466
460
461
461
464
463
459
469
478
478
477
480
482
483
484
490
497
509
526
544
563
587
616
651
682
714
736
759
784
811
830
838
834
827
825
827
826
816
822
813
772
720
678
651
640
625
611
587
550
525
500
465
428
393
375
368
365
365
378
393
403
410
415
421
429
439
445
447
443
444
451
455
458
465
471
478
480
477
476
472
467
464
467
472
476
472
469
470
469
462
461
466
466
464
461
459
461
464
467
470
473
472
468
467
467
457
453
452
454
455
461
463
463
463
459
462
466
467
469
468
469
470
471
469
468
467
472
468
465
471
480
484
483
480
481
481
479
478
486
483
474
464
463
470
477
483
487
491
494
492
496
499
496
493
490
487
486
486
485
483
488
491
491
492
492
490
494
502
505
505
508
513
514
515
517
520
521
518
512
506
503
508
510
513
516
521
521
522
527
526
525
523
526
530
538
545
543
544
542
544
543
539
538
540
546
548
550
551
551
552
554
556
554
552
557
563
564
567
568
567
566
564
564
560
559
564
574
580
583
579
580
578
580
581
579
578
578
579
576
574
570
564
558
560
570
578
579
576
567
566
561
548
542
540
541
544
543
538
537
543
542
539
534
532
532
526
527
530
531
526
520
519
516
513
508
501
497
493
488
486
479
476
471
471
468
467
467
467
465
463
457
452
445
445
446
449
447
443
438
433
430
432
429
426
419
420
422
415
414
418
419
412
408
410
412
412
413
415
413
413
413
418
422
421
412
409
411
418
424
421
415
412
407
410
416
421
421
419
415
415
412
415
415
415
419
423
421
414
404
406
409
408
404
405
416
422
419
421
424
427
424
419
415
418
423
429
435
437
434
434
433
434
431
431
434
436
431
427
426
430
439
444
442
442
442
442
445
447
449
454
456
458
455
452
449
445
444
452
458
458
454
453
454
460
465
453
443
439
445
456
461
459
458
457
462
468
471
470
468
464
464
466
463
457
458
466
473
475
472
468
470
474
473
471
478
478
475
474
476
479
474
468
470
475
483
482
477
476
477
473
467
465
464
463
464
469
474
469
467
473
474
475
473
469
467
463
462
459
460
465
460
468
474
473
471
474
473
470
470
470
471
471
468
469
474
478
477
476
477
477
472
469
464
460
464
469
475
472
473
477
481
478
476
474
475
477
477
473
471
470
465
463
466
469
468
466
468
473
476
476
474
474
473
475
477
476
473
472
467
470
473
475
475
478
474
474
471
466
467
468
467
467
468
474
474
472
473
475
478
470
465
471
476
476
478
478
474
471
476
480
483
478
471
463
462
464
470
476
477
478
487
485
483
478
476
475
474
475
480
473
468
469
472
474
472
474
471
471
474
471
468
473
476
476
471
476
486
487
492
494
487
487
491
497
490
484
483
488
488
487
486
488
493
501
506
508
508
505
506
506
509
508
510
512
517
514
511
515
517
517
512
509
507
506
506
505
504
505
507
506
500
489
484
484
479
475
479
481
479
477
475
474
476
479
476
472
470
460
457
462
469
470
471
475
471
468
465
468
474
477
475
474
477
468
459
456
450
454
460
467
474
474
470
466
465
465
471
471
465
461
469
474
476
474
473
468
469
469
469
468
469
463
462
465
465
471
476
473
472
476
479
476
470
464
459
461
461
459
459
457
458
457
451
452
460
468
481
490
492
493
496
512
535
569
599
626
657
685
713
737
762
785
804
822
832
834
833
839
842
849
855
845
824
795
761
722
687
667
657
639
619
600
570
541
512
477
442
418
404
396
394
400
402
407
413
421
422
421
421
428
436
440
449
454
458
463
466
465
464
466
464
464
463
463
464
462
456
449
447
448
450
448
447
446
443
448
449
450
453
453
451
450
451
454
458
462
461
459
462
458
451
449
453
453
455
461
461
450
441
439
441
448
455
459
461
463
464
465
464
463
465
459
456
462
468
465
463
466
467
471
478
481
480
479
478
476
474
471
477
481
484
487
482
479
478
483
489
488
487
487
487
488
486
487
487
490
492
493
496
498
494
491
491
495
495
496
498
497
498
500
504
503
501
503
503
499
499
502
510
512
508
506
507
513
519
521
521
529
532
531
530
534
540
539
534
530
527
525
527
531
537
544
541
538
543
556
558
554
556
561
562
553
548
550
553
554
550
552
554
557
562
565
557
549
550
550
553
558
567
580
585
585
587
584
575
570
573
573
564
553
548
543
549
558
556
555
551
553
556
549
543
542
542
535
534
532
530
528
529
532
528
523
520
514
512
515
520
518
516
514
507
494
486
479
477
475
474
473
473
471
468
464
461
458
450
441
441
437
437
439
435
429
428
428
424
424
424
425
426
425
419
414
411
411
411
407
407
415
428
430
418
413
410
405
407
408
408
410
412
416
414
411
410
410
410
410
414
416
414
416
416
411
410
413
411
415
415
417
419
419
418
421
427
432
427
418
414
413
416
422
426
427
427
428
429
432
430
425
425
431
439
444
444
447
443
436
438
435
434
438
441
440
437
433
432
433
435
436
438
438
441
447
454
455
458
458
459
455
448
446
444
444
445
450
458
458
456
455
450
453
454
452
452
455
457
459
457
456
459
463
465
467
472
470
467
461
464
462
455
455
455
458
460
461
463
467
466
466
465
462
459
459
458
457
459
465
470
475
472
469
466
466
470
470
469
466
467
472
477
474
466
458
461
476
489
496
497
495
489
482
475
463
459
458
459
463
467
467
467
467
469
473
475
474
468
463
456
462
468
469
467
463
463
470
473
468
466
470
471
469
463
467
474
477
471
476
482
477
470
458
454
449
448
449
455
466
470
471
477
481
477
472
474
475
472
467
468
472
474
473
472
467
467
469
468
465
465
469
470
469
468
466
467
469
475
470
466
469
473
474
478
477
472
470
468
470
475
473
474
473
476
473
469
468
469
474
474
478
484
484
476
471
464
463
466
470
470
472
474
475
480
485
486
481
476
471
467
470
474
471
472
470
469
470
471
473
474
478
481
482
480
484
480
480
485
491
489
480
477
473
469
470
472
479
487
488
487
485
485
485
487
486
484
483
486
494
506
503
503
504
495
488
494
499
502
511
525
523
515
515
521
517
508
503
511
516
512
507
508
509
510
507
509
504
496
489
485
480
477
478
480
480
479
477
475
476
475
473
468
465
466
467
465
462
465
469
472
468
455
449
453
463
466
467
473
474
475
475
472
466
467
471
470
470
470
472
471
471
473
474
471
470
469
470
476
476
475
475
473
469
465
464
469
477
480
477
481
482
485
484
478
465
454
453
459
454
453
455
446
442
446
454
457
448
445
455
462
468
468
477
490
487
479
477
484
504
529
558
595
635
668
705
734
760
786
809
835
844
839
830
827
831
840
852
851
835
817
790
759
722
689
674
666
649
634
620
599
572
541
506
462
422
397
384
386
398
407
415
422
431
434
437
436
438
445
452
458
464
468
473
469
469
466
465
464
461
457
458
458
457
453
448
445
444
447
448
446
444
444
446
446
450
451
449
449
449
448
447
446
443
444
445
449
446
446
449
450
447
451
459
460
463
466
464
457
456
463
462
455
450
453
458
463
463
466
472
476
471
468
473
474
467
461
457
452
448
448
448
457
468
476
478
476
476
485
491
490
490
489
490
485
483
485
490
492
491
481
479
482
494
503
504
500
498
493
492
495
500
501
505
509
505
505
510
509
502
497
496
503
505
506
509
510
509
506
504
499
503
508
508
514
518
525
527
526
522
523
526
525
524
523
529
532
534
533
531
539
551
555
553
550
549
549
550
553
557
556
558
558
555
556
558
559
564
568
571
574
572
569
566
568
571
577
576
564
555
562
569
567
560
555
559
564
567
565
564
568
572
570
557
546
539
541
545
545
544
543
541
536
532
530
533
537
540
527
517
514
519
527
533
526
513
508
498
493
493
495
493
493
491
488
485
475
468
469
467
463
462
463
461
463
462
460
457
453
451
451
446
441
442
438
431
421
417
415
411
413
416
416
416
414
414
408
412
419
420
416
411
411
408
409
410
409
406
403
403
410
415
411
409
411
409
406
406
405
406
410
411
414
418
422
427
425
424
423
415
410
412
422
427
430
436
438
436
431
423
423
422
419
420
424
428
430
434
435
439
441
442
438
440
438
441
443
443
445
442
442
441
441
438
434
434
431
434
442
449
458
460
458
459
464
460
458
463
470
468
459
452
453
452
448
454
459
462
468
469
458
455
456
459
466
467
465
466
467
464
466
464
454
452
457
461
464
469
474
475
467
468
472
468
464
464
463
462
464
464
460
457
454
451
458
471
476
478
483
483
475
472
472
474
474
476
475
474
475
473
472
467
467
469
469
470
473
476
479
481
481
480
477
474
472
472
466
463
464
464
466
470
470
466
468
475
481
473
466
457
459
460
462
464
472
479
481
478
477
478
481
483
477
466
461
463
463
461
465
471
477
478
475
475
480
483
483
481
479
475
471
467
467
470
475
473
471
473
483
482
476
475
471
462
465
468
464
465
466
465
466
467
468
469
471
475
483
486
487
484
484
488
487
485
483
480
465
462
464
468
473
470
467
465
469
468
468
473
477
481
490
487
476
472
476
472
470
471
476
478
472
473
480
486
481
476
471
471
475
478
480
479
479
477
477
477
481
484
481
480
479
481
484
490
491
485
480
479
477
474
472
470
473
475
478
480
480
479
474
473
473
477
482
484
485
490
494
489
483
479
488
498
504
507
505
491
486
483
487
490
492
495
484
483
489
493
500
507
508
511
515
515
517
519
516
513
514
515
513
513
512
512
506
500
495
492
495
506
511
509
514
517
510
500
492
484
482
482
483
484
480
479
481
482
477
473
468
465
463
468
474
474
473
471
472
475
471
469
475
475
470
465
464
466
466
470
474
476
472
467
463
465
469
467
469
471
472
470
466
471
473
468
466
464
463
468
472
468
469
469
471
467
462
465
468
461
458
468
479
478
474
469
465
464
468
467
465
470
471
465
462
460
459
464
464
468
467
460
464
478
487
483
496
527
548
566
590
623
657
689
723
757
788
815
836
849
854
847
843
847
853
863
870
858
832
799
766
730
692
671
661
648
635
617
593
554
517
483
446
415
396
386
387
395
400
407
421
432
437
440
439
444
453
461
458
459
463
469
474
474
466
457
456
454
450
452
456
454
451
458
459
455
457
459
456
455
451
448
450
455
448
440
437
439
441
446
454
460
455
450
445
454
450
452
457
456
455
452
452
451
451
449
453
457
466
468
464
460
460
462
462
464
462
459
463
461
454
456
464
474
481
481
480
481
479
478
480
481
484
486
490
481
474
469
472
477
478
479
481
483
490
489
482
477
483
489
489
495
492
490
494
499
504
506
504
502
506
503
501
499
494
492
498
504
502
500
501
500
501
504
509
511
515
517
522
516
513
515
525
526
521
521
523
526
526
533
541
545
548
548
546
546
548
551
549
550
555
558
559
555
552
551
555
564
567
571
582
581
573
571
573
573
570
571
573
573
575
572
572
577
577
578
574
570
575
579
577
571
570
571
572
572
569
568
565
560
560
557
550
547
549
550
549
546
542
541
548
557
559
560
555
543
535
532
532
528
521
515
516
518
517
511
504
506
516
519
511
495
479
466
463
462
455
458
467
471
461
452
449
445
440
437
440
437
433
433
436
432
433
431
425
420
416
417
419
422
428
426
420
415
410
409
408
408
411
415
421
420
425
431
429
420
414
408
405
408
411
411
410
411
413
417
425
423
417
408
405
405
410
420
425
421
415
418
418
415
412
416
424
428
428
425
426
426
425
429
425
421
420
424
426
428
432
432
430
424
423
431
440
442
443
443
442
444
447
448
446
444
443
446
449
448
447
453
456
455
455
453
460
461
458
455
454
457
457
457
464
469
471
469
472
469
472
472
463
454
448
445
448
457
460
461
465
469
469
464
460
462
464
465
470
477
481
479
480
478
472
465
461
461
472
474
471
472
476
476
474
474
473
471
474
473
471
470
468
467
466
470
470
470
472
476
472
472
475
475
474
473
475
476
477
475
476
472
471
468
470
471
476
476
471
470
474
473
474
481
487
481
473
468
470
475
479
480
480
477
477
474
468
466
465
469
476
477
473
465
469
479
487
481
465
464
470
472
471
473
479
483
485
489
487
484
480
474
471
467
470
468
472
478
481
478
483
490
491
484
476
471
474
479
482
490
486
488
485
486
488
479
470
468
467
468
468
470
469
467
473
477
482
488
481
471
468
469
472
474
475
478
485
489
484
476
476
479
480
481
479
478
476
480
477
478
481
486
487
485
476
471
472
474
480
484
482
482
483
483
481
482
480
477
475
475
477
478
485
485
482
482
480
479
478
481
483
483
481
484
483
484
483
481
483
485
484
485
483
481
480
482
482
475
472
470
471
474
482
487
482
478
478
486
494
496
496
490
487
491
485
482
495
507
514
521
522
519
516
509
500
498
494
492
490
485
489
494
502
508
504
498
496
493
495
505
516
520
520
519
517
517
515
513
512
512
518
521
525
525
525
523
514
509
508
511
515
515
515
515
512
510
497
482
478
480
479
477
478
484
486
486
485
480
474
472
472
473
473
477
474
473
470
468
468
468
466
466
474
479
477
476
477
479
476
475
476
474
479
481
481
476
473
472
466
467
472
473
476
479
477
477
480
481
481
475
476
476
477
476
475
475
471
469
467
471
476
483
488
485
477
474
472
467
465
468
474
471
467
467
469
463
462
472
484
493
491
493
504
522
547
571
591
622
655
692
726
753
781
802
823
840
846
839
835
845
858
861
855
844
832
807
776
735
697
670
656
634
612
596
572
546
518
477
428
399
388
384
386
393
403
414
426
434
440
444
443
436
434
440
449
456
459
460
460
462
464
471
471
468
469
470
468
470
469
468
464
461
465
464
457
448
446
446
446
447
451
455
456
456
456
454
455
450
452
451
449
448
449
455
458
452
446
447
451
455
457
459
459
461
464
467
467
461
455
455
454
459
466
470
469
463
463
464
471
474
475
483
486
483
476
472
474
481
484
486
490
489
487
484
489
492
489
484
486
486
486
488
490
487
487
489
488
486
492
501
503
504
501
498
499
498
495
497
498
499
497
501
506
513
517
521
525
528
525
530
525
511
508
514
521
521
519
520
516
515
519
522
520
524
531
536
538
542
542
539
546
549
549
550
549
549
553
555
556
557
558
557
558
554
555
560
565
567
568
567
572
574
570
564
562
566
565
564
558
560
565
574
578
576
577
575
573
573
572
570
564
564
565
566
566
570
570
561
553
551
551
555
556
552
547
540
540
541
540
540
538
532
527
528
528
528
527
524
523
520
513
508
510
502
495
494
494
487
477
473
473
471
467
463
462
462
451
441
442
451
459
463
470
469
459
450
442
433
431
430
426
421
421
426
430
431
434
432
424
419
412
407
406
409
409
413
412
420
422
419
423
419
412
407
408
412
415
417
414
414
419
422
425
424
419
421
425
421
417
415
414
411
409
413
423
426
428
425
424
427
430
431
433
436
439
439
436
436
437
439
437
433
432
434
437
436
438
436
434
435
439
441
444
445
442
439
438
441
447
454
451
451
451
455
462
463
459
462
458
456
458
458
456
458
458
455
459
462
466
467
468
468
467
468
474
474
472
464
461
462
464
470
472
464
466
476
475
477
481
488
487
470
454
450
461
472
470
465
467
469
464
459
454
459
466
474
475
477
480
484
483
483
487
489
486
480
476
473
466
464
467
466
465
468
480
482
472
472
475
474
477
476
469
466
468
475
477
476
476
478
483
485
475
464
460
462
469
477
480
478
478
481
474
472
474
472
471
471
469
467
469
467
464
462
464
473
481
480
479
484
481
480
477
478
481
479
473
471
471
472
468
469
471
473
474
473
473
472
469
470
469
472
472
471
474
481
481
484
488
488
487
489
485
481
482
484
483
482
477
469
462
463
464
468
474
474
471
475
475
477
480
483
482
475
474
471
474
475
480
482
482
478
473
474
477
483
485
481
477
482
479
473
474
468
466
473
477
475
474
479
479
477
479
480
476
473
475
473
471
472
473
475
478
484
488
487
483
483
483
483
481
481
479
474
473
473
481
488
487
479
475
482
492
494
492
494
496
496
493
489
492
492
490
493
498
503
502
498
494
496
498
497
498
497
495
496
494
494
496
501
505
511
517
519
514
513
520
520
520
524
522
519
521
520
515
507
506
507
505
505
504
508
510
507
499
495
498
503
498
488
488
490
486
477
473
474
474
477
482
481
478
480
480
479
475
469
466
467
466
468
468
470
467
461
466
471
474
475
473
470
469
475
477
470
462
455
454
459
469
476
478
477
477
480
485
491
495
490
492
484
464
453
457
463
464
468
477
478
479
479
480
485
481
483
477
474
472
467
465
463
467
471
469
471
470
466
466
469
477
491
500
502
501
503
515
531
552
573
593
618
647
676
707
738
764
787
810
833
841
838
831
831
836
841
837
831
800
765
729
691
653
633
614
598
581
559
535
510
482
441
405
385
375
372
376
388
401
407
415
421
424
431
431
437
446
449
451
460
469
469
471
469
459
459
467
474
478
471
466
465
462
463
468
470
468
462
459
465
469
469
465
464
460
465
463
456
456
458
454
452
453
455
452
453
457
461
461
463
467
466
462
462
461
457
460
461
458
455
456
460
464
467
468
471
471
472
473
474
474
476
478
481
482
480
476
477
478
480
484
486
488
486
486
487
483
482
480
479
485
493
493
493
485
485
485
489
492
491
489
490
499
505
505
504
505
505
502
500
503
501
503
505
512
517
521
519
515
515
514
512
511
509
507
510
518
525
529
533
535
537
539
536
543
553
549
538
533
534
535
540
544
539
544
560
564
560
549
550
551
554
556
557
562
568
572
573
572
578
577
569
565
566
571
574
575
574
577
580
582
577
568
559
563
573
576
578
579
581
581
575
573
569
571
572
569
567
563
557
553
547
550
549
549
552
554
552
553
555
548
535
529
528
529
527
527
521
516
514
514
507
507
508
504
496
492
493
488
481
478
477
476
472
470
468
465
459
453
451
451
450
447
448
446
444
442
439
435
438
437
433
428
418
412
409
412
413
417
415
413
418
428
428
421
415
405
400
397
400
401
402
403
406
411
415
415
412
405
410
414
411
409
414
416
417
418
413
410
412
408
406
409
414
417
412
405
399
397
399
405
415
418
422
424
430
429
433
423
418
421
431
432
431
435
433
429
432
435
431
429
432
437
438
442
446
444
440
439
438
437
437
433
435
440
443
448
447
444
446
449
453
453
453
454
457
458
461
461
459
452
444
443
446
454
455
455
458
458
460
460
462
461
461
460
462
466
470
461
454
456
464
470
466
464
463
465
467
469
466
465
466
469
471
476
480
484
487
486
481
476
472
472
473
471
471
468
465
465
469
476
476
473
476
481
478
476
481
484
481
475
468
456
455
464
469
468
464
466
475
483
485
487
488
490
483
474
472
473
478
473
466
466
467
464
465
473
479
477
475
475
482
483
478
475
474
474
474
468
464
465
466
466
467
475
479
474
468
470
468
469
468
468
469
469
469
464
463
464
470
474
472
467
462
464
468
469
467
467
473
476
473
471
469
471
475
473
472
473
473
477
473
469
467
471
480
480
471
471
472
470
469
471
473
472
475
479
482
482
484
485
485
481
476
473
473
478
475
467
465
472
479
478
479
482
486
482
481
484
487
487
482
484
486
482
471
472
471
469
468
475
485
489
492
490
489
489
486
476
468
466
465
468
473
477
480
479
479
482
479
478
481
483
481
483
488
489
486
486
486
499
509
505
493
485
487
487
488
493
500
499
503
506
507
508
507
501
505
510
511
515
520
513
509
509
509
507
505
504
510
512
507
507
509
508
496
489
485
482
485
487
489
484
481
477
474
477
479
482
481
474
470
470
466
465
464
466
469
467
467
470
472
471
469
472
469
467
467
467
471
472
468
472
475
475
472
470
470
470
470
468
469
473
475
475
475
474
479
474
464
457
460
469
477
480
478
469
462
459
462
465
471
473
468
462
462
467
468
469
466
467
470
466
461
459
455
451
452
454
458
466
469
474
481
490
509
527
548
581
616
648
684
714
736
761
789
822
845
853
850
849
851
852
858
863
852
835
811
776
735
699
674
666
653
637
619
592
561
524
490
451
416
396
393
390
394
399
407
418
427
430
428
429
429
432
436
441
447
455
465
469
471
474
476
476
476
474
465
460
464
462
455
450
447
447
447
451
453
453
456
457
455
448
443
439
437
441
447
449
455
456
453
447
446
450
453
453
455
452
447
445
453
453
451
448
450
453
457
460
460
454
455
458
462
464
465
463
461
462
453
447
456
476
487
486
481
475
476
476
471
473
475
478
482
487
485
485
487
490
488
482
478
480
486
487
488
485
489
493
495
496
499
500
497
498
500
503
502
502
502
501
503
504
506
504
504
509
512
510
507
509
514
516
511
512
517
519
514
512
516
520
526
526
525
523
522
524
527
529
533
534
536
538
539
538
543
549
551
549
552
553
542
541
550
555
557
557
560
562
564
567
571
577
573
568
564
567
570
572
573
572
570
572
571
573
577
582
579
575
575
573
571
569
570
572
566
559
553
556
557
559
560
555
548
547
547
539
534
531
535
537
538
541
545
543
540
531
517
511
512
512
505
502
502
502
496
490
490
489
484
479
472
469
469
471
472
465
456
450
441
435
433
429
430
432
437
435
431
426
425
425
426
429
426
420
412
412
414
416
414
409
404
405
407
406
406
404
403
405
410
409
406
406
407
411
416
413
410
408
409
408
411
412
412
411
411
414
412
412
410
407
411
419
420
419
419
419
422
427
429
427
420
414
414
419
421
420
415
411
417
429
434
436
440
435
429
429
432
434
440
447
445
441
438
432
431
449
453
453
451
450
447
450
453
451
448
446
445
448
445
447
453
451
444
444
452
451
451
453
458
462
462
463
470
470
463
451
455
462
458
452
446
446
451
454
457
461
463
466
468
464
462
464
469
467
466
464
464
461
460
459
465
467
464
459
463
466
468
469
470
474
476
478
483
487
489
480
466
463
464
465
463
465
467
463
459
460
469
475
472
478
482
480
479
480
479
479
477
474
474
475
476
477
475
476
475
474
472
471
474
476
474
473
475
470
472
476
477
473
472
474
476
477
477
478
474
469
469
471
470
469
472
474
475
464
464
467
474
479
481
479
478
476
477
473
465
462
464
471
478
477
475
476
480
479
466
457
454
453
458
460
467
481
486
489
483
472
459
460
464
465
466
472
471
474
472
474
476
476
477
478
479
482
479
478
480
482
475
467
468
470
471
469
471
473
476
475
475
468
464
470
474
480
481
479
474
473
478
482
477
470
467
472
475
473
472
476
477
472
470
472
474
477
474
474
475
478
479
480
478
472
474
478
476
472
472
471
474
478
480
483
483
484
481
479
478
479
479
481
478
477
477
477
480
478
479
473
465
466
480
490
500
502
493
486
484
483
480
479
479
479
477
483
485
480
478
485
486
490
502
510
513
509
505
504
500
498
498
496
502
508
513
517
519
514
506
498
508
519
527
526
521
520
519
508
500
500
504
508
507
506
507
510
504
496
495
498
500
492
480
468
462
469
482
490
488
482
479
483
483
483
477
476
472
468
461
460
468
472
472
477
478
476
471
467
467
470
471
475
479
477
473
466
473
478
478
478
478
482
477
474
474
477
477
473
473
476
475
473
471
469
469
472
473
474
472
469
470
468
472
476
480
476
475
469
470
471
472
472
475
475
472
465
459
455
458
458
454
457
457
460
464
468
475
486
497
502
510
530
550
569
588
619
657
691
728
762
790
810
827
835
829
819
820
824
827
831
831
820
809
797
773
739
713
689
665
650
639
632
613
576
541
509
479
443
415
399
394
394
400
417
430
440
442
439
438
439
441
448
455
457
462
465
468
468
465
459
452
450
452
458
460
460
455
451
449
449
449
445
440
443
447
447
445
443
446
444
443
443
446
445
446
447
444
444
442
442
443
444
447
441
441
442
445
448
452
456
458
457
460
459
458
460
457
454
456
460
467
468
468
464
467
469
467
469
467
465
467
467
471
475
479
478
479
483
481
477
471
473
473
477
480
483
488
491
496
499
492
482
470
465
471
477
471
465
468
482
493
490
487
484
483
492
500
504
506
505
505
508
511
504
494
498
502
506
503
504
505
507
510
513
517
516
513
511
515
515
515
513
518
523
526
528
527
526
529
531
530
528
530
534
535
536
536
535
537
543
552
554
554
559
560
563
565
565
564
562
560
562
564
570
573
572
570
568
570
574
576
570
568
574
573
562
557
559
563
566
568
567
563
563
565
567
570
568
563
558
553
541
538
533
527
526
527
522
519
527
534
532
523
522
527
522
514
508
508
507
502
493
482
483
496
501
496
490
493
496
480
468
462
458
457
450
448
444
438
431
430
434
437
436
439
442
435
431
430
422
419
422
423
422
415
411
409
406
401
399
403
407
411
413
415
419
411
404
404
408
407
405
402
402
403
403
407
409
407
409
416
423
423
425
426
428
417
408
412
417
416
414
416
417
417
415
414
413
414
422
428
425
419
421
425
426
427
428
424
426
427
431
430
428
426
422
420
427
439
449
448
448
449
446
446
444
438
441
450
453
451
448
448
451
451
451
448
444
445
445
448
455
460
462
461
461
462
463
462
463
461
462
460
459
462
461
458
449
451
461
460
456
455
457
463
462
463
466
471
477
476
470
459
455
455
459
460
460
464
468
467
462
462
462
466
469
474
470
464
465
465
464
463
464
464
466
468
460
462
470
472
472
469
467
468
467
465
464
467
467
469
469
472
475
472
470
468
465
464
471
475
475
473
472
473
473
472
470
469
469
476
484
485
481
481
485
490
482
468
455
455
457
460
460
460
461
467
475
476
477
483
492
490
483
475
468
467
469
473
474
476
478
478
475
476
476
467
458
461
464
476
484
483
477
469
465
467
473
477
479
477
477
476
476
479
480
479
476
480
486
482
474
470
472
470
468
467
467
470
475
478
477
470
460
462
475
481
477
474
475
479
480
477
481
477
470
465
469
471
477
479
471
469
472
471
468
469
475
479
479
477
474
472
474
473
472
469
467
471
479
486
478
463
468
478
484
483
479
478
480
483
482
479
480
477
477
475
479
479
478
476
477
478
469
471
471
477
480
481
482
481
480
480
475
471
467
471
479
483
484
485
484
484
480
481
486
483
475
472
473
478
480
475
481
493
494
484
482
487
487
489
484
486
484
483
479
475
473
477
486
488
493
500
501
494
483
476
474
480
490
494
489
485
482
485
481
475
471
475
480
480
476
478
481
481
475
475
482
486
486
488
489
488
483
484
491
493
495
494
495
495
493
492
498
501
500
493
490
490
497
501
507
510
509
515
527
534
524
513
510
513
516
515
511
511
508
503
502
503
504
503
500
494
498
506
509
506
497
490
485
483
480
480
481
483
483
481
479
474
474
475
472
471
471
471
474
475
474
473
474
479
478
473
475
479
473
472
470
471
471
472
470
469
471
473
479
481
477
477
479
480
479
483
486
487
475
465
461
466
473
478
480
482
476
466
469
473
474
474
473
476
474
473
478
479
474
466
461
458
458
464
470
465
456
456
459
455
454
459
466
475
481
484
485
496
517
543
569
603
635
661
688
719
750
781
804
816
825
824
818
820
826
835
834
835
824
807
782
750
719
697
688
679
672
654
631
600
570
543
512
479
452
430
415
409
411
417
427
431
439
445
448
447
449
448
448
451
461
470
472
465
459
458
465
466
464
460
454
455
456
458
460
455
450
450
448
443
444
446
446
447
447
450
451
453
455
459
452
437
433
438
448
450
447
447
445
443
444
444
445
446
448
455
461
467
474
475
467
462
457
456
456
456
455
457
459
461
462
466
471
470
463
461
467
469
468
468
469
469
472
472
475
480
479
471
466
461
462
463
470
476
480
480
483
487
485
479
482
489
496
502
507
505
498
492
493
494
496
498
495
489
489
491
496
497
498
500
499
496
501
507
510
512
514
513
508
509
514
518
520
522
519
520
521
522
521
521
526
527
530
530
533
534
535
537
538
535
536
537
540
546
550
552
559
564
563
561
559
562
565
564
564
563
565
563
560
561
561
554
553
560
564
565
560
562
567
572
576
577
576
576
583
584
574
560
552
552
550
548
546
548
551
551
551
556
553
547
550
547
547
549
547
538
533
530
528
527
522
523
518
514
513
503
499
504
504
502
504
503
496
491
488
485
485
483
476
466
465
467
464
460
456
451
446
445
440
440
438
439
440
439
434
433
434
429
426
425
422
417
417
416
416
417
417
416
414
413
413
414
410
408
405
408
408
410
409
408
409
414
414
417
418
421
424
422
410
402
402
409
411
412
412
414
417
419
419
421
422
421
419
420
418
417
420
424
427
422
425
431
440
450
450
448
446
439
432
426
421
428
434
437
434
434
430
434
436
435
433
433
434
438
448
455
456
458
458
454
447
447
446
446
443
443
443
442
444
447
448
449
455
455
458
462
463
463
464
464
459
455
455
455
458
461
455
453
456
459
460
466
465
464
463
467
470
472
470
464
465
466
465
460
464
472
476
474
471
470
472
471
472
468
467
470
471
468
471
478
483
481
481
481
472
466
460
458
460
462
470
473
475
473
468
468
470
470
469
470
478
478
475
472
470
469
474
476
478
476
472
469
467
468
466
466
473
476
477
476
475
467
461
463
469
474
477
476
469
471
470
469
469
471
471
469
470
474
476
484
483
472
463
463
464
461
456
459
458
462
471
476
478
477
480
480
479
487
490
480
471
469
468
474
479
484
483
477
471
465
463
465
471
473
472
471
469
467
469
478
479
473
474
471
465
465
473
480
481
479
479
475
475
474
473
476
477
475
473
473
473
473
474
474
472
471
468
470
476
478
477
474
476
479
476
476
478
479
477
479
482
479
475
469
467
471
472
471
472
474
474
476
475
478
480
483
483
484
479
475
476
479
478
475
478
483
482
484
481
474
472
472
478
485
487
488
490
491
485
479
476
474
473
477
484
486
482
480
484
479
469
463
465
474
476
484
485
485
484
484
482
477
478
480
480
476
476
476
475
479
485
485
483
487
488
485
480
476
476
475
476
478
478
474
473
476
479
479
480
485
489
485
480
475
478
486
489
488
490
486
480
483
480
478
479
480
480
480
479
481
485
485
484
482
480
484
484
483
479
474
476
483
485
481
481
481
481
481
482
482
481
479
483
486
487
485
484
483
486
486
489
492
494
490
485
486
491
488
482
484
487
485
484
490
496
492
489
491
488
479
470
467
472
484
499
502
502
494
491
496
502
504
507
507
502
499
495
493
495
492
490
496
500
498
497
496
496
497
502
507
511
516
522
521
521
521
525
524
522
521
518
519
522
520
515
510
513
509
508
509
508
506
503
496
492
493
494
491
482
475
478
485
484
479
475
476
476
471
471
471
466
460
459
462
470
474
477
478
480
476
474
469
469
475
481
483
475
469
471
474
476
475
474
473
475
478
477
474
472
474
472
472
476
472
471
472
473
473
475
475
472
474
478
480
477
484
479
473
477
482
484
482
484
486
482
474
466
461
461
464
456
443
443
453
456
457
456
460
471
484
493
497
498
512
538
563
591
624
659
685
712
739
765
795
813
822
829
829
824
825
832
838
843
841
824
790
754
724
698
686
672
661
648
631
607
575
544
514
485
453
417
399
393
399
409
419
429
435
438
441
438
438
442
446
452
457
460
464
465
468
464
458
457
456
463
458
451
442
442
448
450
450
453
457
458
455
453
450
448
448
445
447
449
452
453
450
447
446
451
454
452
448
447
451
451
449
448
450
452
454
458
457
458
455
452
459
465
467
465
464
461
460
456
456
456
456
457
466
470
473
477
474
467
462
461
464
469
475
478
476
474
470
472
473
478
481
484
483
482
480
474
477
479
479
480
479
479
482
485
484
483
492
500
501
502
502
502
500
497
496
498
501
495
496
504
511
516
512
514
514
513
513
514
513
517
520
521
519
519
524
532
532
529
531
529
524
520
516
523
530
535
535
533
531
534
540
542
542
539
544
549
552
554
553
552
557
557
560
561
560
558
563
568
574
575
576
575
574
577
578
572
568
565
572
571
570
566
569
578
584
579
571
566
565
570
569
574
577
570
566
565
561
559
557
551
548
546
547
547
544
551
553
547
540
537
538
537
534
527
525
520
511
505
501
497
498
499
496
499
500
495
485
480
475
476
475
472
467
461
457
451
448
447
441
437
440
443
442
438
437
436
433
426
421
416
415
420
426
432
433
432
430
422
408
402
401
395
397
405
413
412
406
404
403
407
411
411
408
410
413
415
417
417
420
422
417
414
415
414
413
414
419
424
420
419
418
416
415
420
431
423
416
417
417
419
418
412
414
418
421
429
439
440
437
434
434
434
430
433
436
433
433
440
450
455
457
453
449
450
451
445
442
451
456
456
448
441
440
444
440
437
438
441
439
437
440
441
446
452
457
459
457
461
462
458
458
463
468
470
463
455
453
454
455
450
451
455
456
457
456
457
464
468
471
472
470
464
465
468
470
465
459
459
462
464
465
461
458
458
458
458
465
477
482
480
478
474
475
476
480
481
479
470
467
465
466
467
471
472
472
474
474
471
468
471
473
472
467
464
468
477
477
474
474
477
480
472
463
467
472
471
469
466
466
470
472
475
481
482
482
476
471
473
475
474
471
470
469
472
474
475
472
472
473
467
470
479
484
481
477
477
483
492
492
485
473
466
467
469
469
470
470
470
472
471
472
475
475
480
482
479
474
475
478
479
477
473
479
476
470
469
472
468
466
462
458
455
458
463
467
469
466
468
474
474
474
476
480
481
481
477
475
473
475
477
477
479
479
470
461
458
462
483
492
483
480
483
484
487
487
485
485
484
483
480
477
479
479
477
474
474
475
477
479
476
473
472
479
482
486
482
478
478
482
485
491
488
485
484
478
472
469
471
480
485
484
481
478
478
480
484
484
480
482
485
485
485
488
491
492
490
488
485
484
476
469
473
475
482
485
485
489
490
485
478
474
473
474
476
477
479
483
486
491
496
497
492
488
481
478
473
473
469
470
470
470
467
467
471
475
480
482
482
481
482
478
477
475
475
474
471
478
483
476
474
479
483
487
490
492
490
489
496
510
517
508
497
486
478
479
479
482
483
482
482
482
481
478
481
480
482
483
488
490
490
485
486
489
492
485
477
475
477
485
492
491
489
482
479
477
481
481
483
487
491
492
490
491
491
486
483
483
488
490
490
488
487
488
488
485
489
493
492
493
496
499
499
496
490
487
483
483
485
492
493
494
489
485
484
486
487
489
494
493
488
483
482
484
485
490
495
493
486
485
483
486
496
501
503
503
500
497
501
509
510
504
505
512
509
507
504
504
505
506
512
517
521
526
525
521
520
518
517
519
517
514
517
515
518
521
522
524
522
512
511
510
510
512
514
516
513
504
493
487
482
477
479
479
482
481
482
483
479
475
472
471
474
475
474
473
476
476
475
471
473
478
479
482
483
482
480
475
473
478
485
485
477
477
482
476
472
473
473
472
471
472
473
473
478
477
476
477
475
471
471
474
474
469
466
464
466
477
489
490
488
484
482
480
481
481
479
476
470
466
465
464
467
466
466
464
463
461
462
468
476
479
481
483
496
513
537
562
584
613
641
671
701
732
764
795
819
834
837
832
825
827
837
842
848
846
833
808
769
730
694
676
669
658
645
628
604
579
549
511
466
432
403
392
393
398
406
413
420
430
435
437
435
437
438
443
447
451
460
466
475
479
479
473
470
465
460
459
462
471
468
456
451
453
453
449
446
450
451
453
450
446
444
444
445
448
454
457
454
455
456
455
454
454
451
447
446
453
458
456
453
454
463
465
457
455
459
463
463
466
470
470
467
465
463
465
466
476
486
488
478
472
474
471
471
470
478
482
482
476
474
474
476
479
482
485
487
487
485
479
480
482
487
493
497
494
495
492
487
487
490
491
490
486
486
491
495
497
503
502
494
493
494
501
505
505
503
500
502
504
503
507
515
519
516
519
517
518
514
516
521
522
521
523
523
526
526
529
535
537
536
535
541
547
545
545
547
548
550
552
553
551
551
552
553
558
551
546
556
560
560
564
567
567
565
569
572
577
580
580
578
573
569
570
569
565
565
574
585
587
585
582
585
585
581
581
582
575
569
565
560
558
564
567
560
551
549
548
545
545
549
549
543
537
536
533
523
518
519
518
518
516
513
513
517
517
511
507
505
502
494
486
483
486
488
486
483
476
470
467
469
467
461
458
457
458
450
439
435
434
430
432
435
438
437
432
426
427
426
428
423
420
417
418
419
417
415
411
411
411
412
409
409
412
413
412
409
408
404
406
410
416
417
410
407
404
406
411
414
414
416
421
425
428
425
421
422
421
420
416
411
409
410
414
419
427
434
429
427
425
428
428
431
428
429
435
437
438
440
439
433
429
430
438
450
453
450
450
451
443
442
444
449
448
449
451
444
439
440
449
452
450
450
449
446
451
455
456
456
454
453
453
450
446
451
458
459
457
455
456
462
463
463
458
459
462
464
466
468
467
469
474
471
467
464
463
460
459
459
457
460
464
468
470
471
471
469
469
468
466
462
456
462
469
474
475
477
486
488
485
483
484
485
481
477
472
474
475
471
471
474
479
482
483
474
469
465
464
467
467
462
463
471
482
482
481
480
478
480
481
478
474
473
476
481
484
484
485
481
482
478
474
474
476
480
480
479
480
481
480
481
483
481
479
475
476
479
486
484
474
469
471
467
462
461
467
469
474
474
474
474
468
469
475
480
479
477
483
486
486
482
473
468
468
472
474
476
478
478
477
473
473
476
478
474
472
470
473
475
473
471
472
471
471
470
472
475
478
477
477
482
487
481
474
473
475
474
473
474
474
476
478
483
480
478
475
477
476
478
482
484
488
486
474
470
475
479
480
481
483
482
483
481
476
476
481
488
483
481
479
483
487
485
480
475
473
475
476
479
484
483
486
490
493
491
481
473
472
472
473
475
474
473
469
473
480
478
476
475
481
489
490
487
485
483
485
488
485
472
465
465
465
467
471
467
469
484
494
496
492
487
482
482
480
478
478
480
479
486
487
484
479
478
483
488
486
487
484
485
491
485
488
494
494
489
482
476
476
478
479
482
481
483
483
479
475
472
471
478
479
475
473
472
475
476
476
480
486
484
480
477
480
481
477
473
473
476
479
485
488
489
491
490
486
484
490
490
486
483
485
485
482
482
484
491
496
493
484
479
477
475
479
484
489
494
495
494
498
500
496
496
493
489
491
494
496
494
484
473
474
483
488
494
495
495
493
489
484
480
480
479
478
481
484
485
486
489
491
489
482
481
485
493
493
495
497
499
500
497
493
493
486
481
491
502
505
502
499
500
502
503
508
515
515
513
511
508
509
509
510
513
514
517
518
523
529
528
521
513
512
515
519
517
512
512
513
510
509
510
508
507
508
508
505
502
498
490
481
480
484
483
483
484
486
487
487
485
480
476
471
466
461
461
465
472
473
476
476
475
474
475
475
475
475
476
475
475
475
472
470
470
473
483
489
487
484
482
483
485
483
485
487
482
483
488
484
473
468
464
464
469
471
467
468
472
470
472
473
473
473
472
476
484
491
490
477
464
462
459
459
465
466
467
466
467
468
469
469
469
473
479
482
483
488
505
523
542
564
584
606
637
673
702
729
758
789
818
823
823
828
831
832
834
836
836
829
815
785
748
710
678
662
649
636
617
590
561
532
508
478
442
411
386
372
375
387
398
409
421
428
431
430
429
432
435
440
444
449
453
455
458
467
474
478
481
481
474
472
469
466
463
459
456
456
458
460
460
463
465
464
461
462
462
461
458
456
458
459
458
456
457
460
465
467
466
464
465
470
471
465
467
473
467
455
444
443
453
461
460
460
461
466
470
474
472
470
472
475
473
472
473
470
474
475
471
472
466
458
456
461
467
462
463
471
475
481
488
489
493
495
495
496
497
495
497
496
497
493
495
495
496
494
495
499
501
496
495
500
498
494
500
507
508
510
519
523
522
518
515
515
514
515
516
519
524
525
526
522
516
516
522
527
529
527
527
533
544
543
536
532
536
537
535
539
543
549
551
549
552
551
554
555
556
556
559
560
559
559
564
567
568
572
573
574
574
575
574
576
576
573
574
578
579
581
579
574
571
577
577
574
573
572
571
567
562
568
570
565
564
560
561
563
563
560
558
556
551
551
554
554
547
543
542
542
544
546
541
528
519
527
540
539
538
533
527
516
506
500
493
491
491
485
480
478
470
469
474
475
470
469
466
457
448
443
439
438
436
436
436
435
435
432
431
429
423
420
419
419
418
419
418
420
424
425
419
412
412
409
405
403
401
402
409
413
413
408
405
404
405
406
406
407
405
400
400
407
413
414
412
413
413
413
419
417
415
417
418
420
422
423
425
423
418
407
401
399
401
409
415
422
428
434
434
435
429
423
426
431
437
436
430
435
441
443
439
436
437
438
438
441
444
449
454
449
438
435
437
438
442
440
438
442
442
441
438
438
438
434
446
457
457
454
458
461
454
450
451
455
459
461
461
464
467
465
460
457
459
464
467
468
465
466
465
461
459
459
460
463
463
466
464
462
466
467
467
462
461
465
472
469
464
464
467
470
475
478
475
471
469
469
468
469
468
470
469
470
471
471
470
467
470
477
476
477
479
478
478
478
478
475
473
474
475
476
476
475
478
482
484
480
485
481
471
472
477
479
475
470
467
471
476
477
477
478
483
483
476
472
476
477
472
468
470
470
474
476
472
473
473
469
464
467
473
476
471
470
467
469
474
481
486
490
489
483
477
476
469
457
444
439
447
456
463
469
476
480
482
480
476
476
480
485
483
480
476
473
474
475
473
472
475
482
484
481
481
483
481
474
472
467
466
464
463
463
464
467
473
476
470
467
471
468
465
473
475
476
478
478
478
475
475
474
475
478
483
482
471
468
469
469
466
469
475
475
473
473
479
481
479
480
481
481
488
485
473
468
469
469
470
475
482
483
480
477
478
483
486
491
494
494
491
483
477
481
480
480
479
476
476
479
480
480
486
488
479
469
465
467
474
483
487
482
486
495
500
494
479
470
476
484
487
486
484
485
488
483
485
479
478
478
468
468
467
469
470
468
472
473
472
473
476
485
489
488
486
485
483
482
481
477
476
478
481
481
480
480
476
478
474
473
476
477
478
481
486
492
492
485
479
483
488
486
484
482
480
480
485
483
475
474
475
479
483
482
488
493
491
489
487
484
483
484
490
491
486
476
471
474
484
490
489
489
489
491
489
485
485
484
485
487
488
486
487
488
487
483
481
480
482
485
486
484
483
484
484
484
485
484
486
490
495
495
492
494
498
500
502
502
497
491
479
472
475
482
487
489
491
490
486
487
489
484
484
486
481
477
481
488
491
490
489
490
493
488
487
488
487
491
494
494
497
497
494
489
487
486
488
492
494
490
490
494
499
504
509
512
517
515
515
515
518
520
522
523
525
525
520
516
512
510
515
516
514
511
511
513
515
517
508
505
507
504
508
513
511
501
498
496
490
485
484
477
479
485
483
482
481
479
479
477
476
475
475
472
470
473
478
481
485
482
475
475
480
487
488
485
476
477
476
474
479
485
486
486
488
493
485
468
458
461
472
478
477
479
473
471
468
467
470
470
473
473
472
471
465
468
467
466
468
470
474
474
472
472
471
474
474
471
469
468
468
464
464
461
466
466
462
466
469
477
479
483
493
508
527
546
569
599
629
656
687
720
753
779
805
823
835
835
827
827
832
838
842
841
828
811
779
742
709
686
673
663
646
625
607
580
547
515
483
449
419
402
397
396
402
409
421
430
436
439
434
437
443
447
451
453
457
458
461
464
470
476
480
477
472
475
480
478
472
468
453
443
445
447
449
447
449
453
458
461
458
456
449
445
444
449
452
451
444
440
444
447
448
449
450
452
454
451
445
449
453
454
452
454
461
466
463
459
462
466
467
465
461
459
458
460
465
459
449
456
470
478
482
488
489
486
483
481
480
480
479
479
482
483
489
488
486
486
488
490
487
486
487
489
489
492
494
491
485
486
492
498
501
500
498
498
500
502
501
504
508
511
510
506
504
507
512
522
516
503
496
496
498
500
500
505
509
509
516
524
528
529
529
531
530
531
528
520
518
523
533
539
540
540
541
542
546
544
543
536
539
544
546
551
552
554
555
556
560
563
565
568
570
567
559
551
551
555
555
556
562
565
562
560
565
579
583
582
586
588
578
573
572
571
571
572
569
567
557
554
555
553
554
555
554
557
550
544
546
550
549
546
544
542
536
533
531
526
524
524
527
529
529
519
508
502
503
509
511
511
507
503
498
489
482
476
474
471
469
464
460
452
454
452
449
445
443
439
434
431
432
431
430
429
427
429
430
429
418
413
410
410
417
422
423
422
419
419
421
420
414
409
409
412
413
407
407
409
410
407
408
409
411
418
420
422
424
424
425
422
414
405
404
411
414
410
408
415
421
421
415
413
419
421
423
421
422
425
425
427
423
422
425
427
428
432
431
427
430
431
432
437
431
430
429
427
425
421
421
430
435
436
435
433
431
439
443
448
448
450
451
449
451
451
450
455
460
455
450
455
452
449
448
450
448
449
449
449
448
451
452
452
457
463
461
458
457
458
462
463
460
458
459
459
461
460
457
457
458
458
461
463
466
471
478
472
465
463
462
460
461
464
464
464
471
476
475
474
474
475
477
477
480
480
483
482
486
483
478
473
474
478
478
478
480
478
466
457
462
463
462
465
472
474
469
473
484
481
463
455
458
466
464
463
458
458
452
449
462
473
471
468
462
465
473
486
484
471
463
463
467
464
461
462
470
478
472
468
468
472
476
474
473
469
469
474
475
472
472
472
470
469
468
470
472
472
472
474
476
474
475
479
478
475
474
471
468
467
468
471
475
474
469
471
475
476
471
465
467
468
470
471
470
464
471
481
483
476
475
480
480
481
481
475
469
470
477
481
479
473
469
472
481
488
486
481
477
473
469
468
474
473
474
479
483
484
480
477
475
477
479
475
474
472
475
479
481
479
472
474
476
477
476
473
474
475
472
474
469
467
470
475
474
474
476
473
471
473
475
476
474
474
475
475
477
474
472
477
481
481
477
480
474
467
467
467
463
464
472
478
487
491
491
487
482
479
476
478
483
488
487
480
478
482
484
478
471
470
469
469
469
473
477
484
492
490
484
485
488
492
491
484
481
481
485
483
481
482
481
480
478
478
475
469
470
478
479
480
487
493
492
490
491
493
495
499
500
498
498
492
481
474
476
478
481
481
479
478
483
481
476
474
473
476
478
482
481
479
479
480
478
484
484
484
479
478
475
478
477
480
482
485
488
486
493
491
487
483
482
478
473
473
473
478
477
473
475
487
492
488
483
481
478
479
482
481
481
480
477
477
478
478
482
487
492
497
497
488
482
474
468
472
479
480
477
472
467
467
478
485
489
490
486
486
487
491
490
491
488
489
495
496
492
493
494
488
489
490
493
498
506
504
496
483
474
479
488
492
495
493
490
492
494
499
504
500
502
505
507
506
510
518
515
512
510
511
513
515
516
513
514
520
520
521
521
515
514
513
515
515
520
521
519
521
522
521
520
519
516
516
517
514
516
518
511
505
502
505
503
491
483
483
482
479
479
478
477
478
482
480
472
468
471
476
477
474
470
471
471
474
470
460
461
466
464
458
456
463
470
471
473
470
467
469
470
476
477
479
483
480
477
477
472
470
469
467
466
467
465
466
470
476
476
469
471
473
475
475
478
478
474
472
469
466
467
463
459
455
456
454
456
462
466
464
458
458
463
470
483
490
494
496
510
532
553
582
626
667
689
715
743
769
795
825
839
839
834
832
839
845
850
854
855
846
822
786
748
719
706
692
679
666
643
618
583
546
517
488
455
419
398
386
383
395
409
410
416
423
426
429
424
427
436
447
458
467
474
472
462
461
463
461
460
459
451
447
447
449
448
445
442
441
443
446
443
445
440
436
433
433
435
437
435
435
435
440
448
447
448
448
447
450
451
450
452
458
458
454
450
448
450
452
450
448
449
453
452
453
456
460
464
464
462
460
459
460
462
462
462
462
467
464
467
473
478
480
481
478
478
482
488
481
476
473
472
471
474
476
474
475
482
491
494
490
488
488
489
488
487
490
495
501
497
490
495
503
507
509
506
502
499
498
497
494
495
503
512
515
521
529
537
533
521
511
499
496
498
509
515
520
527
524
525
524
526
531
533
536
536
531
537
542
539
535
530
531
538
542
543
541
541
548
557
560
562
560
556
556
555
557
569
576
577
576
576
577
577
579
579
582
580
575
573
575
577
576
576
572
572
571
572
574
574
575
579
577
575
572
566
561
560
558
560
563
556
550
549
549
548
549
543
542
542
540
539
534
528
523
524
526
527
520
515
517
511
503
496
494
498
503
505
506
501
493
488
485
485
482
482
481
475
472
470
458
447
440
441
444
444
441
438
439
441
434
427
426
428
418
413
416
417
417
417
419
415
404
402
403
405
405
405
405
405
404
402
390
388
395
398
401
402
400
399
407
415
413
413
412
417
423
421
415
414
414
412
414
415
414
416
417
416
412
415
422
429
423
417
416
424
432
430
420
419
426
429
428
428
428
428
427
424
424
430
431
433
433
436
436
434
435
434
433
432
435
438
441
439
437
439
450
454
456
457
455
452
449
445
446
445
444
451
456
462
469
470
471
465
450
446
450
455
464
464
462
458
457
457
460
463
466
466
464
465
467
470
470
471
470
470
473
469
466
465
462
465
466
461
461
464
472
480
476
473
471
469
467
460
459
457
457
460
470
478
477
470
468
471
473
475
480
488
493
493
489
478
471
471
470
468
473
475
474
473
472
470
473
474
478
477
475
475
472
469
467
469
471
473
470
471
477
479
476
478
479
477
477
478
477
478
481
486
485
481
478
470
469
471
471
473
473
477
476
469
464
468
473
477
480
486
487
488
488
492
493
486
475
463
456
459
468
480
486
484
479
476
474
470
470
473
477
476
472
473
472
472
478
481
484
486
485
483
481
479
477
479
480
478
477
480
483
491
494
499
499
494
478
471
468
465
465
467
466
466
465
466
465
469
471
471
474
475
478
477
475
476
471
471
480
487
485
483
487
487
488
489
488
486
490
490
488
484
483
483
485
483
482
478
477
483
481
478
478
478
480
481
479
481
475
471
480
484
484
483
478
477
478
480
481
475
474
480
486
491
483
478
477
481
487
484
487
495
496
492
487
482
482
487
485
478
476
479
483
486
487
483
480
484
489
491
487
484
482
486
486
486
482
481
481
481
480
480
486
490
491
495
496
492
484
485
482
480
477
471
468
475
481
483
484
489
491
484
480
476
478
482
481
484
492
495
497
496
494
495
495
492
486
482
482
486
491
484
483
487
492
494
488
481
478
478
476
480
480
484
488
486
488
487
489
489
487
486
483
482
481
484
488
487
485
484
487
490
490
487
484
479
480
485
486
484
483
489
494
497
504
496
491
487
486
491
489
490
496
496
491
487
489
489
487
486
492
496
490
488
488
487
493
499
497
499
505
505
505
504
504
503
503
504
496
489
489
499
507
505
505
507
506
509
512
517
520
524
524
528
524
521
516
514
513
513
508
508
517
520
516
516
522
524
519
515
512
510
510
511
515
516
516
514
513
510
507
509
510
514
517
512
505
502
499
500
501
496
491
492
488
483
481
479
479
474
472
467
465
462
464
471
475
473
476
479
483
489
485
476
475
477
472
469
464
464
469
474
477
477
467
463
463
467
473
474
473
470
468
471
472
470
468
473
479
476
472
475
476
475
475
479
476
469
467
467
467
465
463
465
459
454
456
469
470
469
472
470
466
469
467
475
482
492
496
496
504
522
544
574
610
646
680
703
730
761
786
807
825
833
827
820
823
831
838
843
836
827
809
772
728
695
673
658
645
628
608
586
560
539
515
470
418
384
375
384
394
403
412
420
422
425
424
425
426
430
433
436
440
444
454
465
469
467
466
468
466
465
465
467
464
462
467
455
444
443
447
446
447
445
448
449
455
460
459
458
454
454
455
451
446
446
453
459
464
462
461
460
456
458
461
466
469
465
460
461
463
463
469
466
465
464
465
464
464
467
465
466
470
476
475
472
472
480
477
479
478
478
480
485
486
478
473
470
474
477
481
484
481
486
487
485
488
488
489
491
486
484
484
483
481
480
486
491
497
501
503
505
508
504
503
504
509
511
511
509
505
513
525
527
529
529
531
521
517
514
508
510
518
516
508
508
509
516
520
523
522
521
521
523
526
527
526
528
534
540
544
546
544
547
550
552
551
557
559
557
557
560
560
555
553
557
567
570
573
569
566
564
567
574
574
579
583
587
583
575
573
573
577
585
585
585
584
578
576
577
578
578
578
573
571
569
571
571
570
569
565
557
552
555
556
557
557
558
553
550
544
541
537
533
527
519
518
524
522
517
514
510
507
504
505
503
504
502
497
486
486
485
482
480
478
476
469
467
469
469
463
450
444
444
446
443
440
436
443
444
441
441
432
429
421
412
405
410
407
408
407
413
420
420
416
410
411
417
419
418
416
411
405
404
402
408
410
409
406
405
409
413
420
419
415
410
411
415
416
414
413
413
412
415
408
403
409
420
425
426
426
427
432
430
427
423
418
419
420
424
427
427
427
426
426
431
433
438
436
435
435
437
441
443
445
444
444
450
453
450
446
449
449
443
444
448
443
440
440
449
451
451
456
458
457
454
460
461
469
483
488
475
461
454
448
449
451
455
455
455
459
456
456
456
459
466
469
469
470
469
467
463
460
461
461
460
459
465
472
465
458
457
457
463
469
473
469
468
466
464
462
468
469
469
469
471
468
466
474
480
478
475
474
475
477
477
474
471
466
465
468
468
466
462
462
466
471
474
475
474
472
470
471
472
474
470
465
469
478
479
477
476
477
475
472
473
478
481
477
481
479
471
469
466
470
472
473
473
464
457
460
467
475
485
491
490
485
481
479
478
478
483
482
477
477
476
474
474
476
475
476
472
472
472
471
474
477
479
475
473
476
483
480
482
480
481
481
478
471
471
473
477
481
486
479
471
473
473
474
468
468
475
482
483
486
488
491
492
488
481
476
475
467
462
465
468
471
472
470
473
470
470
471
472
471
474
474
476
472
467
472
478
480
478
479
481
482
480
477
475
478
480
479
472
468
472
470
471
482
489
483
478
474
473
475
478
481
478
478
476
476
476
472
476
477
479
480
481
487
491
486
485
478
475
477
481
481
479
480
481
482
484
488
485
482
483
478
476
476
470
467
472
480
484
485
481
477
475
475
477
475
473
472
475
487
496
499
498
499
495
491
489
489
488
475
475
492
499
490
481
475
475
480
484
481
482
486
487
481
480
483
484
480
476
476
476
473
476
478
479
475
472
474
476
477
483
484
484
481
482
490
489
485
487
485
484
482
482
486
489
490
495
496
489
478
479
486
489
482
475
483
494
498
501
501
503
502
505
504
499
498
496
494
496
497
498
499
498
500
501
504
504
504
501
500
508
518
524
522
523
521
519
518
519
521
520
522
522
521
519
521
519
521
524
528
527
521
511
504
505
505
506
507
504
502
508
519
520
516
514
513
508
502
491
480
475
477
481
480
474
468
467
469
464
461
460
464
463
462
465
473
485
488
480
470
461
463
474
483
489
488
488
481
465
464
471
471
470
469
468
471
468
462
455
453
458
463
473
477
469
465
465
469
470
468
469
469
474
476
469
470
469
468
471
469
469
471
468
466
464
464
464
465
466
465
467
467
471
478
481
488
497
507
521
542
563
586
608
631
659
689
720
750
783
817
840
840
836
829
824
832
840
835
829
826
806
767
726
691
666
649
630
607
586
564
543
518
487
445
411
387
377
382
390
393
396
405
415
423
427
430
430
428
432
431
440
449
457
465
470
464
459
461
457
459
460
462
464
462
462
457
452
448
452
455
456
457
462
455
449
451
453
456
453
451
450
455
459
464
464
461
458
455
455
458
464
468
466
461
458
461
466
470
471
474
475
468
461
461
461
460
461
462
466
465
463
463
462
461
463
469
474
476
473
472
479
483
483
484
487
488
490
491
490
494
496
492
486
484
485
482
489
493
495
495
495
493
493
494
493
493
492
489
491
495
494
495
508
513
515
519
516
516
512
506
506
511
515
514
511
517
522
524
524
524
518
514
517
518
516
514
523
527
526
531
538
541
540
537
543
556
556
547
539
537
538
538
546
554
563
566
563
559
559
558
559
567
576
580
583
576
579
583
582
584
581
580
578
575
576
576
574
575
575
573
572
573
578
580
582
584
579
578
581
589
585
577
573
571
572
565
561
563
563
564
565
563
551
543
544
544
543
546
550
548
543
538
530
524
518
515
515
514
512
508
506
503
498
496
494
489
487
485
480
473
468
465
459
455
455
458
458
449
442
435
438
440
439
431
430
429
426
424
421
424
427
424
418
414
416
426
427
416
407
408
411
415
415
408
405
406
405
404
406
408
408
406
401
400
408
415
410
401
403
400
393
392
393
397
395
398
400
403
401
401
403
400
395
395
400
405
406
405
411
417
421
420
418
417
422
427
434
431
426
422
417
415
421
427
437
439
439
432
430
432
434
438
444
442
438
434
433
433
434
433
437
444
445
443
444
443
446
445
449
452
458
462
460
456
454
460
457
448
443
448
450
448
443
442
446
450
451
453
454
457
455
453
456
457
461
463
465
470
472
474
472
463
458
458
460
461
460
454
457
466
472
475
475
472
469
475
475
472
471
474
476
475
479
472
464
462
462
463
466
467
469
470
466
464
464
461
460
463
463
459
467
478
482
484
483
481
482
480
481
480
476
474
472
474
475
475
475
469
461
464
469
474
475
473
475
469
468
474
473
467
467
475
481
480
473
475
476
476
471
471
476
476
475
473
474
470
467
470
474
475
474
471
472
475
474
477
474
473
474
472
470
471
472
475
480
477
473
470
469
470
471
472
477
476
472
472
475
480
469
467
465
473
478
477
475
476
473
473
475
475
473
472
476
486
494
493
487
484
487
485
478
472
470
469
469
469
474
479
482
479
469
467
465
471
471
469
469
472
472
470
467
465
463
464
466
468
470
468
469
478
482
481
481
478
476
481
485
483
475
471
470
471
475
480
476
476
479
482
484
481
479
478
478
484
482
482
482
485
495
497
485
477
477
478
481
480
476
475
476
479
476
472
476
485
487
479
474
482
490
487
478
477
478
479
481
483
476
472
473
477
479
480
480
482
482
478
475
476
478
480
479
487
497
499
493
489
487
485
480
479
483
487
491
489
488
486
487
488
493
492
485
480
475
472
483
489
492
496
497
495
483
474
473
471
479
483
482
479
479
481
480
483
486
488
489
488
485
485
485
481
483
487
493
500
502
498
497
499
497
497
495
495
491
487
491
497
498
497
495
494
490
486
493
503
502
503
506
509
511
511
517
520
520
521
525
529
527
521
519
518
513
509
510
511
511
514
520
522
518
517
517
520
519
512
508
508
510
512
511
508
505
506
511
509
504
499
496
498
500
498
490
481
477
480
481
480
474
472
472
468
467
471
475
474
469
468
471
472
469
465
467
472
475
475
476
475
478
480
485
482
472
471
475
476
479
479
471
467
463
463
470
474
474
475
472
474
472
471
471
470
473
474
474
477
476
473
473
470
467
465
457
451
454
453
451
452
452
453
451
449
453
460
467
474
481
489
496
510
535
565
597
630
657
683
711
737
766
798
824
837
834
827
821
825
830
837
837
832
816
787
751
718
687
669
658
643
626
607
585
558
533
506
470
434
414
401
396
395
395
397
403
413
422
434
444
448
448
449
455
460
467
473
475
479
479
472
470
466
462
459
457
454
448
447
447
444
441
439
442
446
450
451
448
445
446
448
453
455
457
464
467
467
463
463
457
444
438
436
436
444
453
457
458
458
461
464
459
452
450
452
448
444
448
454
459
462
461
464
468
469
467
453
438
440
448
460
474
481
479
475
477
475
480
485
492
492
488
488
491
491
492
489
484
481
476
476
479
477
477
480
483
484
483
483
483
483
482
479
479
486
498
502
501
500
500
505
511
512
512
509
507
510
512
514
520
523
520
515
515
516
518
520
521
519
518
523
525
523
530
544
546
541
540
537
535
535
536
541
544
544
547
544
538
536
544
550
556
561
564
562
562
562
559
555
553
557
562
564
563
564
571
586
594
591
586
581
578
575
579
577
570
575
579
583
582
584
580
576
571
571
574
568
558
560
559
562
559
557
553
545
537
536
539
541
543
546
547
544
544
540
536
530
525
522
522
521
521
519
513
509
507
502
498
494
491
489
483
479
475
471
471
466
460
458
457
458
457
454
449
448
449
444
438
437
435
432
428
424
421
420
418
419
421
416
410
411
416
417
414
408
408
414
415
413
411
412
411
415
414
410
409
408
409
412
418
415
401
391
395
408
421
422
417
414
411
408
407
409
407
411
416
417
420
425
428
426
431
438
444
445
444
438
434
432
430
420
418
424
431
426
419
418
422
427
427
425
423
422
423
425
428
430
433
435
437
442
438
436
438
438
439
444
445
447
446
447
443
440
443
446
457
458
447
438
442
454
460
458
452
448
447
449
453
452
449
451
452
455
458
461
460
456
453
455
457
456
453
455
466
464
464
468
466
463
462
464
465
467
463
462
468
469
471
470
470
465
463
464
462
464
466
467
466
466
470
472
471
476
480
479
478
475
476
480
481
476
472
468
471
477
483
485
480
480
475
471
468
470
474
470
463
467
480
487
476
467
466
471
477
478
473
475
475
474
474
473
471
463
453
456
460
459
463
467
467
465
465
468
469
468
461
457
463
471
476
479
479
480
471
457
455
459
465
464
465
467
471
471
475
474
471
469
472
474
476
478
477
471
472
475
476
476
481
476
470
462
459
458
461
466
471
470
468
464
467
480
492
493
491
484
479
473
474
475
478
476
477
480
481
484
484
475
467
472
474
478
480
483
478
476
469
464
463
463
466
468
474
480
485
485
481
477
473
475
476
474
475
477
483
492
496
495
490
491
482
470
470
475
472
467
469
477
484
488
487
478
469
463
462
458
458
458
462
464
468
473
469
464
476
485
489
485
482
481
479
478
478
477
478
478
479
479
480
477
472
473
475
477
475
477
477
478
482
490
497
496
493
487
480
478
480
478
474
473
473
478
480
475
474
467
465
463
466
474
487
494
492
489
488
486
479
480
485
483
480
480
482
487
491
490
485
484
482
480
484
487
482
479
477
470
469
470
472
472
475
481
490
495
495
490
481
479
481
483
486
486
487
485
486
487
488
491
494
495
494
491
488
497
505
507
507
508
507
505
497
486
481
482
489
498
503
510
511
503
505
507
505
507
508
511
512
509
508
513
517
511
508
508
504
498
497
508
518
520
521
518
516
521
525
520
511
504
509
506
503
501
501
501
501
505
505
504
503
500
493
484
477
477
480
479
475
471
474
477
474
475
479
478
476
474
473
469
466
466
468
469
469
461
456
463
463
462
458
461
468
474
476
475
473
474
474
469
467
464
464
466
471
468
467
465
470
470
470
470
469
467
468
470
470
470
474
470
468
465
460
459
464
462
457
455
455
458
460
461
464
463
461
462
469
479
486
489
495
501
515
537
566
603
638
665
691
721
751
774
798
823
837
840
834
839
846
849
852
854
845
825
797
764
728
691
673
661
646
628
615
593
560
527
495
458
424
401
390
389
391
397
405
410
418
427
432
432
433
434
443
453
458
461
457
460
465
470
471
470
461
455
455
458
457
453
449
448
451
456
452
447
453
450
446
443
442
442
442
442
441
446
446
446
444
441
442
442
445
447
446
447
447
449
445
443
442
441
444
443
442
444
454
455
456
458
459
457
456
458
457
455
457
461
461
462
467
470
472
472
476
472
468
471
475
479
485
488
485
474
471
474
478
479
479
479
476
486
494
486
479
481
483
484
486
486
490
491
489
483
484
494
493
491
490
487
487
493
493
495
498
506
505
501
506
514
517
519
517
517
519
520
522
522
525
529
527
518
516
521
525
527
529
533
531
532
532
534
535
536
540
548
553
555
556
556
558
558
558
557
561
566
563
563
559
559
563
569
566
568
566
567
570
575
577
577
578
577
575
573
570
573
575
576
576
575
578
579
578
575
572
570
568
570
571
568
567
564
562
560
555
555
558
556
554
552
550
549
550
553
555
552
548
550
547
546
536
513
505
506
509
511
506
498
497
494
494
489
481
475
470
466
467
462
461
462
463
466
465
461
456
446
438
433
433
432
433
439
444
443
435
426
421
417
414
412
410
410
409
406
402
399
404
400
385
382
393
406
411
412
411
409
408
411
405
403
407
409
408
404
406
407
407
408
410
411
413
413
415
412
406
404
403
406
412
410
412
411
409
413
419
423
421
420
417
417
418
420
422
422
424
425
424
423
425
425
426
427
425
426
428
434
442
442
439
438
440
442
441
439
438
438
439
436
436
432
436
447
449
451
451
453
455
452
452
455
455
458
459
458
463
465
454
445
439
438
436
437
447
456
459
459
462
458
449
449
450
455
453
451
446
446
452
458
467
478
476
472
471
467
463
463
463
458
457
461
463
461
464
469
465
463
466
474
477
475
475
473
469
465
465
473
474
468
465
468
470
471
476
479
475
471
468
467
468
472
473
473
474
472
472
472
467
465
470
473
474
472
473
471
466
466
470
472
476
478
478
479
477
473
473
474
472
474
474
473
475
479
480
477
477
477
475
471
471
470
474
480
480
471
466
468
474
475
471
468
470
472
472
475
474
471
465
457
459
468
476
475
463
458
460
461
459
464
471
474
471
476
478
476
476
479
478
472
468
463
458
464
472
471
469
473
475
474
471
473
467
468
469
467
465
471
475
477
483
482
477
475
475
477
479
483
482
472
465
467
470
475
474
470
473
480
479
473
474
480
486
485
484
484
482
480
476
476
480
482
479
481
480
474
473
470
473
475
479
482
487
488
484
477
474
477
480
480
480
479
474
469
471
476
479
480
484
481
475
474
475
478
477
476
477
476
483
485
484
484
476
472
473
478
482
485
485
483
485
476
471
468
471
478
482
481
479
479
483
482
479
477
479
481
480
478
479
481
480
477
479
481
476
473
467
463
466
471
473
474
478
481
477
476
479
485
490
492
489
487
483
477
477
486
495
497
488
483
486
484
484
480
480
482
483
485
488
485
488
483
479
480
488
490
483
493
499
500
499
498
496
493
492
495
494
493
496
498
497
495
493
493
492
493
495
496
502
510
513
516
521
526
525
521
520
520
526
528
526
525
524
521
517
513
516
517
508
513
530
542
534
527
517
516
524
524
516
511
508
505
501
500
499
499
504
505
499
493
485
486
483
480
478
479
476
469
464
461
459
462
465
460
461
463
466
467
465
463
462
463
467
469
471
469
470
470
471
471
472
475
473
468
463
461
461
465
468
472
473
474
473
473
468
462
460
464
469
467
465
467
468
467
463
461
462
461
461
461
461
460
457
454
453
452
452
453
452
453
453
448
454
463
477
491
496
498
505
517
538
563
588
618
647
684
717
747
775
800
824
840
842
835
826
831
833
843
848
852
844
817
779
745
710
684
669
655
636
619
599
580
556
524
483
450
422
398
384
384
385
386
397
411
422
428
439
440
435
434
438
448
455
461
462
467
468
469
468
460
451
453
456
454
451
446
438
439
441
442
442
439
437
442
440
435
427
428
435
443
443
435
435
442
449
454
456
453
452
455
456
460
458
458
453
451
450
448
451
457
462
462
462
460
463
467
464
463
462
464
468
465
467
465
460
463
465
468
471
476
472
461
462
467
466
471
475
479
482
483
484
485
485
484
484
484
483
484
485
485
488
491
491
489
490
489
492
496
496
493
493
493
498
505
509
510
509
508
512
515
513
510
508
506
510
512
513
512
514
517
518
520
515
516
522
518
512
512
510
510
510
512
525
528
528
529
528
526
529
538
545
548
547
547
555
569
574
571
568
568
568
565
562
560
559
565
571
574
578
581
583
588
589
586
576
572
576
582
585
584
578
580
579
583
580
578
579
578
576
575
574
573
573
571
568
566
563
566
563
559
554
549
553
554
549
545
548
548
545
543
543
541
538
534
531
526
527
525
521
517
513
510
511
505
502
497
495
495
491
487
488
488
482
466
452
448
450
459
463
459
457
456
461
453
439
435
437
431
418
413
422
429
424
414
404
406
412
417
417
412
409
416
418
411
400
396
403
406
411
406
403
407
410
403
400
400
398
401
406
405
407
402
398
405
410
410
414
418
418
417
418
418
416
414
413
416
421
428
435
428
419
424
432
436
434
433
435
435
437
431
428
430
432
430
430
430
432
436
434
432
431
435
442
443
439
435
436
440
441
441
443
442
442
440
443
446
447
448
447
448
452
462
464
460
457
459
467
465
458
448
445
448
450
454
454
459
460
463
467
473
476
472
463
457
455
459
464
467
469
461
458
462
463
460
460
464
464
461
457
455
457
462
464
459
459
463
462
459
460
464
468
469
470
471
478
487
486
478
472
473
472
473
471
467
469
474
477
474
476
476
475
474
472
467
459
458
460
468
468
469
472
474
471
471
477
481
478
478
484
492
490
488
488
480
472
468
471
479
484
484
476
473
476
475
474
474
473
472
470
476
482
480
478
473
471
474
478
477
472
472
470
470
473
476
476
473
471
470
475
475
474
472
475
477
481
480
474
474
477
483
483
479
475
473
477
479
480
472
468
470
474
474
469
468
471
470
472
476
477
481
480
476
470
471
475
478
471
467
467
467
465
465
475
482
481
480
478
476
476
482
486
481
473
469
471
474
474
476
476
473
477
478
480
482
486
487
485
478
477
478
477
473
467
463
466
470
469
473
480
479
482
488
484
476
477
481
480
481
478
478
477
474
470
470
474
478
471
473
483
494
496
489
483
481
485
482
481
481
478
478
479
486
487
488
484
484
488
486
479
480
480
483
486
484
483
477
478
477
475
474
472
478
485
477
469
474
479
485
485
487
488
486
486
489
487
486
486
486
484
483
483
486
486
490
492
496
497
496
491
480
472
467
466
466
469
478
492
497
492
487
487
488
489
482
477
475
479
483
485
487
486
487
490
494
494
497
503
501
501
505
505
507
502
498
498
496
494
497
500
497
494
495
495
495
498
501
507
512
512
510
512
513
511
510
508
505
500
494
493
500
512
520
525
526
520
515
513
517
519
518
517
518
522
528
525
522
517
511
509
504
502
504
505
506
501
497
493
492
487
486
479
476
474
471
468
468
468
468
463
466
475
478
472
468
466
465
469
478
483
484
481
480
474
472
477
486
493
491
484
481
478
480
481
483
486
481
473
464
464
463
464
473
479
469
467
469
468
465
462
465
464
461
465
470
469
468
475
471
467
466
465
467
462
462
462
465
464
463
466
471
472
477
483
491
493
496
509
525
544
566
585
608
638
670
701
734
766
794
814
828
824
819
822
826
830
835
831
822
804
773
734
699
671
646
628
610
588
569
545
525
500
464
429
397
381
380
387
394
397
401
410
422
425
427
429
432
434
437
446
455
457
460
465
471
473
473
475
476
472
469
465
463
464
460
454
452
450
453
455
459
464
471
465
456
468
466
457
452
450
449
452
453
453
452
458
465
462
461
462
467
467
469
469
455
450
448
447
449
447
447
449
447
453
462
469
474
466
460
455
461
469
475
478
477
477
476
478
480
482
479
476
477
479
480
482
484
485
489
487
488
487
489
489
486
484
483
484
494
497
495
497
491
488
490
494
500
500
494
490
492
496
497
493
496
503
507
508
506
510
510
513
513
514
514
517
519
521
517
518
522
522
523
523
527
533
539
545
547
552
551
548
541
534
532
533
535
536
541
545
550
553
561
551
550
549
546
548
550
555
562
565
561
562
570
575
579
580
580
587
591
586
576
564
559
567
577
581
571
563
566
579
588
590
589
587
584
579
572
573
577
570
562
558
559
563
568
565
563
562
557
551
548
548
546
547
542
535
529
528
529
528
527
525
523
525
523
519
514
508
502
499
496
488
483
480
478
472
470
472
468
463
460
455
455
457
452
446
446
446
441
440
440
437
431
427
430
425
418
417
416
418
420
416
417
417
419
421
413
404
400
400
402
403
403
399
398
397
396
395
401
409
406
401
401
407
407
408
409
405
408
418
420
416
416
413
413
414
416
415
411
412
416
416
414
410
410
413
423
429
432
434
428
424
423
423
421
420
424
428
432
429
422
421
423
425
425
423
423
424
430
433
434
438
442
447
449
447
443
439
437
437
440
439
440
446
450
449
448
445
444
444
444
449
452
456
455
453
451
449
451
454
449
450
454
454
452
448
448
448
451
456
461
464
467
466
463
463
466
471
469
466
463
463
463
464
462
459
458
458
458
463
473
480
477
473
476
480
481
480
472
467
463
465
468
474
471
473
477
479
476
470
467
466
464
463
468
476
473
468
472
476
474
476
478
480
480
479
478
472
471
473
469
469
469
468
468
470
475
476
472
468
464
470
472
476
478
476
474
472
472
470
470
465
457
461
466
467
464
464
466
469
470
470
468
468
471
475
477
477
473
467
467
467
469
472
469
468
468
470
469
467
470
481
477
471
469
466
466
467
470
479
479
477
476
475
476
475
470
469
467
467
468
467
467
469
465
466
472
477
480
480
474
474
475
472
466
463
458
461
465
471
474
473
469
465
463
467
476
479
480
477
479
478
476
478
475
474
477
480
479
480
487
482
474
471
470
470
468
469
477
486
489
481
477
474
464
462
466
471
473
473
471
465
464
469
471
476
479
479
478
481
479
471
467
468
467
469
478
485
481
478
475
472
471
473
475
473
474
477
478
479
477
478
479
482
485
484
485
488
476
469
470
469
468
470
477
479
477
478
479
482
485
484
479
477
475
474
477
494
500
485
477
477
479
481
481
480
482
482
481
481
478
483
488
489
489
489
489
490
494
495
490
491
494
495
494
494
495
490
493
495
496
496
491
487
487
488
493
500
506
508
508
514
513
511
511
516
515
513
514
513
511
512
508
502
493
493
501
513
521
519
518
515
517
515
513
515
517
505
498
503
512
515
513
508
502
497
503
511
508
500
494
491
490
490
487
484
476
467
473
478
467
457
454
461
466
465
462
458
456
456
452
453
460
466
475
479
479
477
473
476
473
469
470
466
465
462
463
465
469
471
464
464
469
476
475
471
469
470
471
470
467
465
466
470
468
467
466
466
469
469
470
470
471
470
468
463
460
460
459
462
464
463
458
456
457
462
466
473
480
487
490
498
516
536
559
587
617
650
681
713
746
774
801
828
840
838
829
825
828
833
837
840
831
810
776
743
710
679
659
644
627
607
587
563
537
502
465
429
407
392
385
387
395
406
413
417
426
437
448
447
436
435
439
438
438
439
450
457
458
459
464
472
473
468
465
465
462
461
458
457
454
448
443
443
442
448
451
451
447
444
441
442
445
452
457
455
454
453
453
452
449
450
453
456
454
453
449
448
452
454
456
459
460
459
458
461
464
466
461
465
468
463
465
464
465
465
462
461
465
472
475
473
475
478
479
479
480
480
480
482
479
479
481
480
478
483
488
486
486
484
483
487
486
480
486
496
499
500
501
501
496
489
487
491
496
501
507
511
514
516
519
523
511
500
495
503
510
509
510
513
509
507
510
514
514
514
520
528
531
535
530
526
527
531
534
535
534
538
539
535
537
543
547
549
555
549
549
550
554
549
546
551
560
565
568
561
555
560
565
575
583
581
577
568
562
570
574
575
576
575
578
588
591
585
581
588
588
576
563
561
560
563
567
575
575
570
567
566
565
560
557
557
557
559
558
555
552
552
551
547
542
539
536
535
537
539
535
530
522
519
515
507
502
503
507
504
497
496
493
489
486
481
481
477
476
468
459
456
458
458
457
456
448
446
445
436
428
429
431
423
418
422
422
417
413
410
413
416
414
407
406
408
405
403
404
406
405
407
408
405
401
402
405
403
401
398
398
397
398
402
410
419
417
413
407
402
405
411
412
415
410
400
400
408
414
417
415
414
417
419
425
423
412
409
412
414
416
417
421
427
432
434
431
427
428
433
432
429
426
425
431
440
442
445
442
438
435
439
437
436
436
436
443
445
445
442
443
446
444
439
436
439
446
451
451
447
445
447
448
450
454
456
457
457
457
454
449
449
454
453
456
457
456
456
458
464
468
465
464
465
468
468
460
454
450
450
456
463
466
463
464
464
475
484
478
473
472
469
465
459
460
462
468
475
471
464
465
472
470
465
467
480
488
487
480
473
476
475
464
452
453
463
477
481
472
468
467
468
471
478
476
467
470
471
470
466
463
458
456
461
469
474
475
478
481
479
474
471
473
480
488
485
477
474
474
474
472
475
480
479
479
476
477
475
476
476
478
477
472
471
471
470
469
471
472
470
470
467
467
474
478
481
480
475
472
472
471
472
469
463
461
458
464
473
476
474
476
480
484
486
485
483
475
473
472
472
475
481
481
479
474
474
482
487
479
468
467
470
471
481
487
481
470
466
467
465
462
466
468
471
474
476
476
476
475
468
462
461
463
463
466
475
481
490
488
483
476
474
468
460
457
455
462
475
484
487
487
486
486
483
481
481
480
481
481
477
475
476
477
477
477
482
484
485
486
480
479
477
475
476
479
482
481
482
482
475
471
472
474
477
482
484
482
481
477
478
481
486
487
484
485
483
480
481
482
482
484
482
479
479
480
481
486
484
485
483
481
481
483
480
479
480
482
480
480
481
479
481
480
479
481
485
485
487
494
491
488
488
481
477
483
493
490
480
477
481
484
483
482
478
481
482
483
484
482
480
487
492
492
494
505
503
490
481
484
493
490
485
484
487
490
490
486
481
485
491
499
506
506
505
503
506
502
491
491
504
513
513
514
519
516
515
517
517
512
509
507
509
511
514
516
515
510
508
512
517
518
514
511
510
510
510
512
510
506
504
503
501
500
504
506
499
492
481
475
477
478
478
476
473
468
467
468
467
467
464
463
468
478
484
476
476
478
477
474
471
474
470
468
466
465
465
470
472
477
476
472
471
467
466
465
467
466
470
470
472
472
468
473
480
478
484
491
484
466
459
466
477
471
464
459
457
454
459
464
467
462
452
448
450
446
447
444
445
447
443
446
455
464
470
482
496
505
520
542
561
587
619
651
684
720
747
771
794
813
827
830
824
819
825
831
838
842
836
818
800
768
732
699
678
667
658
645
629
605
575
541
511
482
456
430
407
401
399
400
404
415
423
428
434
435
437
442
448
451
452
449
450
449
453
461
467
463
455
446
442
445
448
450
446
439
435
438
440
443
449
454
456
453
450
446
443
438
438
441
444
446
448
460
464
456
442
442
451
450
454
452
445
440
441
440
441
448
451
456
459
452
453
455
453
447
449
456
456
448
448
453
462
470
466
462
464
464
462
459
460
465
472
475
470
468
469
471
471
472
480
481
481
480
476
475
471
470
475
479
481
481
486
497
502
494
482
475
479
489
499
500
496
493
491
494
497
500
504
507
505
502
499
503
509
511
516
520
519
518
519
521
519
519
521
525
519
517
516
519
520
524
525
524
527
533
541
547
549
548
547
548
547
549
553
555
555
554
555
558
562
558
558
564
567
565
566
571
576
577
576
581
585
580
567
567
574
582
578
575
580
583
583
587
589
585
576
568
560
554
552
553
555
560
566
566
564
563
556
545
543
545
554
559
554
548
543
543
545
543
534
526
521
519
521
523
520
511
513
519
521
516
506
493
489
490
488
487
487
478
472
464
461
462
468
464
458
453
449
448
448
446
443
440
434
430
428
428
424
422
420
416
415
416
418
419
417
414
409
408
412
408
405
404
404
403
405
403
399
398
400
402
408
413
414
412
405
401
392
393
395
401
403
408
414
411
405
405
405
410
418
424
427
427
419
419
423
426
426
425
424
418
414
414
417
413
408
411
417
419
425
428
431
435
437
434
431
425
426
428
438
444
453
455
450
447
440
431
425
432
436
433
436
442
440
440
444
449
449
447
443
445
446
444
448
448
445
444
447
453
461
461
451
448
452
457
459
458
460
458
454
454
459
463
462
462
461
461
465
464
464
464
460
460
461
465
467
464
461
465
464
461
460
464
467
465
464
467
468
465
462
470
473
474
473
475
475
469
468
468
468
468
466
464
464
466
472
479
481
486
482
481
485
486
483
478
471
464
469
470
461
460
467
477
478
477
476
477
475
473
472
465
457
455
457
461
468
470
470
475
483
491
491
485
480
481
484
487
494
491
473
460
453
455
461
464
466
467
468
466
462
460
462
465
472
476
479
475
470
468
469
469
468
467
466
469
473
475
478
480
479
477
474
473
471
468
468
468
464
465
467
468
469
467
473
476
479
485
486
481
477
470
465
467
470
475
479
476
469
471
479
480
481
482
483
480
474
470
469
470
475
475
472
472
478
479
478
473
471
471
474
482
483
483
479
482
481
475
471
467
464
463
468
474
474
482
487
487
479
474
477
485
489
490
489
490
491
485
483
485
486
487
488
493
491
480
472
469
472
473
474
474
480
489
486
476
472
475
479
475
465
466
469
472
474
475
473
474
475
474
470
469
476
477
479
483
489
490
489
487
486
483
483
485
487
484
488
490
487
484
480
477
480
480
478
475
471
471
473
472
474
474
475
474
477
479
479
478
480
486
488
491
498
493
487
483
484
485
484
487
488
489
480
480
482
480
478
481
482
483
484
481
483
483
485
487
490
492
495
502
502
498
494
491
497
501
502
503
504
504
502
496
496
495
492
489
491
494
497
503
511
511
510
511
516
522
525
525
526
532
529
520
512
511
512
510
506
505
507
510
517
522
524
522
521
523
527
523
516
513
507
504
504
508
511
502
498
502
506
500
498
492
491
489
489
490
493
493
490
487
480
474
465
459
460
461
465
472
474
471
461
462
463
465
464
460
467
475
478
474
475
478
481
477
470
468
471
474
475
473
464
461
463
465
468
471
470
471
476
478
474
469
466
465
466
469
469
470
471
471
466
461
459
462
460
459
465
469
468
462
460
465
466
461
457
456
455
457
459
466
477
482
487
496
500
517
540
568
601
633
664
695
724
752
774
797
825
850
864
860
848
850
854
864
868
859
846
821
789
757
720
693
671
655
635
617
595
568
537
507
471
430
404
391
390
393
397
406
416
421
426
430
429
430
427
433
439
444
452
458
459
462
464
464
464
465
466
463
458
454
444
441
445
447
444
441
440
439
439
443
450
452
442
426
420
428
444
458
459
450
443
443
445
451
452
451
448
445
447
453
449
445
449
452
452
451
451
451
455
459
462
461
457
454
461
464
463
466
465
464
465
461
463
467
469
474
476
473
475
476
476
477
482
484
486
487
487
492
492
491
486
478
476
481
482
484
484
482
489
495
499
502
504
498
495
493
494
496
500
499
497
491
493
496
501
505
507
508
508
508
512
516
522
521
513
513
514
521
523
518
515
519
527
528
529
535
540
535
531
530
530
535
541
539
538
540
541
542
543
544
547
549
550
550
559
562
562
563
567
572
580
577
572
572
571
570
571
573
578
578
564
557
567
588
599
598
596
591
591
586
585
585
587
587
584
580
581
583
582
576
570
570
567
565
563
561
562
563
567
559
553
548
550
551
553
553
548
539
535
538
536
535
532
528
533
536
532
522
512
507
497
490
490
489
489
488
478
473
473
476
473
469
467
468
469
460
443
433
431
432
431
427
424
422
419
417
417
417
417
416
415
411
411
411
411
412
412
412
414
413
414
413
407
399
397
398
401
409
414
410
403
401
400
399
401
401
403
401
400
403
402
402
404
411
422
425
422
424
423
427
423
419
423
423
418
420
422
427
430
430
428
423
421
422
426
429
432
433
430
425
427
435
433
430
433
436
437
436
436
437
434
434
435
432
436
441
446
453
460
459
459
458
456
456
460
463
457
450
450
448
448
451
454
453
453
454
456
457
459
464
466
469
472
477
480
474
456
445
448
453
457
454
459
458
455
455
459
464
463
463
464
467
469
468
465
460
462
467
469
472
473
471
471
470
468
468
467
471
470
463
463
466
475
478
473
471
470
469
470
469
477
486
500
492
476
474
476
475
477
473
471
471
468
471
471
473
475
475
476
475
480
480
481
480
476
475
474
467
468
478
486
480
476
477
481
482
483
484
481
479
475
473
471
470
473
474
474
471
472
475
477
479
479
478
484
486
479
475
475
476
474
475
476
474
471
471
477
480
478
475
474
473
473
473
481
485
488
488
492
496
492
483
481
483
492
490
482
475
476
475
467
465
463
464
470
471
473
476
474
472
472
473
474
475
478
477
480
478
474
472
467
468
470
475
480
486
490
489
486
483
479
479
480
478
477
476
477
473
477
483
493
490
484
479
479
479
480
486
479
478
481
486
487
482
478
475
480
490
489
485
488
490
482
480
484
482
479
486
485
486
488
489
488
486
484
483
484
484
479
479
479
481
482
484
487
486
488
491
490
489
488
489
487
485
489
501
506
502
500
493
482
484
487
480
479
478
477
485
489
489
483
481
478
476
475
475
473
471
472
476
479
480
482
480
469
470
479
491
491
487
481
476
478
480
479
478
478
478
484
486
484
483
480
479
482
486
483
485
490
487
486
483
482
487
497
498
500
501
491
485
483
489
495
496
499
501
497
496
503
505
498
498
499
499
499
501
500
498
493
493
496
498
501
500
500
503
506
509
510
512
516
521
522
519
521
522
522
520
518
519
517
512
509
509
507
507
507
507
508
510
512
516
517
519
523
525
532
532
521
512
515
519
517
512
508
508
509
508
504
501
496
490
484
478
472
472
482
482
484
482
476
476
475
470
467
468
465
461
460
461
465
471
471
468
465
466
471
475
475
471
472
473
470
468
468
468
484
485
480
479
479
478
475
472
473
474
476
473
473
476
482
486
487
484
479
486
479
462
456
465
475
475
470
465
464
462
460
458
460
464
466
460
458
461
460
462
469
470
477
485
494
500
503
513
534
561
585
612
640
673
705
736
767
793
819
838
847
845
834
825
830
842
849
844
831
812
784
743
704
678
660
646
627
614
601
572
543
512
474
435
404
388
386
391
403
413
421
433
440
433
432
438
439
432
435
441
448
459
470
474
471
474
480
481
474
466
465
470
471
463
455
447
443
446
452
451
447
444
441
446
450
450
445
449
454
449
444
444
443
445
446
447
450
457
461
456
451
451
451
449
450
449
453
458
456
456
457
459
460
461
461
461
462
460
463
465
471
478
480
481
480
481
482
483
476
471
471
471
474
479
487
491
488
483
482
480
481
483
482
484
487
491
493
493
494
490
485
483
486
486
492
496
493
487
494
503
507
510
513
510
508
508
506
505
508
514
521
524
524
526
529
529
523
519
519
520
522
521
517
518
519
521
529
526
517
517
519
531
543
547
550
556
554
547
546
547
546
552
557
562
564
565
565
565
565
568
573
571
562
564
564
566
566
570
575
579
582
583
586
584
579
578
582
585
585
582
579
581
580
578
580
585
586
578
569
571
570
567
564
561
559
557
557
559
561
565
561
557
554
551
547
544
544
547
541
541
540
534
526
518
524
529
526
518
516
510
506
505
495
491
495
494
491
486
484
482
480
476
468
462
457
455
452
450
451
452
452
451
447
443
444
441
436
433
431
432
435
435
434
432
429
425
427
426
427
427
418
404
393
386
388
394
400
402
404
408
411
416
420
410
402
397
400
411
420
419
418
418
417
421
421
416
410
410
410
413
417
421
422
417
413
410
410
412
416
420
421
424
425
431
431
429
428
429
430
431
428
427
431
432
435
439
440
439
438
434
433
433
432
435
436
438
436
437
442
444
446
449
455
454
454
452
449
448
449
448
442
445
450
455
457
461
462
458
458
457
462
467
464
459
458
463
467
475
480
473
466
465
465
467
467
466
470
468
471
470
468
466
464
465
464
463
466
469
471
476
479
479
489
492
488
483
480
476
468
465
466
468
466
468
469
463
461
462
467
470
463
456
452
451
458
468
479
493
497
495
490
486
486
488
478
471
471
474
469
463
465
465
468
469
472
477
484
489
486
485
484
481
478
479
480
481
481
474
475
476
475
473
471
476
480
480
479
472
468
471
472
471
472
476
482
488
492
491
492
482
471
469
471
478
482
478
479
480
479
479
479
479
479
477
478
475
472
472
471
471
474
480
484
483
484
479
476
474
472
477
480
482
483
478
477
476
478
474
473
476
475
475
477
479
476
473
476
477
473
473
477
482
486
486
481
478
476
475
480
481
483
489
496
491
480
471
475
478
475
471
465
466
467
470
472
466
464
461
462
465
461
462
477
486
479
473
483
495
489
486
488
483
478
476
477
473
475
474
478
480
485
485
485
487
483
477
476
479
480
481
477
476
473
473
475
476
478
477
477
481
483
479
473
480
495
499
497
499
504
500
484
475
473
473
474
478
480
479
477
475
478
481
480
480
481
480
480
480
481
482
481
485
485
485
483
483
486
489
493
485
483
482
484
486
484
484
484
484
485
486
487
486
487
489
490
491
493
495
497
495
491
491
493
497
501
502
501
501
496
497
497
504
504
506
505
509
521
526
527
528
532
520
513
516
520
516
510
512
510
506
502
501
501
504
507
513
516
514
508
505
503
511
522
530
529
524
519
514
515
514
508
501
498
498
496
501
509
506
498
491
484
478
479
483
484
480
478
478
474
475
475
473
471
474
475
474
469
464
465
465
462
462
463
465
466
468
469
468
470
473
471
472
471
475
479
474
466
465
468
467
466
464
465
467
468
471
470
469
469
467
465
464
467
469
469
469
468
475
477
476
473
468
467
472
471
467
462
460
464
474
478
479
476
472
479
484
489
489
491
497
509
521
535
560
587
618
644
678
716
738
762
788
811
831
838
832
825
829
837
844
845
840
826
788
743
709
688
674
656
639
619
597
571
535
501
467
428
399
380
378
379
383
395
408
414
420
426
429
430
435
442
441
449
449
449
454
460
466
472
474
471
466
462
462
462
464
462
459
457
456
453
450
449
449
447
449
452
458
463
463
461
458
456
456
455
453
455
451
453
456
455
454
453
450
452
459
462
460
460
457
459
460
460
465
466
463
464
468
469
469
469
468
466
471
477
481
481
478
474
476
483
481
472
467
473
479
477
472
476
482
478
477
484
490
490
494
497
491
480
480
476
477
477
484
494
500
504
507
505
496
484
478
482
485
489
505
514
515
515
514
510
509
512
516
518
520
522
521
519
516
518
520
518
521
524
523
520
519
518
518
520
527
533
537
544
547
552
548
545
545
553
559
558
555
553
555
556
557
558
563
566
567
571
574
573
570
574
575
574
581
582
581
582
586
583
576
578
580
577
577
576
573
576
582
589
586
581
579
579
580
580
576
573
570
568
562
558
559
564
574
578
571
563
556
558
561
561
561
558
550
542
538
537
537
543
543
544
538
531
530
529
519
501
487
476
478
483
481
476
467
466
466
464
460
454
451
450
451
455
456
450
445
437
435
432
431
426
421
422
421
420
418
416
417
417
419
421
420
416
417
415
410
408
406
400
396
396
400
404
404
402
402
406
405
401
399
402
406
409
405
402
402
406
408
407
406
406
406
410
408
407
412
416
417
416
416
422
424
419
414
409
411
413
420
426
420
415
420
424
424
423
425
425
424
428
425
425
428
431
428
423
423
431
442
451
455
448
437
432
432
433
435
439
439
444
449
453
457
460
459
450
439
433
433
435
437
443
452
457
455
452
446
443
447
452
455
462
465
461
454
453
453
453
450
452
457
461
460
463
469
473
471
470
467
467
469
473
476
478
475
475
472
468
464
463
463
463
465
467
467
468
472
471
468
468
472
475
477
475
475
471
465
464
466
470
473
473
473
475
478
468
459
462
469
471
477
479
472
471
471
470
465
465
467
468
475
483
488
489
488
483
478
475
475
476
477
473
472
472
470
471
473
474
475
476
475
471
475
478
487
484
481
480
480
478
479
477
473
470
471
476
477
476
473
471
469
466
469
470
473
474
474
474
474
471
465
467
470
472
468
469
475
476
475
472
476
480
484
487
486
474
467
465
462
459
459
465
469
473
472
469
469
470
470
470
472
475
478
478
481
480
479
476
475
477
480
480
477
477
479
483
484
472
469
475
477
471
470
472
466
462
465
466
470
475
468
462
467
473
476
478
475
472
473
480
484
484
482
480
478
481
483
482
474
473
476
477
476
476
471
469
474
475
478
485
488
484
477
470
469
473
480
484
487
486
484
480
479
483
484
485
485
486
486
485
482
479
477
474
476
484
485
484
487
487
480
480
476
472
476
481
486
492
490
485
480
480
482
480
480
479
486
481
477
477
480
481
474
467
474
480
474
471
479
492
493
486
480
477
472
473
476
480
483
482
480
483
480
478
480
484
487
487
484
483
487
496
493
490
493
492
493
495
495
494
496
501
499
492
487
484
486
489
494
501
503
502
501
501
508
512
510
513
513
513
515
512
509
505
507
516
514
515
518
519
515
517
518
514
512
512
511
515
514
511
509
509
508
509
510
512
509
510
507
508
509
507
501
500
499
492
487
487
488
488
486
484
484
482
479
478
477
473
467
469
470
467
463
460
461
466
471
475
483
488
486
477
471
471
472
465
455
452
452
456
459
462
468
469
471
469
463
458
462
467
471
469
468
467
469
467
469
472
471
466
466
466
468
470
471
470
472
472
469
467
464
458
457
456
459
457
455
451
445
444
449
458
469
480
485
490
500
517
543
568
603
638
665
687
715
745
774
797
819
830
826
818
823
833
844
846
843
832
816
792
763
730
699
679
666
656
645
627
601
569
540
508
473
442
423
408
403
408
415
420
423
424
428
427
427
429
433
440
449
455
460
461
468
469
461
457
456
455
456
451
447
445
443
444
442
439
439
438
437
436
435
436
435
438
439
439
436
434
434
435
440
443
442
440
429
431
442
449
448
450
449
446
449
456
458
459
455
450
448
446
453
465
473
468
462
461
464
469
470
467
462
458
459
464
463
464
464
467
471
472
473
469
465
465
470
473
472
473
474
475
474
477
482
486
487
486
484
484
480
474
474
477
482
485
485
485
488
493
501
506
505
512
517
517
506
502
502
497
497
502
499
500
506
511
510
505
509
512
514
510
505
508
507
508
510
511
514
519
523
528
532
532
533
533
533
537
536
538
543
542
541
539
541
545
546
549
556
565
568
562
554
547
551
555
559
563
569
576
580
580
573
574
579
573
563
562
563
569
571
572
578
576
574
574
578
582
577
574
571
567
564
565
565
566
568
566
564
568
568
565
560
559
554
547
546
540
537
536
535
534
532
530
529
532
528
525
521
517
505
496
494
490
488
488
490
488
487
483
477
475
471
465
460
456
452
446
446
445
443
438
433
428
421
422
423
421
422
425
428
424
424
433
435
423
413
412
413
414
415
419
418
418
418
414
408
405
407
404
400
400
399
399
399
400
399
402
407
412
413
406
403
400
403
405
409
417
424
412
401
403
407
412
412
417
426
429
424
420
416
415
419
423
418
414
414
417
425
430
429
429
428
431
433
428
430
432
434
433
436
437
439
435
429
428
431
436
439
436
434
440
449
452
448
444
444
444
443
444
444
449
453
455
453
450
453
455
457
454
457
458
455
455
455
455
453
452
445
440
447
455
464
462
456
452
449
450
455
456
455
453
453
460
467
473
475
474
468
466
469
474
476
480
481
480
481
475
469
465
463
464
466
462
461
465
469
465
458
454
457
462
465
470
471
472
478
476
472
459
454
455
460
464
469
470
471
469
469
467
465
467
470
472
478
476
469
474
477
472
468
465
472
479
472
468
463
466
467
469
468
465
465
468
470
470
473
475
475
474
473
468
466
470
470
471
471
469
466
466
468
466
468
473
475
472
474
478
481
480
475
481
488
477
464
462
470
479
481
477
478
480
477
477
475
469
465
467
473
478
478
474
474
470
466
463
463
465
464
466
465
465
464
462
468
480
493
498
497
487
479
471
465
461
464
467
470
470
465
469
472
470
467
465
468
473
474
482
485
486
477
473
475
476
476
472
470
468
467
468
472
475
483
483
478
478
482
480
482
486
486
479
474
473
473
474
475
478
480
481
478
472
471
477
479
482
477
475
475
474
477
478
478
473
471
472
472
473
475
472
468
462
471
485
489
488
486
486
481
477
481
481
484
493
497
492
489
489
491
489
487
488
480
470
469
468
471
473
474
476
479
483
488
491
493
490
484
484
488
489
484
472
459
462
474
479
477
475
482
485
481
477
477
478
484
481
485
491
488
479
475
474
472
475
476
481
489
493
492
493
495
491
490
495
497
490
479
481
490
492
490
482
478
480
485
490
489
491
494
491
490
490
492
494
494
490
493
493
489
491
495
498
499
505
506
504
500
505
511
513
515
521
526
523
523
522
522
515
511
511
509
511
511
508
504
503
508
513
518
520
518
516
518
519
516
516
515
508
507
503
504
509
505
505
518
529
516
506
505
507
500
483
473
472
475
477
475
470
467
462
463
466
473
476
470
467
469
474
475
473
467
463
465
466
468
465
461
461
465
468
472
473
468
475
480
480
480
481
478
473
473
472
476
475
478
479
472
470
470
472
471
466
464
465
465
465
473
484
484
479
475
467
466
472
473
472
466
461
458
454
456
454
453
454
452
459
463
473
480
484
492
505
528
550
572
602
636
668
694
724
761
792
819
843
856
855
844
838
841
851
858
870
865
837
801
770
736
705
687
671
661
648
629
606
571
538
512
480
446
422
407
398
397
404
416
425
430
431
427
421
432
449
462
461
456
464
468
468
469
468
463
460
459
458
458
459
457
453
448
445
444
442
440
440
443
447
449
448
448
447
446
450
452
448
441
438
434
435
439
435
431
439
450
450
445
443
442
437
441
456
466
462
456
453
455
458
460
457
455
456
458
459
463
462
461
462
460
460
460
460
461
462
461
462
461
461
467
475
481
480
483
487
487
483
480
478
480
479
481
483
485
489
492
491
492
491
493
497
496
494
491
491
493
494
493
494
496
500
497
498
505
515
520
513
503
501
501
502
505
504
512
523
529
529
528
528
529
530
528
520
521
529
529
526
531
535
537
539
542
540
539
541
546
548
550
550
555
557
552
554
564
572
577
580
571
562
555
552
552
557
565
571
572
572
567
564
565
569
574
577
576
575
578
586
590
590
589
587
587
588
588
587
585
579
574
570
571
574
576
575
572
572
569
571
573
564
557
547
545
544
544
543
543
540
539
539
540
537
534
530
526
527
524
515
506
504
505
501
493
491
491
488
486
483
477
473
472
469
463
460
455
454
451
449
445
444
442
440
442
442
435
431
427
423
420
420
419
417
414
415
419
422
423
422
416
412
413
416
420
416
407
408
406
403
408
411
415
416
412
407
407
410
408
408
408
406
403
402
407
412
416
417
413
411
404
402
406
413
415
418
414
417
428
427
421
424
425
427
430
433
429
426
426
429
434
435
434
435
436
436
437
439
443
441
439
439
437
435
435
437
439
441
444
443
443
447
448
448
445
449
450
449
445
443
444
447
450
453
454
454
452
453
451
452
454
458
460
459
464
463
463
461
462
458
458
457
461
464
466
468
464
462
461
462
466
469
471
468
470
468
470
471
469
470
470
470
474
478
473
472
476
476
475
472
472
472
472
472
476
482
491
492
486
478
477
476
471
466
467
473
480
480
475
468
467
473
483
483
477
474
468
463
469
474
478
479
474
456
448
448
452
464
482
485
482
483
487
483
477
477
479
481
479
477
476
474
473
475
478
478
474
474
475
476
478
476
479
482
483
479
479
481
477
472
472
476
477
476
475
477
481
482
480
478
479
477
473
475
483
485
481
478
475
470
468
472
480
483
482
479
476
472
473
471
473
473
475
478
484
488
484
480
483
482
480
477
477
475
476
479
481
484
487
488
485
479
473
469
469
470
469
467
469
471
470
470
477
480
477
474
477
483
485
481
481
484
480
473
470
468
473
482
494
495
485
478
472
471
472
475
476
474
471
474
475
478
480
481
488
488
488
485
480
475
472
474
480
486
489
488
486
484
484
484
483
483
484
482
481
481
485
487
486
478
469
470
471
476
481
480
477
477
477
478
480
486
487
488
486
488
491
490
487
481
480
475
476
480
477
477
482
484
486
482
478
483
487
487
483
480
480
483
486
484
479
480
482
483
483
483
485
485
485
484
480
483
490
490
489
491
492
487
483
485
484
487
491
493
491
486
484
482
480
482
488
491
493
494
494
494
494
498
496
493
487
487
487
484
485
491
498
509
512
508
505
503
508
504
500
499
501
503
505
509
511
511
514
521
526
520
508
507
510
510
504
499
498
495
495
502
510
507
507
512
510
511
510
507
502
508
514
516
518
517
518
519
520
517
514
514
517
522
522
519
519
518
513
509
508
504
502
499
496
491
484
481
478
474
475
481
479
472
465
464
468
468
467
468
468
468
466
468
466
469
472
470
466
468
471
472
475
475
473
471
469
470
471
470
470
469
472
470
470
471
473
473
473
470
470
471
471
470
469
471
471
471
473
475
472
474
478
478
477
477
477
472
466
465
464
462
465
471
469
463
466
476
491
495
499
500
493
491
507
528
548
566
592
626
657
684
712
739
766
791
812
819
821
820
825
831
838
840
840
829
818
798
761
720
687
667
658
644
621
601
581
558
523
478
440
410
393
387
390
396
405
414
424
432
434
434
432
435
439
445
454
458
463
468
470
472
471
473
471
471
468
467
464
458
452
451
451
457
456
457
457
454
453
453
453
455
458
455
452
452
454
452
453
452
450
445
447
449
450
449
450
454
459
461
460
460
463
465
467
469
474
476
474
467
459
457
455
453
453
455
461
466
471
470
470
470
462
454
458
467
472
478
482
481
478
479
480
490
496
476
465
471
477
479
481
480
476
474
471
466
469
477
488
495
497
496
489
491
506
513
511
508
504
494
496
501
509
511
508
505
504
502
497
498
510
523
524
525
525
524
527
527
530
529
527
525
527
527
527
532
534
535
535
538
538
538
538
536
535
536
545
554
560
561
561
559
561
561
561
561
563
563
564
566
565
571
570
572
573
578
580
580
577
579
580
581
583
582
586
581
574
578
579
578
576
573
574
576
576
575
577
580
580
583
585
581
582
583
581
580
568
558
554
555
553
544
536
535
534
534
531
526
528
527
535
542
531
513
504
497
497
498
497
494
491
487
480
474
466
465
464
460
457
457
458
454
450
447
445
447
448
446
447
448
443
441
445
450
444
435
428
425
424
422
420
413
412
413
414
414
414
416
412
409
407
406
403
399
402
407
409
411
414
413
412
415
414
413
415
415
414
413
416
418
419
419
416
417
414
411
412
415
420
425
426
426
424
422
420
422
427
425
424
428
425
426
427
427
428
427
431
435
431
434
436
439
443
437
427
422
423
427
426
428
438
443
444
445
450
451
442
437
440
441
445
443
438
435
436
435
441
445
451
457
462
457
451
451
455
458
454
455
452
447
448
454
460
458
456
458
460
464
465
463
461
463
466
466
461
462
459
463
465
466
462
459
460
467
470
473
475
473
473
472
472
467
463
468
472
469
470
477
479
476
475
472
470
472
473
472
475
477
483
480
474
475
474
474
471
471
468
468
471
475
475
474
473
476
477
477
477
474
473
475
474
475
477
473
474
478
481
482
478
473
474
473
474
476
473
469
471
471
471
470
467
466
471
480
487
488
489
482
474
478
483
478
474
476
475
473
473
471
473
478
486
484
479
473
470
475
476
476
476
474
476
482
483
484
482
474
465
454
453
459
463
464
466
468
468
472
472
468
470
475
481
479
473
470
473
474
471
468
469
471
477
476
472
464
462
471
478
480
478
477
477
476
475
473
473
474
474
475
476
477
476
476
472
468
467
472
472
472
467
464
467
474
475
479
481
485
483
477
474
473
471
474
476
477
475
473
470
478
490
498
498
495
493
488
487
483
480
478
483
484
482
481
476
477
480
480
480
480
481
484
487
484
486
487
488
493
496
497
500
494
487
484
480
473
467
470
473
475
478
480
483
486
483
483
487
489
486
486
485
487
485
474
469
469
476
478
473
467
469
472
476
479
476
475
477
477
475
478
481
485
487
482
483
484
487
483
480
486
488
484
477
477
484
494
500
498
497
497
495
492
496
501
501
495
491
488
490
490
495
508
519
524
521
517
518
522
525
528
524
518
517
514
507
505
506
508
508
504
500
499
502
507
511
511
510
510
514
524
522
516
517
519
516
511
511
512
512
510
506
504
504
504
505
506
503
500
492
484
480
480
480
478
476
476
473
469
465
465
467
468
464
465
468
473
477
466
460
460
464
464
469
470
470
464
465
467
470
473
471
474
477
476
473
473
471
476
475
469
465
463
464
469
471
471
469
465
476
495
484
465
459
456
454
454
458
465
470
469
464
456
455
464
469
469
469
464
457
456
457
457
455
459
470
481
489
495
502
515
531
548
570
588
610
641
671
696
723
754
782
812
840
853
846
841
842
848
853
854
846
821
789
750
713
688
670
651
629
608
590
568
544
515
475
433
403
385
380
385
396
403
414
419
428
432
430
428
433
435
442
443
445
450
458
466
474
478
475
471
472
470
467
465
462
457
453
448
443
441
451
456
453
448
452
462
466
465
459
459
463
463
462
467
469
464
463
459
449
437
436
444
451
444
438
438
439
439
444
447
452
451
449
457
466
469
467
464
460
460
465
465
464
458
459
462
467
472
473
471
470
474
481
483
479
476
476
480
481
476
474
474
477
478
477
474
482
492
493
492
494
498
495
495
499
500
500
499
499
499
498
500
501
496
492
495
495
497
500
500
503
508
514
519
517
515
513
513
511
508
507
518
518
519
524
529
534
532
534
535
533
533
534
538
540
543
544
546
542
542
542
543
541
537
539
554
565
568
566
567
566
568
572
580
589
591
581
573
574
581
580
574
569
573
576
573
577
585
587
589
586
580
576
576
576
574
578
584
582
579
572
568
559
558
556
555
554
555
562
566
565
558
549
546
551
557
554
555
553
548
539
529
533
533
525
523
520
519
517
515
511
511
512
503
487
485
492
490
482
475
472
467
459
452
449
447
445
444
444
445
443
442
439
435
433
432
428
425
425
424
424
423
423
420
419
415
407
406
411
416
410
408
406
402
401
405
409
407
410
412
406
399
399
400
404
406
404
404
411
416
415
416
417
417
415
416
417
413
413
408
409
411
412
415
413
409
412
412
415
414
416
424
428
427
431
432
432
433
429
418
420
423
422
425
433
434
435
438
438
438
435
436
440
443
437
424
418
422
424
430
441
444
445
445
444
440
442
446
446
448
447
448
452
454
459
459
455
449
443
441
440
441
445
450
454
456
458
458
457
457
459
463
464
463
464
470
476
473
465
465
467
462
461
460
461
466
469
469
468
469
469
470
471
471
467
469
470
472
471
470
470
471
471
469
468
472
476
476
477
477
474
476
478
477
475
475
473
472
473
473
476
475
473
471
472
475
476
478
482
482
479
479
474
467
464
460
463
469
468
467
477
488
493
498
496
487
480
478
480
479
470
462
463
469
478
487
488
483
475
474
475
476
474
470
469
468
467
467
468
474
475
465
459
458
463
466
467
471
470
473
476
477
473
470
468
472
475
479
478
477
475
478
478
475
474
475
474
476
482
479
469
467
469
473
476
477
475
476
473
469
469
475
477
475
474
477
480
481
479
479
481
473
466
468
471
469
467
464
470
474
478
479
476
473
473
473
476
474
476
479
482
480
476
475
474
471
471
475
479
478
475
480
485
489
490
479
471
473
476
480
487
492
493
489
482
478
477
473
473
473
476
480
481
480
479
479
470
465
472
472
472
474
475
483
484
482
484
486
488
490
491
490
482
480
483
481
480
483
479
473
478
481
478
476
476
477
479
483
487
485
479
472
472
469
469
474
475
476
475
475
477
478
480
478
481
484
483
479
488
496
494
494
499
498
491
484
480
478
482
482
479
479
479
480
482
482
482
483
485
486
486
488
488
486
483
485
483
479
484
486
480
479
483
485
493
499
495
490
493
495
495
496
499
501
501
495
492
494
498
503
505
506
508
508
505
504
504
506
507
513
524
532
528
519
518
517
513
511
515
517
517
515
511
506
507
510
510
503
499
501
506
511
514
516
519
521
521
522
520
512
502
499
499
501
500
502
506
505
505
507
505
504
499
494
494
487
480
483
477
476
472
465
452
449
452
453
450
456
472
480
483
481
475
471
472
468
468
468
465
465
466
466
467
473
479
477
474
471
470
470
473
475
474
471
470
470
474
480
482
477
469
470
474
467
463
465
470
471
469
466
465
468
471
472
472
472
464
455
451
453
451
452
451
446
446
453
465
475
480
489
496
500
505
518
531
546
568
598
629
655
681
710
744
775
799
823
834
833
825
822
832
845
851
853
848
829
795
755
724
695
670
656
643
631
616
601
575
545
509
474
436
414
401
395
394
406
420
434
445
451
449
438
421
419
430
440
444
451
456
461
464
460
456
460
463
462
463
461
457
451
447
445
447
453
454
452
453
453
455
453
444
436
437
439
447
447
448
451
454
456
445
440
440
443
446
448
447
443
439
441
448
453
452
449
449
450
449
455
460
460
460
461
461
459
459
458
461
463
461
461
464
463
461
462
465
464
465
462
464
468
472
478
489
492
487
483
488
490
493
488
482
483
490
495
494
493
495
490
488
491
489
484
484
487
491
499
501
501
502
502
499
496
500
504
507
509
512
507
504
507
509
510
507
510
516
522
523
521
521
523
528
534
540
532
528
525
527
526
526
530
534
535
533
530
533
539
548
555
554
550
551
556
559
559
560
558
560
564
559
554
554
554
555
558
562
565
570
576
578
576
575
574
572
572
573
569
567
571
574
573
574
571
573
572
573
570
564
566
571
574
575
573
571
569
568
569
564
563
558
553
549
546
545
544
545
544
540
534
533
533
534
537
526
518
519
522
516
506
501
495
490
486
483
481
479
477
477
475
471
467
464
459
456
453
448
441
439
438
438
443
440
434
432
433
433
429
422
423
425
430
426
411
404
408
411
413
415
412
404
404
411
414
414
416
419
415
414
411
414
419
409
396
393
393
395
399
403
402
398
399
398
398
396
399
401
401
410
419
418
415
416
421
424
421
420
419
418
420
427
431
432
429
427
427
432
433
435
437
436
436
437
440
446
447
443
432
433
435
434
436
438
439
441
445
447
448
446
443
439
438
442
447
449
447
449
448
446
445
450
453
449
450
454
454
453
454
453
453
453
452
450
450
455
458
458
460
461
457
452
454
461
468
478
481
472
464
463
467
467
469
469
469
464
461
462
464
464
462
464
468
464
466
466
462
463
469
472
472
471
471
475
479
478
474
472
471
469
469
469
469
465
462
463
470
478
482
480
475
471
467
472
470
466
465
466
463
464
468
476
477
476
478
484
482
477
476
478
473
467
467
471
468
465
468
474
477
477
477
477
476
473
471
474
478
480
481
479
474
474
480
483
480
477
474
470
472
473
469
467
467
466
467
472
477
477
470
467
470
476
479
470
464
470
468
458
458
467
472
473
476
475
475
473
473
473
472
474
477
475
475
474
473
475
475
473
471
468
471
476
475
478
477
475
475
476
477
475
476
472
469
474
479
484
483
479
479
477
481
487
484
485
488
487
475
468
468
467
466
472
480
488
485
484
483
478
476
479
481
477
470
464
460
463
467
477
485
487
489
490
487
488
489
489
483
477
475
475
476
475
478
477
473
475
477
479
480
480
477
476
479
481
481
480
481
482
485
484
480
479
480
474
470
476
477
474
477
476
476
483
487
489
491
478
472
475
481
480
478
478
478
475
473
471
476
480
479
483
490
490
491
484
480
479
482
487
489
487
482
477
480
480
479
478
479
483
482
481
487
487
489
491
491
483
476
479
484
486
486
484
486
490
492
497
495
489
484
480
482
484
489
490
486
486
491
491
491
495
502
506
500
490
481
482
482
481
482
485
486
496
505
504
496
497
500
506
512
509
499
504
515
512
507
508
510
511
511
511
509
509
508
510
509
508
511
513
512
509
509
505
505
502
505
508
502
502
505
512
513
511
511
514
516
513
509
506
506
511
521
523
523
518
512
511
513
514
509
508
502
498
491
486
483
488
487
481
479
480
481
473
463
460
462
459
464
470
470
468
471
471
468
463
461
463
467
469
472
468
466
465
468
470
473
477
477
480
479
476
472
471
470
473
474
475
473
475
474
477
472
468
467
464
470
473
470
464
468
475
480
480
478
477
471
466
462
455
452
451
448
446
445
444
446
445
447
451
457
468
473
477
488
500
516
537
559
588
627
655
681
712
744
776
807
828
839
842
838
834
841
849
854
858
853
838
818
788
756
724
708
688
671
657
638
613
585
553
525
494
464
439
421
413
404
408
416
417
423
432
439
439
438
437
437
442
442
450
459
467
471
471
462
457
452
449
453
454
449
442
440
443
446
439
436
438
445
444
441
443
445
447
450
451
447
446
445
446
445
444
448
452
457
459
464
468
473
472
462
449
443
445
443
435
431
435
438
442
446
443
448
457
460
457
458
463
468
473
474
473
475
471
469
463
459
462
466
469
469
471
474
473
472
469
468
470
478
483
486
484
487
484
476
477
485
492
492
488
485
483
484
485
490
493
497
494
495
501
502
504
507
504
502
498
497
503
504
506
508
509
509
510
508
511
510
511
515
521
527
535
540
536
530
529
532
534
535
537
538
534
532
532
535
539
543
550
552
550
545
545
549
553
554
554
555
553
552
555
559
566
569
569
569
568
568
573
576
580
586
586
585
592
602
602
592
585
586
584
578
583
585
583
580
