486
492
490
487
492
492
484
479
477
475
478
484
483
477
476
483
487
484
480
477
483
484
472
464
468
469
469
466
470
477
483
483
483
489
496
497
493
484
476
472
478
482
484
489
487
478
474
481
486
486
490
496
494
488
487
488
489
493
494
490
488
491
495
499
501
500
498
501
495
489
489
498
503
502
502
502
499
499
500
502
504
513
522
523
524
521
518
516
521
521
523
519
519
518
512
516
517
518
517
519
514
510
512
513
507
503
507
517
512
501
501
500
501
494
487
488
493
490
481
483
477
470
472
471
474
484
480
470
467
467
473
477
481
470
463
465
467
467
469
473
473
476
477
476
470
470
467
468
470
470
472
473
471
466
465
463
464
468
473
474
473
473
472
473
472
469
468
468
469
473
475
472
469
472
473
473
477
476
475
473
472
467
461
459
452
454
459
462
459
467
472
473
472
475
489
498
501
501
508
524
545
569
589
618
646
682
724
759
778
797
820
830
842
844
841
842
849
847
848
843
832
806
772
733
697
675
660
640
615
593
566
541
518
486
448
419
401
385
386
396
407
410
412
422
432
432
428
426
432
441
449
445
447
456
469
477
476
478
483
485
481
473
468
466
468
473
473
466
459
456
454
455
460
457
448
448
453
456
458
458
453
455
464
465
461
455
455
452
453
450
448
451
459
473
473
469
471
470
468
466
471
470
470
468
470
474
469
463
465
473
466
471
491
488
481
473
472
474
479
484
491
489
488
488
489
491
491
488
485
487
487
485
484
489
497
494
489
497
505
510
513
509
498
491
491
498
503
504
505
503
497
490
490
496
499
507
514
515
516
517
518
518
521
521
520
515
512
513
514
515
520
519
517
516
518
519
518
529
537
535
534
534
532
530
534
537
537
536
541
549
550
546
545
551
563
564
553
549
554
557
561
568
574
575
578
582
580
575
575
583
581
569
562
563
567
575
579
577
580
580
576
572
575
575
571
568
569
573
574
572
570
567
566
564
563
563
565
563
560
554
558
558
557
561
564
559
550
546
551
551
534
526
532
535
535
540
536
527
519
513
510
504
502
499
498
498
491
488
495
497
489
478
472
471
471
471
469
464
460
459
454
447
442
437
435
435
434
428
423
429
443
444
437
434
427
417
409
406
408
410
415
414
405
396
402
412
412
409
411
409
407
408
405
406
406
410
408
408
411
414
411
409
404
403
404
401
397
396
411
425
421
408
402
401
409
410
411
417
418
406
405
411
414
412
412
420
428
427
424
424
424
423
422
423
422
419
424
429
432
433
433
432
429
425
423
424
430
438
441
439
432
425
434
443
447
448
446
447
447
448
447
447
447
448
452
454
453
455
456
447
444
443
449
457
459
462
462
455
453
457
463
468
465
464
468
468
469
469
471
469
461
456
456
452
450
449
453
459
463
472
475
473
472
472
479
485
480
470
468
466
466
466
464
466
474
479
473
464
463
467
469
469
467
467
472
475
472
467
464
460
464
470
470
470
470
467
461
458
460
467
472
478
478
476
478
482
485
476
469
462
467
477
485
489
491
486
481
482
485
485
476
469
472
478
479
471
471
473
476
476
471
461
459
456
453
463
469
476
481
481
481
485
480
483
486
481
473
470
473
473
477
477
475
474
474
476
473
469
468
467
467
469
472
475
481
481
477
473
477
473
472
472
475
480
477
464
464
475
486
483
474
468
467
468
475
484
483
477
482
482
475
471
473
478
474
468
469
468
470
469
474
481
483
480
479
485
485
480
480
479
473
473
477
477
479
478
474
473
477
484
487
475
467
474
481
480
474
477
475
470
464
465
470
473
477
478
479
479
483
485
483
480
479
476
475
477
476
475
474
473
475
481
481
478
477
477
478
479
483
484
486
483
477
481
487
487
486
485
480
474
477
473
461
455
461
470
479
480
479
477
480
486
489
490
495
495
488
481
480
477
477
479
480
483
483
479
480
485
488
486
484
487
486
480
479
483
487
485
481
478
475
470
467
476
487
494
498
502
505
504
512
510
499
496
493
492
490
490
487
485
485
489
488
490
495
501
505
510
512
510
509
508
509
507
507
508
509
507
507
516
522
524
523
515
511
515
521
523
523
523
522
519
515
510
518
525
527
531
527
513
507
505
508
513
510
505
501
503
505
498
491
484
483
492
495
484
472
475
474
470
465
464
466
470
473
470
462
461
463
467
465
463
468
469
468
464
462
465
470
470
471
474
480
478
477
475
472
476
476
469
465
462
464
464
467
468
470
472
471
470
466
463
463
466
469
468
467
463
455
453
461
473
482
484
482
476
471
471
473
470
465
461
457
462
467
458
455
456
456
454
458
463
468
480
489
491
494
505
524
548
574
603
635
668
703
735
764
792
819
843
844
839
833
837
846
855
852
844
833
821
801
775
741
713
693
678
665
646
622
595
568
549
529
494
451
424
414
395
385
401
426
430
424
425
435
439
440
442
445
449
455
459
457
459
462
458
452
448
449
450
448
440
430
437
444
446
450
457
456
451
450
444
438
437
438
437
445
448
444
441
443
445
443
442
444
444
445
444
444
445
448
451
448
449
450
449
453
453
455
460
462
452
451
456
456
459
460
462
462
459
460
462
458
455
453
460
469
474
474
475
475
475
477
478
477
479
483
490
494
492
481
474
473
477
475
472
477
481
481
482
487
493
501
501
505
514
518
502
487
486
489
491
486
481
486
490
494
494
496
492
487
492
494
492
499
504
516
524
522
519
517
517
519
520
524
524
524
522
521
518
521
524
532
536
533
527
534
541
539
539
540
546
546
548
550
559
554
541
536
538
544
552
556
553
554
557
561
561
559
558
557
562
567
571
568
568
570
572
574
575
573
572
573
571
570
574
578
577
576
571
568
565
560
559
567
571
565
561
560
555
552
556
572
580
577
562
549
548
546
543
539
536
531
533
539
548
550
537
528
521
514
513
513
511
505
498
495
495
502
502
496
488
484
483
480
475
472
471
467
465
462
460
459
456
449
440
432
428
424
421
420
419
415
413
415
416
421
423
416
419
425
424
417
415
420
418
415
410
406
407
406
402
401
401
403
406
407
412
413
408
404
406
409
412
411
411
411
414
418
426
428
428
423
417
415
418
421
426
424
419
416
413
415
417
426
436
431
422
423
423
422
429
430
433
436
438
437
434
428
430
436
440
439
439
439
440
452
454
449
446
446
447
447
444
437
439
438
437
441
444
449
457
457
451
449
455
462
466
468
471
472
464
455
454
457
464
463
457
455
456
457
456
456
459
458
455
460
460
462
462
464
470
471
464
460
463
468
471
470
466
466
471
469
468
467
473
470
460
452
462
472
469
461
464
471
472
474
476
484
485
474
466
458
453
460
473
480
480
477
479
483
480
466
461
464
468
469
473
471
470
473
476
482
483
479
478
481
474
466
462
467
470
479
480
476
474
476
477
468
468
467
467
468
469
472
476
478
479
482
480
477
479
479
475
474
473
473
472
475
481
485
480
474
472
475
479
487
489
482
479
486
487
482
479
476
473
465
460
462
467
472
476
476
471
470
472
471
476
478
475
474
473
471
469
472
470
466
466
472
478
485
494
489
463
457
467
476
482
485
489
489
489
491
488
479
474
474
478
477
472
468
466
469
468
466
476
479
478
477
477
474
472
472
473
475
472
470
473
476
477
479
482
484
480
479
481
486
481
479
479
481
482
481
480
477
476
478
478
481
481
485
491
495
489
484
483
483
484
484
485
491
496
498
494
500
511
513
505
502
499
496
486
477
478
473
456
440
451
465
467
468
474
477
487
501
520
529
524
533
548
553
548
530
486
417
386
394
406
419
439
460
472
477
476
475
476
478
477
472
471
472
477
482
480
475
473
473
474
475
477
477
478
479
478
477
480
483
484
488
491
492
491
490
487
487
487
486
482
483
487
484
482
484
482
480
483
483
483
485
488
489
496
500
494
487
487
486
486
489
491
490
489
489
491
489
493
497
486
483
489
495
501
506
515
523
524
517
514
516
516
515
521
525
521
509
509
515
518
518
506
500
502
504
509
519
514
510
516
523
524
525
526
528
530
532
527
522
519
523
524
522
519
521
525
531
533
529
521
517
520
521
518
517
517
519
514
517
528
533
528
515
506
504
497
494
492
485
482
482
482
479
479
476
469
462
463
466
464
463
463
464
465
467
468
465
461
464
466
466
466
468
466
471
479
476
474
471
465
470
482
476
468
467
467
466
465
464
464
466
466
469
467
463
464
469
474
473
474
473
468
469
459
458
460
458
460
461
457
455
459
459
458
451
453
458
465
468
467
470
476
485
481
473
469
471
478
492
500
508
515
528
546
570
601
630
650
674
707
744
775
804
832
853
860
856
850
847
852
862
860
850
835
816
793
766
727
702
677
663
650
633
616
584
547
519
486
446
416
400
394
393
391
400
411
419
424
434
441
442
440
441
444
447
451
458
457
448
450
453
455
457
458
456
457
463
467
451
433
430
434
438
439
436
429
426
429
424
424
433
447
451
445
444
441
435
433
437
443
449
451
451
452
451
454
456
455
456
457
458
457
456
454
453
449
445
447
450
452
452
458
461
460
460
460
462
469
474
476
472
467
471
474
475
479
483
480
475
475
474
470
468
470
475
478
481
482
483
486
489
485
482
478
479
484
489
486
484
489
496
491
487
487
484
488
489
489
495
497
498
498
495
495
500
509
514
514
511
507
513
524
525
518
516
518
519
518
520
520
521
527
529
534
533
528
523
529
540
544
543
544
543
537
530
530
536
539
536
534
537
542
551
553
548
544
543
550
557
556
557
561
568
577
583
583
575
570
568
561
553
557
566
570
567
565
574
581
585
581
569
565
570
574
566
563
561
556
552
551
554
556
558
555
557
559
557
556
555
556
560
558
547
543
543
544
543
539
535
534
535
533
525
526
525
520
524
523
516
505
495
493
493
491
484
485
490
494
490
483
474
467
468
464
462
461
460
460
464
463
456
449
451
449
444
436
425
415
409
413
414
411
413
410
409
415
429
431
427
431
428
418
406
402
397
394
394
403
406
401
404
406
404
398
399
401
403
409
416
417
416
414
410
405
405
405
412
417
419
418
419
421
425
432
429
419
416
414
414
417
420
418
418
417
417
417
418
419
422
429
433
438
440
441
446
446
446
445
437
434
438
441
445
448
446
445
443
441
445
443
440
438
442
451
458
459
455
450
453
458
461
460
457
458
457
458
463
469
476
471
461
458
456
455
455
459
452
446
446
451
453
456
458
460
463
465
468
471
474
477
480
479
478
475
467
462
456
455
458
465
476
478
478
473
473
475
479
477
466
456
456
458
460
469
475
473
471
470
474
479
486
486
480
467
471
481
485
487
484
491
496
477
455
451
459
473
480
479
479
483
478
474
474
470
468
467
467
466
472
471
469
472
474
471
476
476
472
471
472
473
479
483
486
492
492
490
482
478
473
469
474
480
483
482
474
462
462
472
478
479
468
464
468
474
480
484
485
483
479
477
480
484
481
480
480
479
480
472
465
462
467
473
480
487
485
482
484
485
479
472
467
468
469
474
483
479
477
477
485
492
495
496
498
494
480
467
458
454
454
458
469
482
5463
464
455
451
442
439
440
442
438
435
437
435
430
427
426
419
410
409
411
416
416
419
419
413
414
417
417
415
415
409
400
406
417
420
417
413
411
418
420
408
401
402
412
419
415
407
402
400
400
399
403
403
406
410
413
414
415
418
422
419
413
416
425
427
420
410
408
409
414
413
410
408
420
440
445
444
442
439
430
431
441
446
446
446
441
442
441
438
435
435
437
443
442
447
450
450
449
453
457
458
454
453
451
448
445
445
449
452
451
450
454
458
470
477
471
457
453
452
453
455
461
465
470
467
460
453
454
459
460
458
461
468
475
475
465
457
458
461
463
464
465
473
473
476
476
457
448
455
465
472
471
464
456
452
453
460
469
473
475
476
479
471
472
476
468
465
467
474
475
474
477
481
486
480
478
481
486
486
479
475
474
474
479
482
479
475
475
477
479
479
478
471
471
475
478
479
478
475
463
460
467
473
476
479
479
470
468
472
476
479
484
484
488
483
483
493
503
497
480
469
462
461
463
462
459
458
462
466
470
472
478
476
482
481
472
459
452
459
465
470
468
467
468
468
467
469
472
477
483
485
481
481
478
471
467
468
472
473
471
471
475
479
479
482
478
472
471
472
471
472
476
478
477
474
475
478
473
473
476
481
480
481
482
478
472
469
470
469
470
473
480
490
497
492
480
478
479
480
479
480
483
483
482
481
485
483
478
479
478
479
482
487
488
485
482
481
479
483
481
480
476
471
474
475
477
481
481
479
479
481
481
483
485
482
479
483
478
473
476
478
480
478
480
479
478
477
481
481
484
489
488
480
476
476
479
477
478
482
487
490
485
478
469
467
465
469
472
477
481
488
497
496
496
494
492
489
485
487
486
478
479
483
479
473
479
486
488
489
490
494
496
492
488
485
483
483
488
496
506
507
502
504
506
507
507
503
501
505
508
506
508
510
511
511
506
494
487
489
491
493
495
499
503
508
510
510
513
512
510
516
519
520
518
517
514
514
514
519
517
512
511
515
521
526
519
515
522
529
527
521
518
521
519
507
500
497
495
501
507
507
512
514
517
520
499
474
471
481
483
479
480
481
482
482
480
483
489
481
464
455
459
463
465
464
467
472
471
472
472
470
467
470
473
474
468
470
477
482
484
483
483
485
475
462
458
458
461
467
474
474
468
466
472
480
478
470
459
459
464
470
473
471
470
472
467
466
467
470
470
473
471
474
478
476
471
466
460
463
464
462
464
464
465
467
468
477
488
497
502
503
511
528
549
570
608
657
699
727
740
763
794
826
848
849
833
818
820
842
862
870
861
844
827
800
769
736
703
679
661
643
628
609
578
547
511
473
441
417
397
388
388
394
399
410
421
433
437
432
427
427
434
441
446
445
447
454
461
467
479
486
481
464
452
447
446
447
452
458
458
455
450
438
434
431
438
444
443
444
450
455
462
461
460
456
453
451
445
433
436
442
438
437
437
435
436
441
444
447
454
460
459
461
469
470
465
457
441
435
445
454
464
472
470
467
465
480
489
483
474
473
478
474
468
470
472
475
477
473
470
469
470
475
477
482
488
487
482
483
486
483
475
478
490
492
489
496
494
490
490
485
481
483
494
495
493
496
503
503
502
509
513
513
511
506
505
504
501
505
511
511
505
502
510
518
523
527
530
533
535
540
540
532
524
525
530
539
537
535
536
539
537
534
536
532
531
531
537
549
552
549
549
549
552
551
556
562
562
559
567
573
567
563
564
563
564
567
569
573
583
589
584
580
578
580
579
572
574
576
576
574
572
581
589
579
567
565
567
568
566
556
552
555
554
553
556
562
563
546
522
517
521
531
546
552
556
562
552
539
538
535
537
540
540
533
521
509
497
483
474
471
476
479
477
467
464
468
468
473
467
462
455
446
444
447
449
450
447
439
436
437
439
441
437
432
425
418
417
419
417
418
419
421
419
409
402
395
391
387
383
387
393
405
415
415
416
425
433
428
419
409
403
406
411
410
410
419
426
423
410
408
408
409
412
418
420
417
417
421
417
411
408
407
419
428
421
414
417
417
413
415
413
410
408
416
431
439
437
439
444
441
443
445
441
437
434
436
439
439
440
438
443
450
452
447
444
446
450
451
449
442
447
450
448
448
447
448
450
452
452
453
454
455
455
457
463
465
463
455
448
445
446
446
445
446
446
448
458
477
481
470
466
469
466
462
463
468
467
462
462
462
461
457
456
459
469
473
470
471
473
468
467
468
468
465
468
469
472
472
471
473
481
476
460
460
469
478
478
477
476
475
459
458
467
474
475
471
471
473
474
474
477
480
482
479
476
469
466
468
472
473
474
473
473
477
484
482
478
474
477
481
487
483
477
471
472
479
487
488
480
470
464
460
458
457
459
462
461
466
466
467
467
467
469
469
472
473
473
476
482
480
469
467
472
478
483
485
484
482
478
479
476
473
470
473
474
471
470
472
477
475
470
469
472
475
475
472
468
468
471
477
484
475
468
472
480
481
486
489
472
458
461
463
465
469
479
483
481
479
481
483
483
476
474
475
476
476
475
471
470
471
471
473
472
472
476
474
473
484
490
495
492
480
471
474
478
481
479
469
468
473
477
477
471
468
468
471
468
466
482
497
503
515
512
486
469
470
468
467
473
475
474
471
477
484
487
479
473
477
477
478
480
483
486
483
484
487
488
483
474
472
473
477
478
477
471
464
468
479
483
492
503
495
491
492
483
474
473
474
476
477
482
485
483
482
487
490
489
486
481
478
475
475
473
478
483
485
484
478
475
478
481
474
472
481
489
492
485
481
487
494
497
486
471
474
482
490
492
490
491
496
506
507
502
504
504
499
488
484
490
490
491
489
492
491
488
487
489
491
495
497
503
509
510
503
498
497
504
514
517
520
523
518
514
514
509
503
504
501
500
500
497
496
502
512
520
526
529
529
528
524
521
520
517
516
518
518
517
516
514
513
514
507
496
499
501
505
500
490
488
492
492
488
480
471
459
448
451
463
472
466
461
462
465
468
468
473
475
476
472
475
475
471
468
470
471
470
474
470
473
475
472
466
469
471
474
480
483
481
481
483
478
469
465
464
460
463
472
474
471
468
463
458
460
468
474
470
470
465
466
476
482
478
477
473
467
462
453
457
463
464
462
459
457
458
457
458
464
469
476
485
489
493
503
517
535
562
595
628
659
684
714
748
776
795
816
834
839
835
836
841
848
851
852
844
836
812
779
743
705
683
670
648
626
609
584
546
511
480
443
410
388
381
386
395
401
408
418
428
432
436
443
449
443
437
445
453
452
451
458
466
467
462
458
462
464
463
457
455
449
446
447
450
454
450
449
450
452
453
457
458
452
442
440
445
452
460
464
464
464
462
452
450
450
451
458
465
461
464
474
474
464
462
460
462
459
454
448
445
445
454
462
462
465
471
473
462
455
461
469
475
478
479
481
483
481
477
477
477
473
476
480
482
483
483
485
489
483
477
480
483
484
487
492
504
499
490
482
481
486
489
487
486
490
496
505
512
507
502
507
510
512
517
519
510
502
500
499
496
496
497
500
506
505
499
506
515
522
525
526
525
525
529
536
535
532
537
542
545
540
538
531
525
531
542
553
554
551
549
553
561
562
558
558
562
565
568
572
565
554
551
554
557
559
562
565
567
570
577
581
582
581
578
577
575
567
567
565
566
568
577
582
590
593
584
577
577
577
575
573
571
564
556
556
556
556
557
558
559
556
549
546
550
552
553
557
547
544
542
540
532
525
519
517
518
514
507
502
503
501
498
498
493
484
476
476
475
466
454
451
457
464
464
460
458
457
455
456
453
451
444
439
443
443
436
433
435
440
435
430
426
424
424
425
431
425
416
412
409
401
395
397
400
404
399
394
393
395
395
403
407
411
412
411
409
414
419
411
410
418
414
413
418
423
425
421
412
405
404
410
415
411
407
414
418
424
428
430
433
432
431
429
429
429
428
423
413
417
432
434
433
431
435
437
435
432
433
436
433
429
431
434
440
441
443
444
451
457
448
447
449
444
440
445
448
446
443
443
442
443
442
442
444
449
450
452
455
461
462
461
458
459
458
454
456
460
463
460
458
456
457
458
462
465
464
460
458
461
464
463
463
463
462
465
460
458
462
466
466
466
466
468
475
478
474
469
470
469
465
468
471
469
468
468
472
475
472
468
468
474
475
474
473
470
462
468
479
489
493
485
481
482
484
486
479
473
470
471
474
479
478
475
473
481
483
479
481
493
504
494
481
474
474
476
470
467
466
468
463
458
459
461
464
465
467
471
475
480
482
480
477
475
476
475
469
471
471
465
459
461
464
469
476
478
479
481
483
492
494
482
472
467
468
471
471
473
473
479
479
466
463
467
474
477
477
475
473
464
458
457
461
473
483
482
477
473
470
467
468
473
477
483
489
485
483
475
471
469
468
478
484
485
481
482
484
478
471
471
468
466
466
468
477
485
486
489
488
487
482
483
484
479
476
479
474
469
469
479
482
478
478
478
480
480
477
476
477
477
472
467
463
467
472
479
483
479
478
478
477
480
479
468
466
470
475
482
484
483
475
473
487
496
491
482
478
471
475
474
474
480
480
477
477
479
479
481
484
484
487
489
484
482
482
482
483
486
478
475
477
475
474
480
485
488
492
489
490
483
477
476
478
478
479
480
482
480
478
479
477
475
475
478
483
484
482
483
483
486
489
487
487
492
500
493
484
480
479
483
486
482
482
487
486
485
482
479
479
483
488
481
478
485
487
484
483
483
479
475
477
489
497
495
491
487
486
485
484
485
489
485
484
483
480
480
482
480
484
487
490
493
494
495
498
500
498
497
495
500
510
516
512
509
511
514
518
507
484
478
485
492
497
500
507
514
509
503
499
507
514
518
516
513
509
510
512
510
512
519
523
523
521
518
514
511
513
517
509
508
510
504
501
510
515
515
520
522
511
505
505
505
504
504
501
502
508
504
495
493
495
498
500
492
480
474
480
481
478
471
465
463
464
469
473
475
467
462
459
463
467
464
464
468
472
472
469
464
463
466
471
475
478
475
471
472
470
475
476
475
472
471
471
477
485
477
463
464
470
470
471
471
466
462
459
462
474
483
485
485
479
476
476
480
484
488
494
492
475
456
445
438
442
446
449
454
455
455
456
460
461
463
473
481
488
500
518
536
558
588
624
657
691
726
761
788
813
833
842
837
831
841
849
858
862
864
855
841
820
794
765
737
716
682
664
651
632
606
574
542
518
490
462
436
420
405
393
397
409
423
435
441
442
440
439
438
440
449
461
465
465
464
465
464
465
464
460
453
451
447
441
438
437
438
441
443
444
446
447
446
443
444
446
449
443
440
438
439
442
444
444
448
460
458
449
443
450
452
453
454
451
451
450
453
452
446
448
458
457
449
439
438
441
441
444
447
450
448
453
463
469
470
468
474
477
473
466
468
465
462
461
468
476
475
472
474
479
480
482
480
477
472
470
474
479
480
482
480
481
487
488
487
488
489
493
492
491
495
498
500
496
492
491
496
498
501
505
505
502
500
504
512
520
515
512
512
510
513
519
517
513
513
512
518
525
526
513
511
519
524
526
523
530
541
540
536
537
542
545
538
536
534
542
554
563
559
556
555
554
556
555
558
560
560
557
560
562
557
556
557
558
559
562
564
574
588
588
582
577
577
574
577
578
578
574
573
573
579
591
590
574
562
560
562
566
570
568
568
559
551
550
552
551
549
546
544
544
544
547
550
547
541
534
533
530
528
524
520
520
515
506
496
492
495
496
492
495
500
496
486
481
476
472
466
458
457
457
451
446
451
460
459
448
447
447
446
437
430
433
431
426
424
427
428
425
428
430
421
416
416
421
420
416
414
414
407
400
394
390
394
400
405
408
404
403
408
414
419
429
427
407
394
394
402
408
413
414
415
418
420
425
428
421
415
416
418
408
406
408
412
417
420
428
433
433
429
422
418
421
428
424
422
423
423
417
413
418
427
432
431
431
434
439
446
451
455
456
454
451
449
448
442
437
434
435
441
449
449
446
444
446
450
449
452
458
460
467
465
456
448
442
445
450
452
456
457
459
458
459
463
464
461
454
450
451
458
464
469
471
469
463
461
462
466
470
471
466
468
471
468
466
466
466
464
465
466
467
467
463
459
455
462
471
476
479
479
476
474
472
473
473
474
472
468
465
459
462
471
480
477
472
472
475
476
477
477
475
475
474
474
471
467
470
473
475
478
485
492
485
483
482
484
481
476
467
462
467
473
472
474
475
479
475
471
471
476
472
469
472
471
471
473
474
475
472
471
476
476
476
479
479
478
479
480
484
487
479
471
464
464
466
468
470
476
483
483
473
469
465
461
461
467
474
477
474
472
476
478
481
481
475
469
467
471
475
479
484
489
488
485
485
482
480
476
472
476
476
477
478
475
473
472
472
471
474
478
480
478
476
474
480
486
480
469
462
468
477
483
483
482
484
478
472
468
470
482
489
481
469
465
470
472
477
480
485
479
468
467
469
468
467
469
476
481
482
481
484
488
479
476
478
478
479
480
478
482
486
489
488
487
483
477
469
465
469
481
488
485
490
487
483
476
475
475
479
482
481
482
489
493
487
479
475
473
471
474
479
482
486
487
488
488
488
485
484
480
474
470
470
466
460
463
473
475
482
494
501
503
500
495
484
469
468
473
481
484
486
485
485
489
495
494
487
486
488
487
480
473
475
479
481
484
487
485
485
483
477
474
476
478
479
481
484
490
491
491
489
488
484
479
482
483
486
483
481
479
478
478
480
485
492
499
498
490
489
492
489
489
496
498
494
490
486
480
473
473
480
482
483
487
488
484
485
483
481
484
487
487
485
481
479
480
480
487
491
491
487
483
482
484
490
499
495
488
491
496
501
505
500
489
482
483
487
492
496
501
505
497
491
492
496
500
501
501
503
509
511
504
508
516
518
515
515
515
518
519
521
524
517
507
504
507
513
515
514
513
512
512
511
508
506
506
509
516
522
522
525
524
522
519
518
516
513
515
515
514
514
514
508
505
502
500
495
489
487
486
490
490
489
481
471
469
465
465
465
465
469
470
468
469
471
474
466
455
457
463
470
475
475
473
472
476
476
475
479
477
476
478
477
474
470
467
470
477
477
472
478
483
471
468
470
476
474
469
463
463
466
468
464
461
461
463
468
471
470
470
476
481
476
470
464
463
462
458
458
460
460
455
451
449
449
448
453
467
482
490
499
505
515
535
551
563
588
626
664
698
731
757
776
799
827
857
862
856
856
854
861
872
876
870
854
833
800
762
726
705
692
676
659
639
613
578
545
520
487
450
424
412
407
400
400
406
413
422
426
430
433
437
439
437
439
447
454
458
462
464
462
458
454
456
457
455
449
447
443
440
442
443
442
438
435
437
439
439
437
439
443
446
442
438
441
444
440
442
447
447
451
445
438
439
444
449
451
451
451
453
456
447
438
442
443
437
437
445
456
463
464
461
459
465
476
477
475
475
471
472
466
459
460
466
470
471
475
483
483
476
467
472
475
474
483
492
495
494
494
495
491
491
484
480
483
483
483
483
484
483
487
489
491
493
503
510
504
498
498
501
504
507
504
505
501
501
505
505
501
498
496
500
508
514
520
521
519
518
520
522
521
517
516
518
519
519
527
533
534
534
533
535
533
537
542
544
542
543
540
541
543
549
554
557
560
568
568
561
563
560
557
560
564
569
572
578
581
578
575
579
578
576
575
577
575
575
577
580
584
582
574
564
560
566
573
583
573
567
564
560
552
552
559
567
571
569
563
560
567
561
559
560
559
553
554
551
554
555
549
541
528
522
514
509
512
523
524
516
501
490
488
488
488
491
495
496
496
498
489
477
463
455
458
463
465
458
450
445
444
441
442
443
441
438
434
435
435
437
429
421
417
413
408
407
408
409
412
410
409
411
410
406
405
408
416
428
431
416
406
410
409
403
398
394
396
404
410
414
413
410
412
407
405
406
403
405
404
405
414
421
421
418
417
417
416
416
419
422
424
424
415
413
416
425
432
435
435
440
444
436
423
418
422
433
443
440
430
428
429
435
436
437
431
432
437
440
439
437
441
446
443
440
442
445
444
444
447
445
446
446
446
446
442
442
450
448
440
445
457
465
466
465
468
464
462
457
459
463
461
455
458
461
469
468
467
474
480
475
469
466
469
472
478
478
474
471
469
478
478
467
466
474
482
478
471
467
465
469
472
476
475
466
464
465
472
468
463
465
473
476
474
474
470
470
469
467
470
469
474
480
484
480
472
468
470
465
462
467
466
468
471
472
471
474
477
476
481
474
460
459
465
467
462
467
472
472
474
475
475
472
468
469
474
480
483
479
476
475
475
480
482
472
463
463
470
474
473
472
467
469
469
469
469
468
463
467
477
483
486
485
480
482
479
473
471
477
475
472
469
466
466
472
474
476
475
477
487
501
501
486
477
476
483
483
480
481
484
488
485
478
468
473
477
466
458
456
464
473
478
480
479
476
469
470
474
478
480
477
475
469
459
464
474
481
479
482
481
478
478
478
480
479
478
475
477
478
481
482
481
478
474
471
472
475
477
480
480
478
479
479
478
482
481
481
482
481
479
477
477
480
474
466
467
473
475
479
480
482
479
480
489
487
476
470
471
475
478
475
477
482
478
478
480
487
487
482
479
479
481
479
476
477
482
485
481
480
479
475
476
482
490
486
476
474
478
481
482
480
485
490
491
488
486
484
486
484
485
486
484
481
480
482
485
487
486
485
481
481
485
486
484
482
480
477
472
470
475
480
479
481
481
494
513
504
483
472
472
474
486
498
494
483
485
492
497
493
485
475
470
471
473
477
485
484
482
485
489
490
485
486
485
485
488
492
492
490
486
484
481
477
472
468
472
483
493
495
490
484
479
481
484
483
486
483
482
485
490
494
495
494
494
489
487
493
499
497
492
489
489
495
497
501
505
506
508
506
498
496
498
499
499
498
495
496
503
504
505
510
513
518
532
531
520
509
505
511
509
503
499
501
507
512
495
486
493
503
513
517
522
523
525
528
528
523
524
526
517
507
505
506
501
506
511
515
511
511
512
520
520
512
501
493
492
491
487
481
478
478
480
478
473
468
469
469
470
475
477
477
474
472
477
479
476
466
458
458
462
467
464
463
458
462
468
469
469
470
468
465
463
467
473
467
465
466
468
474
475
467
464
465
471
475
476
471
466
464
462
466
468
472
481
491
492
483
473
472
470
466
465
467
468
472
472
470
466
466
466
463
462
460
460
468
479
483
487
490
492
503
521
547
579
601
630
669
701
727
751
772
793
818
837
842
837
839
844
851
855
853
843
825
799
760
717
691
672
653
633
612
593
564
535
509
474
434
399
379
384
385
385
391
397
403
417
424
423
421
432
446
452
453
451
448
447
452
458
463
465
464
466
461
456
458
463
465
460
457
459
456
446
444
445
446
440
437
444
455
469
470
461
452
449
452
456
459
457
455
447
444
447
453
455
458
455
460
460
457
462
462
465
464
462
460
460
460
460
456
455
460
466
467
462
458
464
469
464
463
470
476
486
497
501
489
474
474
482
485
486
488
486
485
490
494
492
481
477
479
486
490
496
498
498
496
496
496
495
493
500
502
495
495
498
496
496
498
497
500
506
510
508
506
502
497
501
511
515
509
508
513
524
536
536
533
534
537
541
540
528
524
526
534
538
546
547
545
541
540
542
541
534
531
532
534
543
550
551
550
543
539
539
545
556
561
563
558
560
570
579
584
577
571
572
578
579
576
573
575
579
582
583
580
572
568
569
570
569
575
580
580
576
577
575
573
573
569
565
573
576
566
560
565
571
564
550
550
553
558
559
555
552
551
549
546
542
538
532
528
526
521
517
516
515
514
513
510
505
501
503
498
484
478
481
487
495
495
483
470
452
451
447
442
445
454
453
449
447
443
439
442
441
439
439
439
429
420
413
413
415
416
414
415
417
414
413
409
408
409
409
406
407
403
400
399
400
401
403
412
412
401
397
396
401
410
418
420
421
424
418
417
412
407
408
409
407
407
411
409
403
403
401
406
410
411
412
414
422
427
427
418
414
421
427
430
433
430
427
425
430
432
433
431
430
429
432
438
441
439
434
434
440
439
434
435
435
433
436
448
452
451
450
460
470
461
448
441
437
437
445
449
452
448
443
438
438
443
446
443
438
440
454
470
479
472
469
468
459
455
458
457
461
465
470
469
463
458
456
456
459
465
470
469
469
471
475
476
472
468
471
477
472
468
472
473
472
472
474
478
474
463
458
460
465
470
478
479
483
472
460
472
489
488
476
472
471
470
470
471
470
465
466
479
485
481
475
475
482
487
485
485
480
477
476
477
475
476
478
483
483
481
483
478
477
478
476
477
478
483
490
489
479
478
469
463
465
467
465
457
447
449
452
458
470
479
476
469
464
467
477
485
483
480
483
484
483
482
478
478
478
478
478
478
477
476
471
466
469
478
480
481
482
481
478
476
471
468
468
470
471
473
473
475
473
474
474
476
477
480
480
479
479
480
485
491
487
478
475
472
474
473
470
469
473
478
478
477
475
480
488
482
479
478
473
476
480
481
481
478
478
481
473
462
465
480
487
492
493
499
496
487
479
473
475
477
477
480
482
483
486
489
496
491
481
478
478
483
477
469
469
472
476
478
481
475
471
475
482
481
478
480
480
477
476
474
479
482
483
483
481
474
475
474
473
470
472
474
478
478
478
483
492
491
487
485
479
471
472
476
482
489
492
494
494
492
489
483
486
483
478
472
477
486
491
487
487
489
491
489
484
478
473
480
489
486
485
480
479
480
484
484
487
487
476
469
478
490
496
495
484
482
485
492
492
496
489
480
476
480
488
488
488
498
502
496
493
488
487
495
493
483
476
476
482
489
489
483
479
478
478
474
473
475
479
482
483
484
486
486
484
487
484
484
482
481
477
480
488
489
482
482
484
487
487
486
484
482
483
482
478
481
485
491
498
499
493
488
492
493
490
489
488
490
495
500
506
506
501
499
502
504
503
505
506
508
507
503
506
505
502
501
506
515
521
524
526
530
529
525
519
512
507
512
516
517
513
504
503
509
517
520
515
505
509
518
528
523
510
500
500
505
516
529
531
532
524
512
505
501
506
512
510
503
495
494
497
499
497
496
491
489
484
482
474
470
469
470
470
464
463
465
463
462
461
464
469
475
478
481
483
483
478
474
472
469
467
467
472
473
471
472
474
474
474
473
471
470
471
477
489
482
474
479
484
478
475
473
475
478
476
473
470
474
476
478
475
470
467
464
468
474
476
480
480
481
478
466
457
448
441
438
443
453
465
471
477
485
489
493
499
516
540
564
593
620
646
676
713
744
769
795
823
837
836
831
834
848
861
873
874
860
850
836
808
772
730
709
696
683
670
653
631
596
562
530
499
466
436
414
402
398
407
417
427
427
420
427
432
439
444
447
447
453
460
470
475
469
459
453
452
454
455
455
452
449
447
445
449
450
451
452
452
456
450
443
435
436
445
446
446
446
447
447
447
445
440
441
441
438
437
439
444
445
443
442
441
444
450
456
464
464
459
459
461
462
465
466
465
461
453
454
459
464
465
464
462
466
476
476
470
465
463
466
469
468
468
474
475
471
471
476
483
487
483
479
478
475
473
479
487
484
481
484
492
498
504
512
507
495
496
497
500
494
480
478
483
488
487
488
497
503
511
516
521
525
522
518
510
504
505
510
516
523
521
513
507
504
501
503
519
532
534
533
537
532
531
535
536
532
532
535
540
545
552
555
555
553
555
559
556
548
545
550
556
563
568
572
574
571
570
571
562
557
560
567
570
573
577
577
577
575
576
575
580
586
585
583
578
572
568
567
569
571
570
567
572
576
571
574
577
576
575
574
572
568
567
565
557
554
555
553
548
548
549
556
566
559
541
534
531
531
534
527
519
511
501
498
503
501
496
496
501
504
499
496
491
482
471
460
454
458
456
455
451
446
441
443
447
442
435
431
431
432
432
429
429
431
426
421
417
412
410
411
415
410
403
407
411
411
411
413
413
415
419
424
424
411
401
393
395
395
397
405
411
415
410
401
401
414
418
411
410
413
415
416
418
417
422
419
412
410
402
406
412
415
417
417
416
413
412
415
416
420
419
421
424
428
425
422
414
411
415
420
424
427
440
455
451
443
444
448
455
455
450
448
448
447
447
444
445
450
450
447
444
447
448
443
444
443
444
449
457
466
465
458
456
459
462
461
453
450
453
456
453
452
461
461
460
460
458
453
455
460
463
465
466
465
462
459
461
459
457
461
468
471
472
472
470
466
466
465
468
475
473
471
473
471
465
468
469
473
477
480
477
467
464
464
468
469
466
466
466
471
473
470
471
473
474
482
478
477
476
479
482
478
473
469
466
466
471
473
474
476
482
482
476
472
475
483
484
477
469
472
478
479
477
470
471
478
484
485
483
481
476
470
467
468
472
480
476
469
470
472
470
469
477
487
496
489
484
476
474
473
472
470
469
469
470
470
472
473
473
480
481
474
468
466
468
472
474
473
475
479
482
485
485
480
478
477
485
490
486
480
475
475
473
470
468
469
471
474
477
478
479
477
476
474
474
475
474
471
476
477
475
474
477
479
483
485
482
479
480
484
482
476
473
472
472
473
473
467
469
471
470
468
464
463
458
463
481
498
501
500
497
500
507
510
497
484
480
481
475
471
468
469
470
471
470
468
475
485
486
480
478
482
488
485
477
476
467
464
467
471
472
480
488
495
495
491
483
483
486
485
482
486
487
483
480
483
482
483
482
479
479
480
481
481
477
475
478
482
482
481
478
478
478
478
473
471
474
477
477
472
479
495
503
495
481
476
478
484
494
501
499
491
490
492
487
480
483
492
487
486
481
476
477
478
481
485
488
483
481
474
473
482
492
495
488
480
483
487
485
483
484
483
480
482
482
480
477
475
477
474
474
480
486
488
490
482
474
477
488
495
493
491
491
492
484
478
478
482
485
482
480
475
472
479
487
489
488
488
485
482
479
478
483
489
487
487
491
497
491
483
486
496
499
498
497
494
490
486
488
494
493
494
492
490
486
485
496
503
508
510
511
510
514
519
506
495
491
495
498
505
505
509
516
516
512
512
519
520
519
516
515
508
506
510
518
523
518
516
517
511
502
500
505
510
515
514
514
519
522
520
506
501
509
511
510
509
511
508
503
510
515
515
514
513
512
505
500
496
493
484
475
475
475
476
479
478
469
469
472
475
468
461
460
460
464
468
466
467
468
471
472
471
470
468
467
471
486
487
481
479
476
471
467
472
479
481
477
471
469
474
476
475
472
468
467
472
475
471
470
474
472
475
476
481
474
471
473
476
478
477
474
474
475
472
469
474
476
470
462
457
451
445
454
458
455
459
463
470
484
498
517
538
556
574
597
630
664
695
729
760
792
817
840
855
861
856
842
840
854
871
873
862
850
827
791
752
720
696
683
671
652
632
610
573
535
502
468
433
415
404
397
396
397
407
416
419
425
429
431
432
434
441
448
456
451
450
453
455
457
459
462
455
449
456
459
457
460
463
455
447
443
441
443
445
440
438
444
445
436
434
438
445
446
446
444
441
441
443
449
450
452
445
441
444
447
445
447
450
455
454
452
460
462
464
466
464
465
464
465
467
468
467
467
473
468
467
472
470
467
470
471
472
473
473
473
474
477
479
482
476
477
485
474
472
476
477
483
493
497
494
488
485
485
482
484
489
492
493
492
487
487
488
488
489
492
498
508
513
505
499
503
507
504
492
491
501
506
510
511
506
504
506
507
509
512
518
519
518
518
519
523
528
530
532
532
532
536
546
551
547
541
533
531
534
539
550
551
550
552
553
554
562
566
565
558
552
556
562
565
565
566
572
575
580
587
587
580
575
576
583
586
588
585
582
583
589
587
584
578
569
567
568
568
576
577
573
569
574
574
570
571
577
575
572
577
582
571
559
549
547
546
542
533
533
536
541
545
537
525
531
539
530
515
510
513
514
509
506
498
494
496
499
500
494
492
492
483
474
463
456
457
456
454
457
461
459
452
447
443
434
431
430
429
428
423
416
414
421
424
422
418
411
411
412
415
422
421
418
417
414
408
407
405
403
406
408
407
409
414
416
410
406
406
410
414
407
395
397
409
415
415
411
411
409
406
409
408
404
403
406
409
418
421
418
422
423
424
426
431
434
434
426
423
427
429
430
433
430
435
432
429
427
421
421
423
426
431
433
431
430
428
432
435
440
441
443
440
445
450
442
435
434
442
442
440
444
454
456
448
447
449
449
451
452
452
452
454
461
464
459
460
459
460
463
465
468
467
461
460
465
469
467
462
463
461
458
458
461
464
470
470
474
480
480
473
464
460
462
461
464
464
463
460
463
468
469
472
475
472
472
476
474
472
470
469
485
499
484
465
461
463
467
464
464
467
471
476
477
482
481
474
470
468
473
480
492
488
480
475
475
471
476
483
482
477
472
466
464
464
468
476
479
479
479
481
474
467
469
475
473
467
469
466
471
476
471
469
474
475
470
467
467
471
469
472
472
470
470
472
477
479
477
476
478
476
468
464
469
470
465
469
473
471
468
472
476
472
468
472
471
471
474
478
485
489
492
492
483
482
482
477
469
463
462
465
465
463
464
468
473
475
478
480
482
483
482
481
482
485
487
486
483
483
482
477
472
466
466
473
481
481
480
482
484
482
482
480
472
465
470
471
463
460
463
464
471
485
497
489
473
471
474
476
478
483
482
480
482
480
485
485
475
469
472
475
473
476
481
483
483
485
487
482
479
479
480
485
479
472
477
478
475
478
478
475
472
473
478
476
474
474
478
484
490
491
486
488
487
487
488
484
478
478
476
478
472
475
479
482
488
490
481
469
467
475
488
490
487
484
487
489
490
486
477
473
474
478
481
483
480
477
478
478
478
483
492
495
486
477
476
481
486
484
483
478
475
478
488
492
490
487
487
491
487
482
482
487
486
484
484
482
474
468
465
469
477
497
510
507
502
499
490
481
474
471
473
483
489
486
487
481
474
475
483
490
490
487
492
491
487
489
494
492
490
488
484
479
486
497
498
497
502
495
492
492
491
493
496
500
501
498
500
500
497
499
504
502
502
501
496
497
504
508
516
521
516
516
520
518
515
513
512
509
507
511
514
511
506
502
509
514
509
502
500
506
511
512
514
518
516
515
512
510
509
508
512
514
515
512
504
504
507
502
500
509
514
511
506
498
494
493
482
477
477
484
483
478
475
471
472
472
467
465
467
464
449
446
450
461
470
466
464
470
477
478
472
468
469
469
471
478
480
476
473
477
480
482
485
484
480
477
478
479
477
470
461
460
466
470
480
487
485
485
480
475
476
479
489
491
477
457
451
452
455
452
453
458
456
456
459
462
467
470
472
469
463
470
479
483
490
488
486
498
521
546
573
602
633
668
701
727
751
775
801
823
839
844
840
842
842
848
841
836
838
829
799
747
707
681
661
643
623
601
582
564
537
496
447
411
383
365
364
375
393
407
413
421
418
410
409
413
418
424
434
446
463
473
477
478
478
467
448
444
457
466
467
464
459
457
458
457
455
463
467
459
457
458
451
446
444
444
444
448
452
449
452
457
456
455
451
450
455
464
461
448
446
449
450
451
467
482
473
459
456
454
451
452
456
456
461
472
475
471
467
471
477
471
465
467
469
474
480
481
484
478
476
477
478
478
479
481
485
487
488
492
492
487
483
480
479
483
482
481
485
491
494
496
496
494
493
493
490
486
488
493
498
498
499
500
503
504
506
503
499
503
506
516
529
528
511
499
498
500
503
510
513
521
528
532
533
532
531
529
530
532
528
528
532
534
535
536
540
540
531
532
542
551
558
563
570
565
558
563
577
579
570
570
572
574
574
573
567
567
573
582
584
580
574
573
580
583
585
584
580
574
574
576
579
581
580
584
585
585
579
571
572
576
573
569
566
565
564
564
568
570
565
561
561
562
555
547
544
545
546
547
548
543
537
530
525
519
522
524
518
513
512
513
514
515
508
505
500
494
491
486
481
474
474
474
468
459
455
459
466
465
454
451
453
454
447
440
435
431
431
432
431
426
418
415
415
421
429
423
413
409
415
416
413
410
410
415
412
412
412
410
409
405
405
409
408
408
404
399
394
394
398
399
403
415
419
413
408
404
406
411
416
415
415
412
408
406
403
405
410
413
415
415
416
417
419
422
417
418
417
419
421
421
418
418
418
420
426
429
422
415
418
428
436
441
449
451
452
449
443
436
431
428
428
431
435
437
437
440
442
448
452
443
438
440
446
453
452
443
444
452
453
448
444
447
458
464
467
466
464
463
462
459
460
463
466
469
471
471
467
466
464
464
469
470
460
459
462
466
471
464
459
459
462
466
466
473
477
473
467
466
465
466
468
471
472
474
477
475
476
473
471
472
474
479
478
482
483
478
474
476
480
476
466
462
464
467
473
469
462
462
468
471
472
476
475
474
476
478
477
479
477
480
480
477
473
474
478
478
476
477
475
470
475
477
475
472
471
472
474
477
480
481
478
478
483
477
469
463
461
464
468
476
482
482
481
489
495
496
487
475
468
463
468
475
476
476
472
469
471
471
474
472
465
459
458
458
460
457
454
459
470
486
488
483
488
494
484
481
484
481
482
483
487
485
481
481
481
489
487
481
481
480
473
467
466
470
478
490
487
478
470
473
482
482
480
479
479
474
469
466
462
462
462
467
475
478
483
486
485
483
481
477
477
479
477
476
476
479
482
480
478
474
471
473
477
476
482
493
496
496
491
483
483
482
476
473
476
480
484
483
479
472
464
463
465
466
467
476
482
490
493
496
498
489
473
463
466
477
481
485
488
492
487
483
477
473
477
481
484
477
474
474
465
464
473
485
491
487
479
478
483
487
489
484
477
475
478
481
485
485
484
487
487
487
484
481
485
482
477
476
479
479
485
494
489
483
478
476
476
475
472
472
477
483
488
491
495
491
485
488
493
490
485
487
486
482
487
486
478
480
484
483
481
480
479
478
478
481
481
482
487
489
490
490
486
484
486
495
501
497
492
491
490
490
492
497
502
503
495
489
491
495
495
490
490
490
493
496
499
500
503
509
510
505
506
514
521
515
510
513
518
518
510
510
515
511
506
512
516
512
508
509
510
503
503
504
508
506
507
517
527
531
523
513
507
509
512
513
515
516
515
514
518
518
512
508
508
501
491
483
484
473
466
471
477
482
487
485
476
472
473
470
463
464
466
464
465
471
477
484
480
476
477
474
467
466
468
472
475
477
476
479
481
481
476
470
464
460
464
471
476
478
482
482
477
469
465
466
469
471
469
468
466
465
468
475
477
475
471
468
464
466
467
464
462
464
459
453
457
460
457
458
458
460
459
464
471
482
494
493
491
498
514
534
560
588
620
651
683
716
748
772
799
830
848
847
839
833
837
847
858
861
863
860
840
796
746
706
687
674
663
651
630
608
583
549
514
478
445
417
402
393
386
385
400
419
432
445
440
430
424
428
438
450
460
461
462
467
469
469
470
478
479
470
462
459
462
465
457
447
442
442
444
442
439
434
434
434
437
436
434
438
440
442
449
454
448
443
443
448
454
459
457
448
454
461
459
458
459
461
461
459
456
456
455
452
451
448
451
454
458
462
460
459
457
458
463
468
474
479
473
473
473
472
473
475
470
464
457
457
457
460
467
478
489
488
480
477
478
478
474
480
481
474
474
475
476
481
484
489
495
507
508
502
503
505
506
506
509
507
503
504
511
516
516
518
514
509
511
513
515
519
513
510
507
507
511
518
522
519
520
522
525
528
532
538
536
539
542
536
534
534
530
533
540
544
543
546
546
546
549
553
558
559
555
556
562
562
563
562
556
553
557
558
553
555
559
566
574
580
588
583
577
573
575
580
583
584
583
585
585
580
575
572
572
574
575
575
575
575
572
568
569
572
561
549
550
553
554
548
549
565
572
562
556
553
548
542
541
544
542
538
532
526
522
522
523
523
522
520
516
507
493
482
475
476
478
479
472
461
462
466
470
466
460
456
452
446
448
450
453
447
441
439
433
427
418
416
416
415
412
409
407
406
412
416
415
415
415
411
410
408
405
416
421
413
398
394
397
403
406
404
401
402
403
398
399
408
412
411
411
413
416
417
418
413
411
413
414
412
413
411
409
406
407
407
414
422
422
416
418
418
420
424
431
435
437
434
431
430
428
428
426
428
429
428
432
442
444
440
450
452
439
429
426
428
430
434
435
437
442
445
443
442
442
445
450
452
451
447
447
445
444
447
450
453
459
467
461
447
455
468
467
456
446
447
453
461
464
463
470
463
459
461
464
466
464
464
462
462
462
464
466
464
465
467
469
473
476
475
475
474
469
469
470
470
471
469
471
474
470
471
479
482
478
479
478
471
465
466
472
474
474
465
461
470
480
481
480
481
481
479
478
478
479
479
473
470
467
461
463
466
468
467
463
464
472
478
478
472
472
474
472
472
475
478
478
483
479
473
476
476
479
481
475
468
468
472
475
477
483
477
466
465
469
471
467
465
463
464
471
475
475
476
476
473
468
470
479
483
481
477
479
481
479
481
483
478
473
476
482
482
483
488
489
484
473
472
474
477
474
467
471
474
477
478
474
472
472
475
477
477
476
474
476
473
471
469
469
475
479
484
489
480
474
475
479
482
488
488
487
486
480
475
480
482
480
469
466
466
470
477
479
474
470
468
468
469
470
472
474
475
477
482
480
474
477
485
489
481
475
475
478
484
497
505
498
487
480
478
476
475
474
469
468
475
483
485
484
480
478
476
479
484
483
475
474
472
472
476
478
478
482
488
486
474
477
488
499
499
486
476
474
472
474
483
482
480
478
485
492
492
489
482
476
477
481
481
485
490
485
477
473
475
476
478
479
480
483
486
486
484
482
482
487
490
484
479
479
478
480
479
482
484
488
490
483
477
475
478
479
480
482
482
478
475
469
473
486
489
487
483
482
484
482
476
471
474
477
483
493
499
505
505
500
499
503
502
500
493
494
497
495
501
501
500
497
495
491
496
503
504
499
490
491
498
497
493
495
495
500
506
509
500
497
507
518
523
518
517
518
519
521
517
511
509
513
515
517
518
519
523
520
521
523
520
517
512
506
505
509
516
520
522
521
516
509
497
485
477
472
473
476
478
476
473
475
480
481
480
476
478
477
474
470
472
477
477
472
463
462
463
465
466
467
468
470
469
473
478
478
470
461
461
464
466
469
469
470
469
469
469
469
474
476
477
477
472
473
472
469
467
469
473
472
467
461
461
463
467
468
469
469
470
471
470
468
466
467
466
464
461
459
458
453
450
454
460
457
455
466
474
481
488
487
491
505
529
560
593
627
654
681
711
737
766
797
828
851
855
848
844
852
857
862
867
865
851
838
814
788
747
701
676
664
649
630
609
576
539
512
474
432
404
394
390
388
394
405
416
423
430
432
433
435
441
434
431
439
451
462
468
466
467
469
466
469
469
463
457
453
447
446
450
448
447
446
447
450
450
448
446
443
442
439
435
435
436
437
443
448
451
453
451
443
445
449
451
448
452
456
459
455
446
445
452
461
462
459
452
451
461
464
461
452
449
452
451
452
453
456
463
465
467
465
464
465
466
468
472
476
479
475
472
474
475
473
477
478
480
480
480
483
489
489
484
480
480
484
486
490
493
496
495
494
494
490
486
486
496
502
500
490
489
495
498
499
502
506
503
501
498
502
507
508
508
509
511
513
507
505
510
514
521
529
533
528
515
509
521
541
550
548
543
537
538
542
544
546
551
555
558
558
557
558
555
556
554
556
559
560
565
570
563
557
554
557
563
570
575
572
573
576
581
586
588
583
579
582
582
583
584
585
582
583
583
579
578
579
584
578
573
569
567
567
564
561
561
563
564
567
571
572
564
556
552
550
547
544
543
542
540
539
538
537
538
537
539
538
533
527
523
511
502
494
491
488
485
479
472
465
460
458
452
456
460
460
458
441
436
450
457
453
449
446
439
432
428
427
433
432
424
418
411
409
408
408
409
410
410
409
406
406
403
401
403
407
409
406
404
406
404
403
405
399
400
403
403
404
410
412
407
405
407
405
402
405
409
409
407
407
408
408
411
413
415
417
420
419
412
415
420
423
421
422
426
421
415
412
413
412
412
410
416
425
433
439
441
443
445
449
453
454
443
426
415
419
425
429
429
431
436
442
442
438
438
443
448
450
443
442
443
441
445
446
444
438
439
440
433
430
427
434
447
456
460
462
463
464
466
470
468
470
463
458
457
455
460
469
472
459
457
465
463
458
463
469
470
471
471
473
471
466
461
461
462
465
469
472
468
461
461
467
472
472
473
472
473
480
481
482
480
479
479
478
474
470
468
470
468
465
464
468
477
482
486
485
483
485
490
486
472
462
462
464
463
464
474
479
476
467
464
471
480
478
470
467
466
464
461
456
459
467
473
478
478
472
465
460
457
463
469
475
475
463
461
466
482
492
492
485
477
474
471
471
468
464
465
471
476
472
467
468
468
467
472
475
479
480
483
478
470
471
476
478
475
473
469
463
459
462
466
472
473
476
478
480
484
483
479
476
477
477
474
475
474
476
481
487
485
480
481
482
485
484
484
486
486
482
477
478
487
482
467
456
461
466
466
466
465
473
480
481
475
469
473
481
482
486
492
495
486
481
465
459
464
467
466
473
476
480
478
473
471
470
474
478
481
480
480
478
482
481
468
469
478
484
484
483
480
481
484
488
483
483
489
485
480
480
481
482
483
478
472
469
469
473
479
488
490
489
492
496
498
489
480
478
472
466
470
473
476
476
473
472
471
469
473
478
479
477
484
491
495
495
494
489
485
484
491
490
484
480
475
477
481
485
487
490
494
493
493
491
494
495
490
480
479
481
476
474
474
475
475
470
468
475
485
485
482
479
480
483
488
491
495
491
487
480
480
474
473
472
470
469
469
479
491
497
498
493
487
487
493
493
493
491
486
484
486
488
492
493
495
491
494
500
497
493
503
508
504
493
493
503
503
495
501
505
503
504
504
507
512
514
513
517
524
527
520
512
503
502
503
510
517
519
518
512
505
504
507
506
499
496
505
517
519
518
515
519
528
528
525
515
508
507
510
511
503
500
501
502
505
509
505
507
508
501
481
472
474
475
475
477
476
471
470
469
469
468
473
476
474
469
469
470
472
472
465
467
475
478
473
475
476
470
465
463
463
463
468
474
470
465
467
465
469
472
472
473
467
465
465
469
468
462
464
476
482
480
478
474
470
469
468
471
473
466
464
466
470
467
469
464
463
462
457
455
452
450
464
478
480
481
479
469
476
490
498
506
506
507
520
543
571
602
633
661
689
716
743
773
799
825
842
845
836
831
838
849
860
867
863
847
819
786
748
715
687
671
649
623
606
583
554
522
491
456
422
396
379
371
372
384
401
414
423
429
426
419
418
422
425
433
449
460
465
466
468
469
467
463
458
455
457
463
460
454
453
446
439
439
441
438
442
446
446
447
448
444
444
444
449
451
455
452
448
455
460
456
459
461
460
459
446
437
434
434
440
454
462
465
461
458
458
461
460
457
455
456
455
456
459
461
460
462
463
466
471
472
470
469
469
476
483
486
485
483
483
486
479
468
463
468
474
476
477
477
475
477
486
490
483
481
481
488
489
485
484
484
487
493
496
493
490
491
492
495
493
489
490
496
502
508
509
508
505
505
507
510
515
519
520
520
519
516
514
514
513
510
515
525
539
551
549
537
532
532
528
522
521
527
532
535
537
540
540
541
543
547
554
557
555
552
553
555
555
559
563
571
572
582
594
596
581
574
571
566
563
572
589
604
601
591
584
584
590
585
574
570
569
576
575
572
576
578
573
565
561
560
562
564
565
564
565
561
559
559
558
557
553
550
546
541
541
543
537
533
532
526
521
523
523
523
520
515
511
507
502
499
492
487
485
482
482
479
474
471
467
463
462
459
453
455
462
471
459
442
432
435
434
424
421
419
416
415
416
418
417
414
415
416
416
416
416
414
411
408
398
392
396
404
412
415
413
410
402
397
396
403
410
409
408
406
407
408
410
408
411
411
412
412
409
408
407
407
408
407
407
404
403
411
420
424
426
426
424
419
417
417
420
426
426
427
430
440
448
440
422
411
414
420
425
426
425
431
436
441
443
445
436
431
431
442
441
432
428
430
433
433
435
435
438
446
460
465
453
437
439
446
441
433
432
436
447
457
459
457
455
459
460
457
454
454
456
458
453
444
443
443
443
448
455
459
459
459
461
462
463
468
471
472
468
466
470
478
479
478
478
474
472
474
475
477
470
461
463
467
471
473
474
472
470
469
470
471
471
472
472
473
474
474
477
478
476
473
471
470
473
473
474
470
464
467
475
477
477
473
466
460
464
475
480
474
467
467
466
468
469
470
471
477
485
481
474
471
467
464
470
476
476
475
473
474
478
480
479
474
470
467
466
461
457
455
454
459
465
470
470
469
472
475
485
485
480
478
479
479
479
477
471
470
473
476
481
479
479
471
465
466
463
459
467
474
484
485
478
476
478
478
474
473
478
484
482
474
470
468
467
462
460
468
478
476
475
476
473
471
472
475
474
474
473
473
475
477
476
472
473
472
476
481
479
473
473
472
466
464
470
478
484
491
489
482
477
467
474
491
492
488
481
473
471
469
468
470
476
478
479
484
479
469
472
478
476
474
471
470
470
469
470
466
461
469
479
486
493
494
489
483
476
471
469
476
478
479
480
480
483
482
478
477
478
482
485
479
474
478
481
481
479
483
482
478
473
469
470
476
480
490
486
479
474
476
473
472
477
478
479
474
476
485
489
491
486
482
475
470
472
476
481
479
475
476
482
486
487
485
484
484
486
488
483
483
488
482
479
484
485
480
478
483
488
489
481
477
478
481
486
486
489
492
492
493
491
486
487
487
488
488
493
501
504
489
475
474
477
490
497
500
502
505
498
490
490
493
499
505
504
507
509
503
493
493
498
502
510
514
512
516
515
515
524
522
517
511
509
511
510
512
510
505
502
497
501
500
499
503
511
515
515
512
514
515
512
507
508
508
512
516
514
509
504
505
510
508
511
512
513
516
515
506
492
484
478
475
474
468
464
467
479
477
471
462
463
468
478
483
479
474
467
454
452
457
464
468
465
469
472
472
472
472
469
467
469
469
466
463
462
459
458
463
469
471
466
462
470
479
483
497
494
473
470
472
471
469
464
461
460
462
466
468
469
478
478
470
465
463
464
467
470
469
461
450
448
451
453
453
454
452
457
470
482
492
492
488
492
508
536
568
598
625
654
673
698
725
753
783
807
818
824
832
839
845
852
857
861
862
850
835
815
787
755
720
691
670
650
632
613
592
561
535
506
465
427
400
382
374
378
388
397
405
413
420
420
419
426
434
442
451
459
463
467
467
463
461
457
453
454
456
452
448
449
443
435
433
438
441
441
449
451
449
447
448
443
437
442
444
447
450
453
451
446
444
444
442
443
440
439
442
452
463
465
461
457
463
456
445
443
444
451
457
460
462
464
463
465
465
461
453
449
454
460
464
469
469
461
461
464
464
463
469
474
476
473
472
476
475
468
463
466
471
480
486
488
486
487
494
492
484
480
481
486
485
484
486
492
494
490
490
490
491
503
515
511
501
498
507
512
504
498
496
495
499
508
513
513
516
516
513
512
511
512
510
516
525
525
520
526
528
528
536
536
530
527
528
529
531
531
537
540
544
545
546
547
547
549
551
549
556
570
578
572
565
570
572
572
565
563
570
574
576
575
580
585
587
586
585
585
574
568
571
579
584
583
584
583
580
574
569
572
576
575
577
584
582
578
572
572
568
560
551
551
550
549
550
551
552
552
549
551
549
545
544
542
539
532
531
529
528
523
522
514
506
504
504
499
493
495
497
491
487
483
478
473
468
466
462
456
451
450
450
447
441
435
431
430
428
424
421
425
423
417
422
421
418
412
410
409
411
414
421
422
406
396
397
400
411
414
409
408
406
400
399
399
400
402
404
404
407
409
406
406
407
406
409
411
409
406
406
404
400
398
398
404
407
408
410
417
422
420
417
417
419
417
417
418
421
425
428
430
433
434
428
424
423
428
432
432
433
435
435
430
422
421
424
428
434
441
447
451
449
445
441
435
431
431
431
431
435
444
449
453
451
453
449
447
444
445
447
451
454
452
448
442
443
444
445
443
448
454
458
452
454
456
460
466
478
476
466
468
471
465
460
458
455
454
454
463
473
471
468
468
471
472
470
466
469
472
468
463
460
466
473
477
478
481
470
465
465
465
463
461
462
468
476
478
478
474
471
472
472
472
473
471
466
466
470
473
473
470
471
472
472
480
480
475
482
480
477
477
480
483
476
465
461
465
468
470
470
471
473
475
474
472
471
476
477
480
478
472
467
471
480
478
474
469
463
460
464
470
471
473
475
473
473
474
463
454
464
478
483
487
486
485
479
478
477
479
481
478
466
468
474
474
478
482
478
468
465
464
462
460
460
461
466
472
475
477
475
471
469
469
471
471
473
476
475
473
471
465
463
468
473
482
488
486
483
480
475
470
469
475
479
478
477
477
478
477
474
469
475
480
478
476
480
476
476
469
469
477
490
493
479
467
466
471
475
471
468
462
466
472
483
489
491
487
485
483
479
480
481
481
480
481
481
482
476
469
473
482
492
497
496
471
466
474
475
470
471
475
475
481
484
481
480
483
487
483
472
470
470
473
473
476
477
478
485
485
481
483
483
482
480
481
483
485
486
483
481
485
485
476
471
472
476
476
479
483
482
485
489
489
489
492
496
496
487
483
483
485
484
482
482
482
485
484
482
479
477
475
472
467
465
467
472
474
478
487
494
494
489
483
483
491
491
486
481
481
478
478
478
482
488
496
496
499
504
507
508
507
489
469
460
462
471
476
476
476
486
490
480
465
466
472
474
474
475
477
484
499
506
496
489
489
485
484
483
495
506
508
506
493
484
490
491
497
503
507
512
515
513
513
518
519
507
505
511
516
520
523
518
515
514
509
507
504
500
500
502
501
501
495
494
500
501
497
501
509
518
523
518
515
517
516
508
506
512
518
524
523
516
511
511
505
503
501
496
496
502
506
503
499
496
486
479
480
480
479
478
478
473
467
462
461
466
468
464
457
456
458
457
461
468
471
467
465
463
466
473
481
487
488
488
481
470
468
473
469
465
471
475
464
457
460
463
464
471
476
478
480
481
484
480
472
466
463
459
458
462
465
465
466
467
467
471
476
474
472
472
471
469
466
460
464
471
474
470
460
455
453
460
469
472
480
486
490
500
519
544
568
587
616
651
685
710
741
776
804
825
844
849
844
836
838
843
858
864
865
856
841
811
774
735
709
690
673
652
631
607
576
544
514
479
440
415
397
381
381
391
406
414
422
428
426
424
424
430
433
441
445
450
461
469
467
472
470
463
460
462
468
467
461
453
450
446
442
440
439
438
438
439
443
447
444
442
443
439
438
443
445
444
443
439
438
436
436
437
441
450
450
447
446
445
444
444
447
449
457
460
458
447
442
446
451
453
455
453
452
454
457
466
476
483
481
477
471
465
461
463
472
475
475
476
481
482
477
472
467
472
477
482
482
476
477
479
481
482
483
484
485
483
481
477
478
484
491
497
495
496
496
494
496
499
501
500
505
507
503
503
508
508
505
506
503
500
506
507
507
508
505
503
499
509
524
531
534
536
533
533
528
524
529
536
539
539
538
536
536
539
538
533
536
544
557
566
559
555
559
562
562
562
567
559
556
563
571
579
583
584
582
578
574
575
577
579
582
581
581
582
583
590
592
586
587
586
586
586
583
573
564
564
566
564
567
573
574
569
567
566
563
560
558
550
550
551
554
553
551
552
547
540
537
539
542
547
548
543
527
516
509
504
507
510
507
498
497
505
509
509
499
484
478
473
472
472
465
454
445
448
455
460
455
450
449
452
446
436
429
424
420
416
414
409
409
411
408
405
412
421
419
412
408
407
399
396
400
402
403
408
413
413
410
412
412
413
407
407
407
407
408
407
404
405
411
413
411
410
410
415
420
425
424
413
407
408
409
411
418
421
420
419
416
411
408
409
406
406
416
423
427
430
430
422
417
417
413
415
424
429
430
432
434
439
437
428
426
429
433
437
443
441
439
436
442
448
448
450
449
444
443
445
443
440
437
434
434
439
448
444
444
448
448
447
450
452
455
453
455
454
452
447
443
447
458
468
467
463
467
469
471
470
468
467
467
458
455
460
463
471
474
467
465
475
480
471
459
458
461
464
466
464
464
466
470
470
481
488
480
474
475
476
475
471
470
469
470
467
465
468
471
471
471
468
463
465
470
475
480
483
480
477
478
480
480
481
476
473
479
482
488
490
487
479
481
478
474
469
466
467
469
469
472
475
479
472
461
456
461
464
470
474
474
472
476
478
477
474
475
473
458
454
461
470
478
476
471
464
470
479
482
481
480
486
486
482
480
479
480
487
486
469
464
466
467
470
469
468
468
468
466
468
471
468
467
475
476
475
475
477
474
474
475
473
473
474
468
464
465
474
477
475
469
466
469
475
480
481
479
476
477
480
474
473
472
474
475
477
477
476
483
486
480
476
474
474
477
478
477
476
474
481
488
488
487
480
471
469
467
467
464
468
474
480
479
467
465
470
475
475
468
456
460
476
482
476
474
483
484
480
474
478
482
482
481
483
491
497
492
492
493
499
501
494
486
474
469
472
477
475
478
485
483
474
467
463
464
466
464
463
470
484
485
486
486
483
475
478
476
475
473
477
486
492
495
493
491
485
479
481
480
477
478
478
480
478
479
477
473
473
477
484
488
488
486
486
484
479
478
476
476
484
488
488
488
492
495
495
489
478
473
474
474
474
479
482
482
481
483
484
486
489
487
485
484
480
477
473
477
480
482
480
480
478
481
484
485
478
476
481
485
488
489
493
492
499
508
511
506
497
494
490
482
480
482
481
484
489
495
501
498
489
485
483
487
485
485
494
497
498
499
500
501
503
502
500
500
502
506
508
507
511
515
514
515
513
514
518
527
534
535
525
504
494
496
501
504
507
513
511
507
506
509
510
508
510
510
514
513
511
506
506
507
505
499
499
509
518
521
524
524
519
513
514
514
512
507
505
504
504
503
498
486
479
478
480
480
477
478
476
469
466
469
470
472
469
459
449
456
480
500
498
475
468
479
477
474
469
466
467
472
475
475
474
475
476
476
477
474
469
468
476
482
486
483
472
469
471
477
478
473
465
468
474
472
466
471
479
471
468
470
469
471
477
474
479
481
483
478
473
483
485
470
460
456
449
451
456
457
456
451
455
469
485
493
496
503
507
514
531
554
576
602
631
664
691
716
752
780
804
822
830
833
842
856
862
861
860
856
844
830
804
768
729
700
672
647
627
605
585
557
534
512
477
438
410
395
393
396
395
406
417
426
429
428
425
432
437
438
436
434
439
452
467
467
459
458
457
461
461
459
459
457
457
456
457
460
451
446
445
446
449
451
454
454
451
453
453
452
450
457
456
451
452
453
455
451
450
449
447
449
449
449
450
448
449
456
463
465
465
465
461
462
462
460
456
457
452
450
452
455
461
461
465
471
478
476
473
471
474
472
471
472
472
472
474
477
480
480
481
481
481
483
486
487
490
483
481
484
492
504
506
492
485
485
483
483
487
493
491
495
507
511
506
503
501
504
508
509
508
505
506
509
512
517
516
516
515
516
515
514
513
508
505
504
515
530
545
551
540
534
533
540
542
530
528
535
540
538
536
536
540
544
548
556
560
555
553
552
556
561
564
565
570
577
579
573
569
568
565
564
565
568
569
571
577
580
579
581
588
590
586
583
580
577
572
568
572
579
579
580
580
582
574
570
573
574
573
573
576
580
579
572
570
563
547
542
540
539
537
538
535
534
536
536
538
539
539
532
517
502
498
503
504
501
498
499
502
497
493
486
489
480
464
458
456
459
458
459
455
449
453
453
452
445
436
433
436
435
437
435
420
411
408
408
409
413
418
416
413
410
408
407
409
415
421
422
424
421
413
409
401
395
395
397
402
401
404
407
408
404
405
401
399
399
404
402
400
407
416
417
412
411
416
415
419
421
422
418
416
417
420
423
420
415
412
410
411
409
414
428
432
423
420
417
416
419
421
430
433
428
427
428
428
432
435
434
435
439
442
442
432
417
414
428
436
439
437
437
435
437
440
442
444
446
450
450
450
455
457
452
445
444
450
452
456
458
459
461
460
457
459
463
463
461
464
459
456
459
458
457
457
455
450
456
461
463
461
460
464
466
461
460
467
469
467
470
478
475
468
465
467
465
463
466
470
473
472
471
470
471
472
473
471
473
473
476
474
465
469
471
476
485
491
486
486
480
466
461
463
469
469
471
474
474
471
464
464
472
477
472
473
471
470
474
479
478
479
480
481
481
480
476
474
481
486
479
473
473
472
470
469
470
473
473
474
473
474
475
476
474
474
475
476
471
470
467
466
467
468
466
466
469
469
472
471
472
473
470
468
469
470
468
472
476
472
468
469
469
478
485
487
483
477
476
477
472
469
471
474
467
468
472
476
473
470
464
462
463
465
470
476
481
480
486
489
475
462
458
463
471
481
489
492
490
485
477
477
480
482
487
480
472
471
474
479
480
481
483
481
478
479
479
482
487
485
474
469
470
473
478
484
481
471
462
464
470
474
473
476
482
481
478
473
474
478
478
475
472
474
482
489
488
484
479
476
474
474
471
467
463
466
469
472
477
475
473
471
471
474
475
477
482
484
485
491
496
490
479
468
465
472
477
483
486
479
474
473
476
478
480
480
483
486
484
482
488
506
504
489
487
489
489
480
473
474
473
471
474
488
487
476
479
490
490
493
493
485
484
485
488
490
489
489
488
476
462
457
464
477
484
484
487
486
482
480
479
478
480
481
481
477
475
477
481
486
487
487
487
488
485
483
487
488
485
484
484
489
491
496
494
489
488
485
487
487
487
491
492
493
500
507
506
496
487
486
490
492
497
504
505
506
509
510
510
511
515
511
507
504
505
514
513
504
500
504
514
516
517
520
516
507
501
508
516
513
500
498
506
514
517
511
506
503
501
508
517
522
518
511
506
500
498
502
504
508
513
513
513
507
504
504
502
498
486
485
487
484
481
475
461
453
456
458
464
467
459
458
465
468
470
467
465
470
475
475
469
467
465
466
469
471
475
475
476
472
471
475
481
479
473
473
475
479
484
482
476
466
454
447
451
459
465
466
459
454
454
455
458
460
461
457
453
452
454
461
474
477
474
464
459
459
459
459
461
465
478
482
475
473
472
468
471
474
478
483
495
512
539
571
604
632
657
687
728
769
799
821
846
860
856
849
844
839
848
854
858
850
836
809
773
734
702
678
664
656
643
622
591
559
536
515
482
441
409
392
386
386
396
414
423
426
429
433
436
441
435
429
434
448
458
468
470
467
463
458
453
452
456
459
452
442
433
436
443
447
448
451
449
443
443
446
446
443
436
438
439
439
433
433
440
443
445
446
443
446
448
453
458
451
444
451
461
462
454
451
451
452
451
452
451
447
449
449
450
456
460
460
464
461
460
460
467
474
477
477
475
474
474
476
479
482
476
468
467
469
475
477
480
482
488
495
484
472
474
477
480
482
483
487
495
502
499
493
492
493
495
492
495
497
496
492
488
490
492
494
501
498
499
503
511
510
506
502
507
513
509
510
514
510
508
507
508
515
521
527
523
514
523
539
546
541
538
543
549
556
549
539
530
524
526
533
544
551
556
559
546
544
551
557
562
564
568
571
573
568
570
574
586
591
586
578
574
570
567
571
581
583
584
587
587
584
579
575
576
579
578
573
571
572
573
580
581
573
567
569
572
574
572
567
567
563
557
555
554
539
538
548
558
561
556
548
544
542
534
527
528
526
522
520
517
512
510
510
504
497
492
491
491
487
481
480
479
477
475
476
470
456
446
450
449
449
443
437
435
434
436
435
434
435
432
431
423
407
403
414
423
422
408
400
404
409
406
400
394
393
395
405
415
411
402
403
411
407
402
398
395
398
403
409
404
401
409
412
411
410
408
406
409
410
412
418
420
419
421
416
406
402
410
415
414
418
421
425
424
415
408
409
411
414
416
426
434
429
426
427
426
423
425
424
426
429
434
438
436
439
438
437
438
444
443
438
433
432
435
438
438
439
441
449
451
451
453
454
452
449
450
450
452
453
453
453
454
454
453
455
454
450
452
455
459
464
463
451
449
449
449
454
460
462
463
466
464
459
454
461
470
473
465
462
462
457
453
453
457
456
458
459
455
458
466
477
482
484
482
484
485
475
469
470
469
469
473
472
468
471
473
472
472
474
478
484
483
485
485
474
462
458
461
465
473
477
480
479
473
473
473
478
482
483
480
477
476
468
464
470
478
479
480
482
479
476
475
472
472
465
460
463
469
478
480
481
481
484
477
470
470
473
477
478
475
474
474
476
473
464
458
460
465
468
470
470
471
478
489
488
480
478
474
472
474
473
469
469
471
472
467
459
457
461
467
470
465
463
472
478
480
479
478
478
479
477
477
477
479
483
486
488
485
484
483
486
485
479
476
480
486
485
480
474
477
482
477
467
463
467
471
473
477
476
471
469
479
488
481
475
474
472
468
473
476
475
474
476
478
482
483
485
484
477
474
475
478
481
478
474
473
476
480
481
480
484
488
489
486
478
478
469
464
465
467
466
465
467
470
475
477
480
483
488
495
498
497
480
467
468
469
470
472
471
469
469
470
474
478
484
484
480
478
485
486
479
473
471
478
489
491
491
487
484
485
487
492
490
485
481
480
482
486
482
477
480
480
483
486
482
474
471
475
478
475
477
489
502
497
486
486
487
487
485
481
480
480
481
483
486
488
485
481
478
475
480
486
485
483
481
484
485
485
483
483
479
476
479
479
475
474
478
486
494
491
477
474
476
479
477
480
480
477
472
474
475
473
478
483
481
478
483
494
501
504
497
482
472
467
469
471
475
483
494
494
489
487
490
488
481
485
487
485
478
478
491
497
498
495
494
496
496
493
495
497
496
496
498
497
492
487
493
500
501
499
499
506
514
513
500
496
503
511
516
508
510
516
519
515
512
511
513
514
509
503
497
497
501
503
506
507
507
509
507
503
499
499
508
517
523
532
539
520
504
507
509
508
511
516
521
513
507
508
511
511
510
507
507
503
496
491
485
488
490
488
482
478
476
473
467
470
472
468
467
460
462
470
474
474
470
471
472
474
478
480
477
470
465
466
470
473
477
481
479
473
469
466
465
461
464
467
466
468
468
469
473
476
479
482
485
483
474
468
464
464
461
459
461
464
468
473
473
472
475
472
463
466
469
465
458
455
463
469
476
477
474
463
456
448
445
447
451
463
475
485
494
494
503
521
544
572
602
625
647
674
706
739
770
798
822
843
852
854
856
864
871
876
878
866
847
822
790
755
719
694
674
656
639
619
603
569
536
511
484
450
425
412
406
402
401
412
424
437
438
435
432
430
434
438
441
447
447
449
456
463
471
468
461
452
448
446
442
433
436
443
445
443
444
447
451
450
445
434
426
426
430
431
440
447
446
442
450
447
439
441
438
435
433
440
445
451
453
452
451
449
451
452
451
449
446
448
451
453
452
460
463
460
457
455
454
458
461
463
460
459
462
468
474
476
472
469
469
469
468
472
484
488
483
474
468
471
475
474
476
478
480
482
485
486
487
485
486
492
496
498
499
497
496
491
489
488
488
492
491
489
491
497
502
506
509
506
508
510
516
517
511
512
511
512
516
516
514
519
524
525
522
521
521
519
519
520
524
534
540
544
546
541
537
534
539
541
537
535
538
536
543
554
557
554
556
560
556
553
553
554
557
559
560
558
557
565
568
563
566
573
583
586
582
574
572
582
587
587
586
584
588
589
582
578
575
574
575
579
586
587
583
581
577
567
562
564
563
563
562
560
558
558
558
558
560
555
549
544
541
537
532
527
525
523
524
521
518
517
517
514
509
504
497
491
487
485
484
483
481
474
472
469
460
455
451
454
458
460
455
447
444
435
426
420
421
425
427
430
439
438
422
416
416
413
405
402
401
400
402
405
399
395
396
397
403
406
402
397
394
396
400
400
399
407
414
411
404
405
409
407
403
399
405
416
420
414
409
409
411
413
413
409
408
412
418
422
417
407
403
405
408
412
417
420
415
410
416
425
427
424
426
427
427
428
430
426
427
431
433
431
434
438
441
444
444
441
442
446
453
458
454
442
437
441
447
446
447
448
445
444
444
441
436
438
442
446
455
460
465
466
462
453
441
436
440
449
461
457
450
446
457
467
465
466
464
462
461
461
458
455
454
452
460
470
474
471
464
461
450
451
459
465
466
467
467
470
472
469
464
467
474
477
470
466
463
465
472
472
469
471
474
472
473
480
482
478
476
478
481
474
468
467
470
469
467
469
467
464
467
475
486
492
490
484
478
473
472
472
468
467
472
479
481
480
475
475
473
474
477
478
479
474
474
476
478
470
464
466
473
479
478
473
468
470
471
470
471
473
471
470
476
480
479
476
473
476
480
480
481
489
489
484
474
465
469
469
468
468
470
472
476
475
472
471
480
477
463
460
460
462
464
470
475
482
485
485
484
484
483
467
459
460
460
464
472
478
480
486
481
476
474
472
471
470
476
482
482
476
478
481
479
476
474
476
474
470
465
463
468
478
487
486
479
470
474
477
476
476
482
478
475
474
482
487
485
480
475
474
480
486
484
484
488
491
499
496
487
484
480
474
468
466
463
465
468
468
466
470
478
481
482
484
487
486
478
475
476
475
474
478
478
474
473
473
472
476
478
476
477
477
475
479
482
480
481
491
493
496
495
488
478
475
472
471
476
478
473
474
483
489
483
475
473
471
473
483
495
494
491
487
481
482
483
482
483
487
489
486
484
485
485
478
478
476
468
469
478
479
485
490
490
487
482
482
484
482
488
491
488
484
482
481
483
484
485
490
491
483
477
475
477
476
481
486
484
482
483
481
482
482
481
484
485
480
479
481
480
474
475
476
479
481
484
485
489
487
483
483
484
483
482
482
480
479
483
479
471
472
474
474
472
469
464
466
481
494
509
517
510
488
473
468
473
486
497
501
490
485
486
485
483
484
492
498
501
502
502
499
494
495
498
500
501
503
503
505
505
507
510
506
505
505
509
499
496
498
505
508
508
506
510
517
517
516
517
522
520
509
507
511
517
518
511
510
513
510
503
500
501
503
507
513
515
513
510
508
512
517
519
520
520
522
522
523
519
516
514
511
512
512
513
507
506
511
508
496
487
481
481
484
486
484
472
466
462
461
459
457
460
460
458
456
459
462
464
473
474
467
462
463
463
463
462
463
468
478
485
487
488
480
474
471
470
471
471
471
469
469
466
466
466
463
474
474
470
476
479
480
474
471
472
474
476
473
470
471
471
474
477
474
469
464
469
468
474
478
474
470
476
475
465
456
456
457
458
461
469
481
483
486
486
492
514
542
568
592
620
649
684
719
761
796
814
834
847
847
837
824
828
847
868
876
871
861
840
808
771
736
707
680
656
632
612
589
561
533
506
473
434
406
392
389
391
398
411
416
418
420
421
424
430
435
437
436
438
437
441
450
460
464
468
478
475
468
463
466
468
462
453
449
447
448
449
446
444
446
447
450
453
451
448
443
443
441
436
438
438
441
447
446
436
441
453
456
458
457
458
458
457
454
456
455
455
455
452
447
450
456
461
464
462
462
468
475
481
481
471
466
468
464
456
455
458
468
473
479
483
480
480
474
467
465
474
483
483
480
476
475
473
473
475
481
484
487
493
496
492
487
485
485
488
489
491
489
489
493
493
492
492
495
497
494
490
493
499
503
509
512
511
506
510
519
527
525
518
512
515
515
515
516
520
524
524
528
530
535
545
547
545
535
526
529
531
533
538
544
548
553
558
559
563
563
558
550
546
550
555
568
574
571
570
573
571
568
574
581
580
575
571
571
565
568
573
573
575
575
571
575
573
574
578
576
578
584
594
596
588
579
575
577
576
574
572
569
567
565
566
563
561
562
561
555
548
549
555
554
553
548
543
541
541
539
534
532
524
514
511
509
506
505
502
502
505
498
490
482
475
468
469
467
464
461
462
459
451
443
444
451
457
454
447
441
440
437
440
440
433
427
418
418
419
418
418
418
423
420
417
412
404
404
405
403
398
399
399
406
407
406
406
405
395
403
407
410
413
418
420
425
425
416
402
396
398
399
395
399
406
416
421
416
414
411
414
413
408
405
405
408
414
417
420
421
421
419
420
428
431
431
427
425
435
440
432
426
421
416
417
426
437
450
452
458
453
441
430
429
432
428
428
429
432
431
429
436
443
444
450
459
452
447
448
448
447
453
458
460
460
457
457
455
451
450
451
454
455
455
461
464
466
468
462
456
457
457
456
457
460
460
454
453
455
461
467
472
472
471
469
469
470
472
476
477
476
476
478
480
476
472
465
464
467
471
472
466
465
467
473
478
475
468
469
472
474
470
468
471
472
473
467
466
470
476
477
475
474
475
473
473
467
467
471
475
477
486
481
475
475
476
475
474
477
476
471
475
474
470
467
467
469
469
471
475
477
477
478
484
490
492
484
478
471
469
471
478
489
496
488
478
476
476
478
479
481
481
475
472
480
483
473
466
466
470
471
467
465
463
467
473
476
476
478
481
485
488
486
477
465
460
463
469
471
473
473
473
472
466
464
467
472
475
478
478
475
466
462
471
477
474
471
481
483
477
477
479
481
478
481
484
481
472
467
468
469
470
476
475
475
476
476
474
475
481
486
491
493
480
474
473
477
478
479
471
471
483
486
481
476
477
481
489
491
483
475
476
479
485
487
487
486
481
475
472
477
480
476
474
477
477
477
481
485
491
490
494
496
486
484
485
486
483
475
468
470
469
468
474
478
482
482
477
474
471
470
468
470
476
478
480
478
479
479
480
478
482
488
484
476
471
465
467
477
485
487
486
486
485
487
486
479
475
489
499
490
477
475
476
481
485
482
479
474
470
474
479
481
488
496
498
483
477
485
492
489
487
485
489
498
495
486
486
487
479
476
480
482
483
481
483
484
485
487
491
493
491
493
484
476
474
478
481
484
482
481
485
484
484
487
486
484
485
488
492
491
490
489
488
485
482
484
486
493
496
490
487
487
488
492
495
492
493
498
498
502
508
506
504
500
500
497
496
495
497
497
493
492
496
501
506
503
503
511
518
520
522
523
522
519
518
518
524
524
511
496
494
496
496
497
501
506
516
516
508
511
508
513
522
522
512
502
503
513
523
531
527
524
523
517
513
512
516
515
509
503
502
503
498
492
486
485
485
481
480
481
477
468
465
466
466
464
461
463
465
465
468
470
468
467
467
472
477
482
484
480
481
486
486
475
465
461
458
463
470
474
470
464
464
466
468
470
471
473
475
471
466
465
466
464
465
464
465
465
467
465
464
462
467
474
473
474
473
470
473
468
453
449
458
460
454
458
468
481
486
480
473
471
473
478
482
489
501
513
514
526
548
578
608
635
667
697
724
755
794
822
842
853
856
854
857
868
878
871
860
848
828
797
758
716
687
671
660
636
612
590
560
533
501
460
422
395
377
376
385
397
407
417
427
432
428
424
422
427
433
433
438
447
449
454
454
452
449
451
460
464
458
451
446
437
440
453
459
456
451
447
448
452
451
451
453
450
443
441
448
452
453
455
457
462
464
459
457
458
457
457
461
463
459
456
459
460
462
460
455
457
447
439
442
457
467
469
467
462
462
458
452
452
462
475
491
492
483
485
478
472
473
476
478
480
481
481
483
494
498
491
480
474
474
474
477
476
476
475
479
487
493
497
501
503
501
499
496
493
495
496
497
500
507
514
518
512
499
500
499
491
485
482
491
510
519
519
516
509
508
512
517
518
516
512
518
528
531
528
530
536
541
540
537
540
539
536
537
540
542
544
552
556
553
552
554
554
551
549
557
563
561
562
563
566
570
577
580
582
584
583
583
586
578
577
578
575
574
565
567
580
586
587
587
587
588
589
587
584
591
595
592
580
572
568
567
571
576
576
575
575
570
571
571
571
574
577
573
559
554
549
541
541
541
541
539
536
534
535
542
536
528
522
518
512
507
506
506
507
501
493
482
472
465
461
465
466
463
458
459
458
451
443
437
441
453
455
452
446
441
440
443
439
434
427
424
422
416
408
401
402
406
405
411
414
411
404
401
403
401
402
403
404
405
405
400
397
401
409
411
409
406
407
403
398
394
394
402
407
409
408
407
411
416
411
411
414
413
416
417
421
423
426
430
427
426
428
423
416
411
414
418
418
413
413
415
420
425
423
423
427
434
434
433
430
434
439
436
429
427
430
435
435
428
424
425
427
431
431
431
441
450
459
463
455
451
455
455
448
444
445
444
443
446
449
454
456
452
450
456
462
467
463
459
459
472
473
459
452
457
464
464
462
463
464
468
466
460
459
465
463
461
460
459
464
471
468
460
462
467
472
472
466
463
464
467
470
473
479
487
485
474
470
472
478
479
470
463
469
482
495
494
485
477
467
464
465
468
466
472
474
474
472
475
477
472
466
466
468
469
473
477
472
472
474
476
476
476
478
481
481
485
483
471
468
473
475
474
471
468
477
482
481
479
475
475
478
485
491
488
487
478
474
480
486
485
471
469
472
476
476
471
471
477
479
476
472
470
475
481
482
475
470
473
473
465
460
463
467
466
467
472
479
483
480
477
479
481
482
489
493
492
486
478
478
482
482
481
473
466
466
465
467
470
474
480
484
481
480
483
474
472
471
465
463
469
476
479
479
480
476
476
478
479
480
478
476
469
471
476
482
481
475
474
480
484
484
489
487
485
480
470
465
462
466
473
475
475
477
477
480
478
477
480
484
480
477
477
478
480
490
492
491
487
480
480
478
474
479
495
496
486
482
482
483
477
473
475
479
479
477
481
486
487
484
486
483
477
471
464
461
467
474
479
485
493
494
492
481
477
477
478
474
481
489
491
490
490
493
490
490
485
473
466
465
470
472
476
479
486
491
486
484
478
483
484
478
467
468
478
481
482
478
477
482
491
486
482
485
487
487
481
476
477
482
484
481
477
475
473
475
479
482
487
491
497
495
491
487
485
485
489
491
490
488
478
473
477
482
480
480
485
487
495
497
497
497
496
495
497
493
481
476
472
473
481
480
482
489
499
497
487
478
473
478
488
491
489
492
497
498
498
497
489
488
492
494
493
497
496
497
495
493
492
495
496
498
500
501
499
497
499
501
502
508
512
520
528
524
519
522
528
532
526
516
506
505
508
516
518
505
496
496
500
505
508
507
509
512
515
519
523
525
522
520
519
515
508
509
512
514
515
513
511
508
512
513
506
497
498
496
489
475
470
472
470
470
467
462
467
475
475
475
472
467
464
465
466
466
469
467
469
476
480
482
485
483
475
471
473
471
472
471
472
477
478
476
475
470
464
460
462
469
477
481
480
473
469
473
476
474
462
460
462
468
465
460
461
464
477
482
475
468
468
476
477
466
455
452
454
457
455
453
453
457
460
467
478
481
485
487
492
502
520
546
573
599
622
650
678
706
739
775
805
832
845
850
848
847
861
879
880
867
857
844
817
785
752
714
687
668
654
649
637
616
584
543
520
499
456
420
403
394
391
394
401
411
416
426
440
440
430
426
433
441
447
452
461
466
460
462
466
463
460
457
443
434
432
435
433
436
445
453
455
462
454
438
434
442
449
450
448
443
442
443
442
439
434
435
444
448
447
444
440
441
442
442
444
445
447
447
448
454
456
456
453
452
459
461
459
461
460
461
468
474
476
471
465
458
458
462
456
449
457
468
470
473
474
477
480
477
481
485
486
480
471
472
478
478
475
473
478
481
479
479
484
489
495
494
490
489
490
493
490
489
487
490
495
496
497
493
489
492
495
503
507
509
508
510
514
515
517
514
514
519
516
512
511
520
528
523
518
517
517
517
517
517
520
520
524
522
524
530
536
542
543
545
547
549
552
554
553
551
555
556
558
561
562
554
558
565
567
569
569
557
552
561
570
581
582
576
576
582
586
586
576
574
580
587
587
584
584
589
589
586
587
585
583
581
577
571
564
568
577
578
574
569
565
564
568
568
561
556
554
552
550
546
542
539
541
543
536
531
526
524
529
528
519
510
507
505
501
500
497
496
497
494
488
479
474
474
471
468
461
455
453
456
455
448
444
443
448
450
444
434
429
424
427
435
433
419
410
407
415
427
423
415
408
408
410
410
404
400
399
397
401
414
419
412
406
409
411
412
412
407
401
399
400
398
398
399
403
405
404
403
400
397
395
398
407
413
412
417
428
430
415
409
413
424
425
417
413
415
415
417
417
414
415
415
414
418
427
435
443
443
435
425
424
428
431
428
428
431
433
429
422
426
427
429
437
443
444
448
450
444
435
431
439
450
457
454
452
455
457
460
457
455
451
450
450
453
456
457
454
454
454
454
453
450
447
444
448
451
452
458
464
468
474
474
468
461
466
475
476
465
460
465
468
470
465
458
452
450
452
459
467
467
464
464
464
466
468
465
460
464
467
472
478
481
481
475
469
467
470
472
475
473
473
476
475
473
470
466
469
473
475
473
470
464
462
468
477
480
478
473
468
470
475
477
480
479
478
477
472
472
477
482
475
469
467
468
473
476
477
475
480
477
472
478
484
477
467
458
463
469
472
472
473
481
483
481
480
476
474
471
473
472
472
471
480
482
485
485
481
475
474
474
475
474
466
462
465
468
462
457
474
483
482
478
478
476
474
474
474
478
479
482
481
476
481
487
477
465
466
472
482
478
474
475
473
469
470
472
473
464
459
465
470
465
462
468
474
475
478
482
484
484
480
475
473
470
470
471
470
465
471
480
487
489
490
487
484
487
489
494
504
495
481
469
465
465
470
472
468
469
472
479
478
475
475
473
474
479
485
487
485
485
484
482
478
473
475
476
475
479
484
487
487
488
488
486
480
478
485
487
481
474
472
470
472
473
474
476
476
475
471
471
476
481
485
478
474
472
472
480
487
491
487
484
480
486
498
499
489
478
475
478
479
482
483
488
491
489
491
489
488
490
491
483
477
476
473
473
473
476
481
482
481
479
480
475
469
465
468
480
486
485
480
478
478
472
469
470
471
478
487
489
486
485
485
481
486
488
488
487
486
484
484
483
485
486
487
485
481
479
479
479
481
483
486
494
495
496
495
484
481
483
485
488
490
491
489
490
489
485
486
486
485
487
490
488
483
483
493
498
490
489
490
493
498
505
505
500
502
501
493
492
497
498
503
500
494
488
490
493
496
497
499
499
499
499
501
508
520
530
531
533
529
520
514
520
522
520
512
507
506
504
501
501
506
510
512
511
506
498
499
505
504
501
498
494
502
516
526
531
528
522
512
510
511
512
510
507
502
494
491
489
491
485
478
477
475
474
474
473
473
474
469
457
459
473
482
482
476
471
471
472
466
461
463
469
472
475
478
483
482
478
476
479
478
477
474
475
475
468
465
468
477
468
461
468
479
475
467
458
455
465
468
466
463
463
467
471
469
463
466
472
474
469
467
469
471
472
468
466
467
467
463
460
460
458
449
447
451
456
467
488
500
496
497
512
539
567
594
623
648
676
708
741
769
798
823
841
849
849
855
862
869
872
870
867
856
838
808
775
739
715
695
676
657
636
617
593
560
526
489
455
429
405
388
388
396
403
401
410
426
435
432
430
434
440
441
446
451
456
459
458
455
457
458
459
464
467
463
456
453
454
455
441
430
427
432
436
438
441
443
436
432
435
438
445
450
447
444
444
448
451
455
461
452
442
439
438
435
434
445
451
442
439
440
442
451
458
455
452
457
465
462
457
456
460
466
474
479
480
482
479
465
463
468
469
473
472
472
464
461
465
468
470
475
481
484
487
485
480
476
476
476
477
475
474
481
486
490
492
490
483
480
484
485
488
494
497
497
495
495
494
496
498
499
503
504
502
505
507
508
507
507
507
510
512
518
522
523
518
519
522
520
517
521
526
530
534
534
536
545
543
532
525
526
527
531
538
540
543
546
547
544
545
547
548
556
561
564
566
568
567
564
560
565
572
575
583
583
574
568
572
566
554
549
558
571
579
588
595
598
595
598
599
595
592
581
572
571
576
577
578
572
565
562
562
560
561
566
571
571
568
567
565
558
547
543
540
538
544
552
553
552
546
543
537
537
532
525
517
513
509
507
503
503
498
496
493
488
483
476
477
479
473
468
469
466
458
448
443
440
439
440
437
437
431
429
428
430
432
428
423
423
420
416
420
416
402
403
406
405
399
398
399
403
408
404
403
402
398
397
412
422
420
407
408
411
412
406
408
415
419
419
411
402
397
404
404
402
404
405
408
403
403
405
405
404
407
416
426
429
428
431
435
429
416
407
409
411
416
418
420
420
421
423
429
431
430
422
424
426
424
428
431
433
433
434
436
437
438
437
435
434
439
448
447
447
448
451
452
453
449
448
447
444
443
444
443
444
448
451
448
445
445
442
439
442
450
455
460
463
465
467
461
454
454
453
448
449
454
455
454
453
457
471
476
468
470
478
477
471
474
478
471
466
459
454
456
464
472
474
472
468
476
480
477
472
463
460
461
463
466
469
470
472
474
472
471
473
473
472
464
463
473
477
471
472
474
472
469
473
470
460
470
482
487
482
472
469
473
475
477
479
480
483
481
481
483
484
480
466
457
460
471
474
471
470
469
473
473
473
472
471
470
476
483
482
478
481
484
480
470
467
471
480
485
480
472
475
474
472
478
481
477
480
487
481
466
459
463
472
469
461
461
460
461
466
467
474
480
480
478
476
479
477
474
472
464
462
473
487
497
492
477
469
470
470
464
464
468
471
474
470
472
476
473
470
472
474
479
477
475
477
476
470
473
473
471
471
469
469
475
485
485
476
480
484
483
479
476
475
477
474
476
478
479
472
472
470
474
479
474
464
461
471
479
483
487
488
485
484
481
476
476
477
479
479
482
476
470
476
475
476
484
495
493
484
473
474
480
492
494
479
477
477
478
468
468
473
476
479
479
479
485
489
492
489
490
492
488
483
491
493
484
469
461
468
474
477
484
489
486
487
486
483
480
480
477
473
473
474
479
483
487
486
490
492
492
478
466
470
473
474
474
472
476
474
475
480
488
488
490
487
482
482
486
488
487
480
483
487
486
480
480
489
499
499
490
483
485
480
481
479
485
481
475
478
474
478
483
489
491
485
486
500
499
486
477
477
475
476
478
485
485
488
485
479
484
484
484
478
475
477
473
459
464
481
493
497
493
492
492
483
480
481
481
485
490
494
496
496
499
499
502
507
503
495
490
488
490
494
500
501
499
499
496
494
496
500
498
492
489
497
504
514
518
515
520
519
522
526
523
523
529
523
509
507
509
509
505
508
514
521
521
516
519
522
523
519
512
512
519
525
524
522
519
512
506
502
501
497
489
488
490
498
508
507
498
486
481
481
481
489
490
487
475
467
459
448
454
462
470
468
471
472
470
471
472
474
475
473
473
470
468
468
468
469
471
470
463
461
464
466
471
474
473
472
478
479
479
474
469
470
470
470
470
472
468
466
469
465
459
462
469
481
486
485
480
477
473
475
475
471
469
473
472
466
463
472
476
465
456
460
462
458
457
466
473
482
481
482
486
502
522
546
573
602
632
655
683
715
744
775
803
826
840
841
836
827
833
848
861
863
851
832
808
769
724
688
666
656
643
622
597
576
546
519
490
458
419
389
374
376
380
387
396
405
424
435
433
429
433
438
445
444
446
452
456
455
464
467
460
458
462
472
480
480
464
451
451
456
458
461
462
459
455
454
452
447
443
446
454
460
462
461
456
444
444
441
441
440
440
446
445
448
453
457
460
458
460
457
447
445
451
461
465
464
463
466
469
467
468
466
466
468
467
470
471
468
464
463
467
474
469
466
466
467
476
478
470
471
471
484
495
496
490
485
476
474
475
478
476
476
478
490
498
495
486
484
491
500
510
503
494
491
487
489
495
499
495
500
509
511
508
505
502
506
511
511
505
504
505
513
517
516
520
524
519
518
520
526
528
527
530
529
526
532
540
540
541
545
546
543
543
544
543
543
546
548
552
556
560
566
567
568
569
573
573
567
558
556
563
567
570
566
557
554
559
568
581
585
583
588
589
591
588
583
580
581
587
593
586
588
592
588
579
572
577
582
579
576
576
577
578
577
575
580
579
577
569
559
558
555
551
542
540
547
553
543
540
531
522
517
515
520
521
524
527
516
506
499
493
492
493
490
489
486
477
469
466
467
467
466
460
456
455
453
450
450
452
445
435
432
436
438
433
430
432
436
435
425
416
418
423
415
404
398
394
392
394
397
401
401
396
396
397
399
407
406
402
406
409
407
399
398
397
397
399
407
412
413
420
424
419
413
413
412
414
414
411
412
422
423
407
402
408
411
404
404
413
424
425
425
434
441
441
427
418
416
418
419
424
429
428
419
418
424
429
436
429
427
428
431
434
432
430
433
440
442
439
436
441
441
440
444
454
450
438
436
441
440
436
439
442
444
445
446
448
452
467
469
456
445
442
446
449
449
448
446
446
450
454
456
450
442
448
455
458
459
457
455
453
458
462
463
462
459
456
453
464
474
475
468
467
476
476
472
473
472
471
474
472
467
469
474
471
469
467
467
466
466
473
483
490
492
489
479
472
474
475
473
467
470
468
472
471
470
473
476
478
482
489
494
493
482
474
473
479
482
476
470
473
477
480
481
476
468
469
474
478
479
479
484
486
477
471
470
472
475
479
478
473
466
461
461
465
469
467
465
463
464
471
480
482
485
488
492
492
482
477
477
476
476
470
471
475
473
471
469
471
473
481
485
482
479
475
474
474
475
473
471
472
474
477
479
480
479
476
473
472
470
471
476
480
478
472
476
470
460
467
477
477
475
472
468
472
479
488
483
478
481
484
486
485
487
489
485
476
471
470
470
474
474
468
470
480
481
472
466
467
466
468
476
484
489
490
484
481
480
485
488
483
477
475
474
473
467
465
464
466
474
484
491
494
490
481
480
485
486
484
483
485
480
473
474
478
478
480
480
480
476
477
482
481
479
480
484
488
486
482
479
473
471
474
486
498
482
476
479
482
482
484
486
483
481
481
477
474
472
476
485
491
494
496
499
504
497
488
482
480
476
476
476
476
474
470
473
479
480
479
484
485
483
482
482
479
478
479
479
479
481
479
480
481
480
483
483
480
481
483
487
482
478
481
480
482
483
483
482
486
489
487
492
494
490
492
492
489
484
483
483
478
478
484
487
486
488
484
474
475
475
471
476
477
482
484
484
487
497
507
504
497
489
486
489
494
494
484
476
477
491
501
500
496
497
505
507
508
512
515
517
517
521
529
526
514
520
531
532
521
509
504
506
513
514
512
506
499
492
491
496
507
517
516
510
511
510
512
515
520
520
512
506
510
518
521
517
516
516
512
505
500
503
500
496
491
488
484
483
482
481
481
482
477
471
466
465
462
464
463
460
462
464
465
468
471
472
465
464
463
463
467
467
465
462
459
462
471
472
470
466
466
474
484
481
466
464
468
472
471
470
467
468
469
471
477
476
473
478
481
477
472
471
477
485
474
460
459
462
461
462
470
479
470
460
460
466
467
467
464
461
462
462
458
454
453
468
488
499
500
500
505
523
546
570
599
626
649
679
714
750
786
822
853
860
857
845
843
847
856
864
866
860
849
829
800
769
730
696
675
663
648
626
603
577
545
513
479
445
416
398
395
394
400
409
418
422
422
421
426
432
441
443
448
456
461
464
466
469
468
463
460
456
452
450
451
453
454
444
443
444
443
449
446
444
441
437
435
435
433
432
433
435
436
440
454
462
458
447
435
437
446
452
454
457
457
456
450
444
450
455
451
447
439
437
440
446
462
472
469
463
457
458
463
468
467
459
453
455
457
460
468
478
480
481
482
486
482
474
473
475
475
476
479
477
481
487
487
480
479
478
478
482
487
493
492
485
479
480
483
485
486
490
492
487
488
495
504
507
510
513
512
510
511
513
505
493
493
502
506
507
511
512
511
507
507
513
516
513
513
522
526
519
520
528
534
537
538
538
543
544
542
543
551
551
545
549
548
548
553
554
553
549
555
562
561
560
562
566
574
576
562
558
564
569
575
576
580
583
582
581
581
574
575
577
579
586
592
588
581
579
579
579
580
578
579
584
588
586
583
581
579
578
574
567
567
567
559
555
556
560
563
561
563
560
547
540
540
537
533
533
533
534
528
522
510
503
496
496
502
503
500
493
495
495
495
485
478
475
470
467
465
458
455
460
467
458
445
448
452
449
446
445
446
441
418
403
412
422
421
415
413
412
409
408
407
408
408
405
403
403
399
400
401
401
403
405
405
409
416
420
408
391
386
387
390
393
394
396
399
404
409
411
416
411
402
393
394
398
409
417
419
416
417
417
419
426
429
425
414
414
418
419
422
422
425
427
428
432
432
429
427
424
425
430
441
447
445
440
432
420
418
418
421
421
420
419
417
420
424
432
433
433
436
438
442
449
456
459
452
447
445
446
450
448
444
449
460
466
467
464
459
459
462
463
461
463
461
459
461
468
472
462
459
456
452
449
448
450
452
457
459
457
460
461
463
466
467
467
469
467
464
465
466
464
466
468
465
460
460
462
464
467
473
469
463
464
463
463
464
468
474
477
481
480
473
469
473
478
480
480
476
472
472
474
479
481
477
470
463
459
472
483
479
479
482
482
477
469
466
464
470
480
478
476
474
470
463
457
455
462
469
471
471
465
452
454
467
477
475
475
485
495
503
506
495
481
476
476
477
478
479
481
479
470
462
462
465
471
473
474
479
477
476
469
467
467
467
468
472
473
474
477
479
479
475
476
483
483
476
475
476
475
475
472
472
471
474
479
479
471
468
477
484
488
487
477
473
471
471
472
475
481
483
487
482
482
481
478
480
477
476
479
481
480
481
481
476
480
483
480
477
473
467
466
469
474
482
486
484
478
474
471
466
474
483
484
487
489
488
492
500
511
512
503
491
483
478
470
462
463
468
470
473
474
472
475
475
475
476
479
477
477
480
479
477
475
480
481
480
481
481
482
485
488
483
480
481
479
483
486
485
482
484
481
478
478
479
474
472
475
481
484
486
489
491
488
488
486
482
478
480
483
482
486
485
485
483
483
487
487
486
479
475
478
474
471
474
472
469
471
475
481
488
490
493
497
501
503
502
500
499
501
492
485
486
486
482
478
477
479
492
498
496
494
491
489
490
492
487
484
483
482
480
481
482
488
488
485
488
496
496
493
494
498
493
484
482
486
479
474
476
479
482
477
475
478
482
484
489
491
489
485
483
482
478
474
474
477
482
488
490
497
503
506
503
504
504
498
487
490
500
506
504
508
498
489
492
498
503
504
506
509
510
508
512
513
509
512
515
521
528
531
533
532
529
524
520
521
520
514
512
508
500
496
495
501
514
523
525
524
522
516
516
521
525
525
526
527
523
519
516
512
511
512
516
516
513
502
490
485
479
478
478
480
479
477
473
467
462
461
465
472
474
472
469
467
469
473
473
469
468
472
478
470
461
462
463
464
463
461
459
465
473
482
482
479
470
468
474
476
476
475
473
476
478
480
479
467
464
471
471
477
483
478
465
468
480
486
479
472
467
466
466
468
468
474
478
474
466
468
469
471
466
457
451
457
463
465
465
466
477
490
499
505
509
525
551
577
608
643
667
699
735
764
787
810
833
850
852
844
844
846
856
865
868
862
843
822
794
762
729
700
683
669
653
634
611
586
559
517
463
427
409
399
386
384
399
414
426
433
434
431
422
416
416
425
433
444
453
458
462
472
471
465
452
450
452
453
457
454
449
450
454
447
438
443
445
442
439
439
442
448
451
445
439
442
449
453
451
448
454
452
451
450
448
444
445
445
443
446
450
455
461
465
462
455
456
460
462
463
461
460
462
460
459
456
454
457
456
456
459
462
464
461
457
458
467
476
479
480
486
490
486
480
478
479
478
472
471
476
480
484
490
489
485
479
478
482
484
489
494
498
500
503
506
500
492
488
491
491
488
484
488
490
489
493
499
512
518
509
499
507
521
521
522
528
525
514
519
521
525
523
524
522
525
528
529
533
534
531
530
529
529
530
533
539
545
547
546
545
549
551
560
561
561
567
563
553
559
571
576
576
581
576
571
567
566
564
563
570
574
575
572
570
568
572
576
572
573
583
598
607
600
592
590
582
580
580
582
585
584
580
575
575
579
581
573
564
560
555
556
558
556
548
543
546
554
554
558
560
562
560
550
536
529
527
529
525
523
521
516
514
504
500
507
503
497
483
479
481
477
480
484
480
474
472
469
464
461
459
449
436
434
435
435
433
429
423
420
426
436
434
427
422
424
428
423
413
401
396
397
403
400
401
404
401
394
395
402
407
405
405
401
403
409
407
407
411
406
404
402
402
396
392
389
393
402
406
402
398
401
411
416
415
413
408
404
405
407
409
408
406
414
421
423
424
423
420
418
410
413
425
436
437
435
436
439
442
437
429
430
434
433
437
442
437
438
443
442
443
442
437
437
440
442
445
445
441
441
446
448
452
453
451
453
455
453
445
439
439
443
446
445
455
474
484
477
466
457
451
449
452
455
458
456
458
458
455
460
463
461
460
466
474
476
467
457
452
456
462
467
465
462
457
450
454
463
469
462
458
459
462
469
477
482
482
479
479
478
476
477
475
471
469
475
474
471
470
473
473
473
471
472
476
474
471
473
470
468
468
466
465
465
466
468
477
485
484
479
475
478
479
476
474
474
472
473
477
481
488
494
489
479
471
473
476
483
480
475
473
464
469
471
473
476
476
475
471
471
469
474
481
472
466
474
478
479
473
468
468
470
467
472
481
477
468
472
479
480
481
479
472
468
473
480
496
496
481
480
487
481
476
478
481
483
481
488
493
499
497
495
486
478
470
472
474
469
467
464
466
466
471
476
481
478
472
471
477
483
474
469
472
468
468
474
475
482
489
489
486
486
481
479
479
475
470
467
472
480
483
483
477
475
476
477
475
477
482
488
491
485
478
477
477
475
474
471
468
470
476
479
477
479
477
478
479
480
475
472
475
477
476
475
473
470
472
478
478
475
477
482
489
491
482
479
483
488
488
484
486
489
487
483
484
481
474
468
471
480
489
491
490
484
484
489
483
485
495
500
486
470
467
471
476
477
472
471
476
487
490
487
481
474
474
480
483
475
473
482
483
484
488
488
484
483
486
486
488
488
488
490
492
494
499
491
490
491
488
477
472
473
473
479
483
488
485
485
485
488
485
481
475
470
472
482
489
488
487
489
485
482
481
480
492
490
485
487
487
491
491
485
486
488
480
472
471
472
475
486
493
490
492
491
489
487
486
493
495
501
501
498
498
505
508
505
510
516
508
502
505
506
501
498
500
499
496
499
500
502
507
514
514
513
517
522
523
521
522
525
525
519
512
511
512
509
511
514
516
522
529
526
514
509
505
506
517
529
529
521
509
508
510
509
508
507
504
508
511
507
500
494
485
483
489
494
488
479
474
473
473
467
462
462
464
473
480
469
457
457
458
460
465
469
470
470
477
479
471
473
476
482
478
474
474
468
470
472
475
477
472
459
453
456
463
473
473
468
464
473
475
473
473
477
481
481
478
475
477
475
476
480
480
479
485
493
491
478
474
474
470
475
473
467
469
467
455
447
445
447
456
465
477
489
497
500
502
515
536
558
576
600
630
666
701
730
744
766
800
835
860
862
851
844
841
845
853
863
856
830
786
739
701
677
659
641
622
592
565
547
529
500
468
438
416
395
381
381
389
403
412
417
426
429
430
433
434
441
449
454
456
459
459
466
474
480
489
494
495
497
485
466
456
448
451
460
451
447
453
456
453
444
430
430
437
440
449
454
454
454
456
449
442
452
465
459
450
447
443
447
455
455
451
456
462
471
476
471
467
447
427
421
416
416
438
448
439
449
471
475
478
493
501
499
500
495
488
486
487
491
487
484
488
492
494
496
496
496
493
491
492
490
490
487
488
493
498
501
505
503
502
501
499
499
494
494
496
496
497
494
486
482
488
494
492
490
495
500
504
508
504
499
502
508
512
516
517
518
522
527
524
518
518
516
513
510
512
515
522
521
520
518
523
532
536
533
536
541
541
538
540
543
544
543
546
550
553
557
561
563
560
558
562
568
566
564
565
562
565
572
575
575
572
573
573
571
580
586
589
588
591
597
592
580
579
583
583
580
574
562
561
569
568
561
559
566
569
573
578
567
561
560
564
566
571
577
581
580
569
561
553
550
550
548
540
537
533
530
533
532
526
511
504
503
503
504
495
491
491
489
484
476
469
469
466
458
448
444
443
447
451
449
441
436
436
436
431
426
421
420
414
415
417
415
410
409
412
423
428
430
427
411
411
418
425
417
408
403
402
401
403
402
400
401
407
410
410
403
401
397
393
391
394
397
404
411
414
411
412
416
416
408
403
401
399
396
404
415
413
410
408
403
406
410
413
410
412
415
420
423
420
419
424
429
436
439
434
425
423
419
419
418
422
423
427
428
430
434
437
436
436
439
438
434
431
441
446
445
430
428
433
437
445
450
442
437
438
455
464
455
446
445
446
450
455
453
453
456
458
461
461
459
459
468
471
464
460
460
462
458
454
454
456
456
460
467
472
471
470
469
470
472
474
479
479
470
464
466
465
464
460
461
463
467
471
471
474
473
466
464
465
473
480
473
458
451
453
465
476
482
485
483
474
468
468
472
478
475
471
471
477
489
493
488
480
472
471
479
483
484
477
477
478
482
481
478
476
476
479
481
480
481
476
469
468
468
472
475
475
475
472
471
478
481
479
480
482
478
480
480
481
481
470
467
475
484
486
482
476
468
467
466
471
473
474
474
472
474
481
487
482
480
482
482
481
476
465
459
455
464
480
490
493
483
478
478
471
466
463
467
474
471
469
472
472
473
478
476
472
470
473
482
487
491
489
490
486
481
480
478
476
477
483
489
497
491
480
470
469
477
480
482
476
473
471
473
477
475
475
481
485
475
473
479
480
477
478
474
472
471
472
479
482
486
490
481
474
470
474
482
490
493
489
484
478
477
477
477
479
477
477
475
474
477
483
491
499
493
484
480
471
471
472
474
477
479
482
486
485
483
484
479
478
478
482
478
468
467
484
500
504
510
506
490
483
479
472
466
470
479
487
488
482
481
484
486
487
490
492
498
502
499
485
478
489
493
487
486
487
486
482
482
486
486
481
480
486
491
489
482
471
469
473
480
484
485
484
480
483
489
488
484
482
482
478
476
477
481
483
485
487
498
500
497
494
484
477
469
469
476
483
486
484
482
489
501
502
503
505
497
485
482
491
499
501
500
500
496
495
495
500
503
510
507
495
490
487
490
493
493
495
499
504
506
505
510
515
518
517
515
513
520
526
528
533
532
532
529
519
515
515
513
510
507
510
512
513
516
519
520
525
527
518
512
516
519
522
527
522
507
495
494
498
495
493
489
483
475
474
472
474
479
480
482
480
475
472
470
470
471
463
466
474
481
479
475
478
480
485
478
461
455
460
461
458
458
458
461
474
487
496
496
476
471
472
468
461
458
461
465
467
465
466
469
467
470
467
466
473
472
472
476
472
471
475
478
476
474
474
469
464
460
461
464
466
464
461
457
450
450
457
463
453
440
435
440
455
473
488
500
505
521
546
571
598
628
658
685
714
744
772
798
831
851
849
849
847
852
857
865
871
869
849
829
805
767
726
694
671
646
642
641
613
581
566
547
507
467
438
417
405
399
395
402
415
420
427
438
443
438
440
444
442
443
446
451
457
456
456
456
463
471
470
462
452
443
441
440
440
441
440
439
435
435
431
425
428
432
433
428
427
431
435
441
443
442
440
429
421
428
444
456
463
463
464
463
456
450
446
444
449
453
455
458
460
463
462
457
458
458
455
455
455
461
459
455
465
473
480
476
464
467
466
459
460
461
463
464
468
475
478
481
488
487
484
483
485
481
471
472
478
480
484
483
483
487
493
492
488
487
489
490
490
492
496
495
496
499
498
497
499
504
507
513
509
501
499
503
510
514
515
513
505
500
504
507
505
505
508
509
508
518
530
534
534
534
532
527
530
535
540
541
547
544
546
546
542
541
540
545
550
553
556
557
560
561
569
572
567
565
568
563
561
564
569
572
571
574
579
581
578
572
576
582
585
584
582
582
579
580
585
584
584
586
583
582
580
580
579
574
571
571
574
576
579
575
569
563
559
560
560
554
548
546
549
549
544
543
545
545
544
544
545
545
538
523
515
506
496
490
486
487
494
498
496
491
484
474
463
462
470
475
471
460
457
473
485
469
442
432
434
434
430
427
426
430
431
429
428
427
428
432
433
431
422
411
396
389
390
396
404
404
398
392
396
398
399
398
400
401
402
402
403
402
402
405
406
405
401
397
399
400
404
408
410
410
411
411
411
416
418
418
420
421
416
418
425
425
423
419
420
420
416
410
406
406
411
417
422
427
430
434
434
435
434
430
426
422
425
430
436
436
433
434
439
441
434
434
442
446
450
452
444
439
447
447
445
455
461
456
444
442
448
451
451
450
450
449
445
442
445
451
459
463
461
458
455
455
453
455
455
454
454
453
455
458
454
451
454
462
463
464
465
463
469
472
471
470
472
474
475
476
473
469
469
468
468
467
470
471
471
472
478
478
473
471
470
471
474
476
480
475
467
465
466
470
473
468
466
470
476
475
475
476
470
470
473
473
472
472
473
468
467
466
466
468
470
471
475
484
498
496
487
491
505
505
488
474
467
471
478
479
477
477
473
471
469
466
464
466
470
474
477
477
473
469
467
467
469
471
473
471
471
471
471
473
475
472
472
477
483
482
475
472
472
470
474
478
478
478
481
485
488
487
480
477
474
475
475
473
472
472
472
472
470
471
474
481
482
480
476
473
468
465
470
478
481
479
473
477
481
482
486
489
489
485
491
492
477
468
466
470
472
468
458
458
463
469
469
466
469
487
503
507
495
481
476
477
485
481
469
462
464
470
475
475
477
482
488
488
486
480
473
477
482
486
483
481
488
493
488
478
468
467
466
471
477
480
480
479
477
474
472
472
476
478
479
480
485
492
492
485
482
480
480
479
477
476
479
480
479
481
482
481
481
480
477
477
479
479
480
487
488
488
483
480
482
482
480
477
477
478
483
489
489
489
494
492
486
486
485
490
491
483
477
469
464
468
479
479
467
460
463
479
490
491
488
489
488
486
485
487
490
500
498
479
475
483
486
482
479
480
483
486
486
483
479
479
480
483
485
485
484
488
488
487
486
483
477
474
477
481
482
484
488
490
491
487
479
477
480
481
484
489
492
494
496
499
505
508
510
509
507
504
504
504
501
499
496
496
496
501
502
500
505
505
502
499
501
507
507
504
507
512
512
514
518
518
518
516
515
512
506
506
513
514
501
499
512
531
543
529
512
504
507
512
515
518
522
520
518
513
503
500
504
500
498
499
500
494
486
483
482
480
479
480
478
475
474
472
467
458
459
461
455
456
465
475
480
480
474
469
470
473
475
475
477
480
479
484
484
474
463
457
459
465
466
471
467
464
467
477
482
487
489
487
480
477
474
473
470
467
467
469
471
468
464
465
468
476
474
474
474
473
474
472
473
476
473
467
460
454
452
454
458
458
456
457
461
463
466
474
483
491
496
508
533
559
582
615
653
689
719
744
774
810
841
863
865
863
863
865
874
883
880
876
861
831
798
764
729
705
685
672
658
633
613
588
554
515
487
458
426
403
391
394
404
413
418
420
422
416
419
423
431
435
442
449
451
454
467
475
470
463
457
455
455
452
450
450
450
451
451
450
451
451
449
447
446
441
437
435
432
433
435
435
435
435
440
442
443
440
441
441
438
441
445
443
440
443
448
451
450
453
455
457
464
469
463
450
444
436
435
444
456
461
463
465
464
475
485
482
476
472
470
467
474
474
468
468
470
470
472
473
470
471
473
477
474
467
470
475
474
473
474
485
493
502
500
486
476
477
487
493
493
494
501
500
494
500
507
511
508
504
502
507
510
508
505
499
497
496
497
500
503
507
513
516
518
515
519
520
520
521
516
520
520
519
525
534
536
532
529
534
539
535
537
547
554
555
552
546
548
551
556
559
561
556
550
550
550
549
552
556
557
559
569
584
592
591
586
585
588
592
587
581
582
583
583
582
584
586
585
579
579
580
587
588
579
571
575
586
595
594
589
583
581
577
568
560
552
547
545
544
551
563
569
563
553
549
546
545
546
553
554
548
534
525
516
514
515
510
505
501
501
501
494
488
482
479
480
480
477
475
469
463
463
460
458
458
462
460
460
455
453
443
430
427
429
431
432
432
430
424
425
425
418
411
403
401
402
398
399
408
413
391
376
380
391
408
415
407
409
411
415
419
418
416
417
411
401
400
399
401
403
400
401
405
408
415
421
421
412
414
421
422
421
423
419
413
416
425
430
429
428
431
432
432
435
433
429
420
413
414
417
417
421
424
427
429
431
436
439
439
438
435
437
441
444
443
440
438
440
438
437
442
441
441
443
438
438
443
448
457
458
458
457
451
446
444
446
446
449
451
449
450
450
452
453
452
455
457
452
453
456
453
456
457
461
456
454
453
454
458
467
470
462
460
463
470
470
465
468
470
468
465
464
466
469
469
474
472
468
467
471
474
474
474
474
471
470
469
466
463
462
456
453
457
462
471
475
473
475
472
473
474
472
472
470
474
476
478
477
470
470
474
480
480
478
482
489
483
476
473
475
479
477
473
469
468
471
479
480
479
477
480
478
469
470
470
471
473
475
474
474
473
474
474
475
476
474
472
468
458
459
472
473
480
484
478
477
480
475
475
479
478
477
478
476
477
482
482
476
476
472
467
470
472
469
468
468
471
481
487
486
485
481
477
475
475
475
478
481
486
488
488
486
489
490
485
482
480
471
459
457
461
466
467
462
463
466
464
466
469
466
469
469
473
471
475
493
505
492
480
476
473
469
475
488
480
470
472
474
471
472
474
479
483
481
475
468
467
474
483
483
484
480
476
474
477
481
480
477
472
475
478
479
477
479
479
481
477
476
480
491
499
499
490
486
486
487
478
476
474
476
479
479
481
480
481
485
488
478
471
470
470
478
482
483
486
484
479
475
473
478
482
485
492
497
489
475
470
474
482
487
487
486
482
482
484
485
487
487
485
490
494
494
485
473
474
484
487
486
488
483
472
472
478
477
481
485
492
496
491
490
489
486
485
480
477
478
485
491
491
486
484
481
484
489
486
480
476
483
487
483
479
474
472
475
485
493
492
481
479
481
485
482
480
479
475
475
479
485
492
493
495
496
490
492
499
507
509
507
501
497
502
504
500
501
502
506
500
495
496
492
492
494
497
493
494
501
508
511
509
509
515
517
519
515
514
516
523
525
520
518
513
518
520
519
518
516
521
516
510
514
520
522
525
521
525
528
527
521
514
509
508
506
507
513
511
500
502
503
491
475
472
476
473
471
478
485
495
495
490
487
475
467
463
462
464
461
460
462
462
466
467
472
475
477
473
471
473
474
470
466
470
470
467
467
466
461
459
460
465
469
474
479
482
481
481
485
477
473
467
455
458
466
474
476
472
470
473
475
474
475
478
478
475
467
464
460
460
467
473
463
460
466
465
462
464
465
462
457
460
463
469
472
477
485
491
500
518
542
573
605
637
672
700
728
762
798
818
838
843
839
835
840
845
854
869
874
863
849
818
776
738
713
689
656
624
602
579
564
548
528
491
452
419
393
379
382
390
400
408
415
416
421
424
427
430
441
455
466
467
461
463
462
464
466
472
471
471
467
464
462
459
455
450
449
449
451
451
451
450
445
445
443
446
452
449
442
441
439
443
446
448
456
465
464
465
466
456
457
460
462
467
466
463
460
460
453
451
450
450
442
441
450
461
472
475
476
472
465
453
446
448
448
455
462
468
474
472
476
483
484
481
481
483
480
476
471
468
467
469
472
472
476
482
484
484
481
479
479
479
480
482
490
492
491
494
496
495
492
493
487
483
496
508
510
514
514
510
509
509
510
512
520
529
525
511
509
510
513
517
519
521
524
529
532
532
531
536
534
530
530
533
538
541
532
531
538
548
554
554
549
553
559
561
564
568
569
556
543
541
546
557
559
557
560
577
590
592
590
590
597
593
584
576
572
577
578
578
577
577
577
581
585
590
589
584
586
587
582
577
571
570
575
577
575
571
570
565
559
559
566
572
569
560
555
554
553
551
551
551
554
555
548
534
525
521
516
516
510
502
500
493
496
502
506
509
511
510
504
503
500
498
486
475
468
467
465
463
458
455
456
456
457
460
461
461
455
441
431
426
423
428
423
415
414
419
413
410
414
418
422
420
409
398
389
394
402
402
401
409
412
407
410
415
416
411
410
412
408
406
408
411
411
412
410
409
413
414
413
411
412
414
416
418
417
417
420
418
413
414
415
416
415
421
424
422
421
423
421
420
425
432
433
431
427
427
430
440
437
430
429
426
431
434
432
435
440
440
436
437
440
443
442
438
438
440
445
448
441
438
441
446
448
448
449
450
451
454
454
451
458
460
456
452
454
448
446
447
450
449
452
459
460
458
454
450
456
459
458
462
463
462
462
465
467
463
465
470
474
476
476
478
474
465
461
460
463
471
470
465
463
462
469
474
473
470
468
471
475
473
472
473
476
482
482
482
483
481
474
469
469
467
468
468
470
468
467
466
467
466
467
471
472
474
477
481
485
484
481
476
478
478
471
463
460
467
475
468
465
469
473
480
484
482
471
473
483
493
501
499
486
488
484
475
469
470
471
468
464
465
467
465
458
459
461
468
469
464
459
462
468
474
474
477
480
477
469
469
474
479
479
477
476
476
474
472
476
476
472
470
467
468
473
479
480
473
472
475
480
479
477
480
481
483
479
479
481
483
477
471
469
471
466
463
465
473
477
480
472
466
468
472
480
485
485
482
477
473
474
475
475
476
472
471
469
472
480
476
470
481
492
491
479
472
474
482
485
490
489
480
470
468
470
474
473
471
472
487
503
501
490
481
478
481
482
476
471
473
477
482
480
476
477
481
480
474
473
476
481
482
486
485
483
481
480
475
468
469
475
477
474
480
484
488
489
482
476
475
476
475
471
464
460
462
469
481
486
489
490
499
499
494
486
479
478
480
476
474
474
475
473
467
470
478
487
490
487
485
486
491
489
489
483
482
482
481
482
484
486
488
496
493
486
484
482
480
482
485
488
484
480
477
476
482
489
489
486
489
491
486
491
488
480
484
487
490
497
500
502
507
506
499
498
502
501
509
512
510
506
508
508
510
503
496
498
499
497
495
496
501
505
506
507
509
515
511
501
497
503
512
515
514
515
512
514
521
527
526
522
517
515
513
513
515
519
519
521
517
511
508
506
509
513
513
512
511
513
512
509
506
503
500
499
501
498
493
489
488
484
480
480
481
476
471
469
470
468
471
474
473
469
464
467
466
464
469
473
473
470
474
476
476
477
477
481
484
485
480
479
482
476
470
467
458
463
474
479
476
468
461
464
474
476
474
474
478
477
477
482
483
467
456
465
481
485
474
470
471
477
483
479
474
476
473
464
455
455
456
461
464
467
474
480
481
476
476
480
486
488
495
508
529
554
580
603
632
662
688
714
740
771
801
824
841
848
850
849
852
853
858
863
851
832
802
763
725
695
677
665
647
624
605
577
544
518
484
446
410
387
380
385
393
404
410
407
406
419
428
432
432
432
435
441
453
455
458
463
463
468
479
478
477
471
463
462
461
456
451
446
444
441
431
428
441
456
460
459
461
460
463
467
464
455
451
456
457
452
448
447
444
446
445
447
447
446
444
442
449
457
462
464
461
460
462
468
470
468
461
458
460
459
459
463
462
457
458
469
473
467
469
471
468
469
471
474
477
480
481
479
478
479
482
485
482
477
475
474
476
474
474
482
493
500
501
497
496
498
496
490
488
492
491
490
489
490
496
504
506
502
499
504
513
510
509
508
501
502
504
509
513
511
503
503
510
517
521
517
513
520
527
533
538
540
537
545
550
541
539
544
550
563
565
547
534
533
538
547
554
553
551
558
566
564
559
561
565
563
559
559
568
573
576
577
572
566
565
571
575
584
590
595
594
589
582
579
571
561
565
574
575
573
572
570
571
579
585
591
601
599
584
575
573
567
562
561
564
564
561
554
546
537
538
543
552
555
543
534
537
542
543
539
543
540
532
528
520
508
508
511
507
498
495
492
495
490
476
470
465
465
468
469
466
462
466
465
450
439
442
448
447
437
426
418
423
430
427
417
410
405
402
406
410
411
409
403
401
403
404
402
400
401
407
413
412
411
407
403
400
398
393
395
396
397
403
405
409
402
401
404
403
401
401
407
410
411
411
414
417
419
420
422
421
419
419
411
407
404
408
416
424
427
424
425
423
417
413
415
415
407
403
417
429
440
446
446
435
431
439
443
444
447
444
437
440
442
443
456
460
443
437
439
441
446
445
438
431
428
426
429
436
444
454
458
456
447
448
451
455
455
452
451
452
447
448
453
458
457
457
454
453
455
456
455
455
456
459
461
463
462
459
460
462
463
466
467
468
476
482
477
471
466
466
465
460
459
460
461
466
473
473
474
476
477
480
479
475
472
477
476
468
464
460
463
469
470
472
473
477
472
467
472
475
471
468
467
471
476
480
480
480
476
483
495
491
480
465
459
464
468
465
463
470
479
483
487
489
486
487
490
490
485
478
471
467
469
471
469
473
477
479
482
478
474
476
477
474
476
480
474
475
479
479
474
472
475
479
476
476
476
476
476
472
474
473
473
469
469
471
470
472
476
475
468
467
470
470
473
475
477
478
478
477
480
480
478
475
476
479
478
472
469
467
460
458
456
458
468
478
478
476
479
483
484
481
474
470
470
470
475
478
479
473
474
483
488
480
478
490
494
492
479
472
477
486
491
481
476
471
472
474
477
483
479
478
478
470
467
474
482
484
478
475
487
489
487
488
491
485
474
470
477
472
471
470
471
476
476
474
476
479
483
482
482
478
475
474
477
482
485
483
478
478
480
479
479
480
481
476
478
485
493
497
497
492
485
479
475
475
473
472
470
470
471
476
476
476
476
483
485
486
487
485
483
481
474
474
473
479
482
475
466
467
471
476
481
487
486
478
480
491
489
490
489
496
500
490
485
484
485
486
491
495
484
473
474
481
488
493
489
486
482
479
484
484
480
481
486
492
493
495
489
483
477
474
471
472
479
484
483
485
489
491
493
491
488
486
487
485
483
489
492
492
488
484
480
483
483
481
482
483
479
480
490
495
497
500
504
508
509
503
498
493
490
493
495
498
501
506
509
503
494
489
485
493
498
497
496
498
508
517
517
517
516
512
514
520
527
529
527
524
521
524
524
517
507
498
499
508
512
515
521
528
532
515
509
509
510
507
505
516
525
523
517
519
512
498
498
496
493
496
500
495
483
479
487
485
486
486
486
489
487
478
469
464
468
471
475
474
469
464
464
466
469
471
477
469
467
469
471
467
464
465
465
471
474
472
463
460
465
469
471
474
483
489
487
481
479
479
475
477
478
472
468
470
469
469
467
469
469
468
464
460
464
472
474
476
479
482
485
472
456
444
447
460
463
464
468
468
463
460
459
462
472
479
485
491
500
513
528
545
574
611
651
675
702
738
774
802
826
846
851
840
833
843
851
860
862
861
851
834
807
780
746
720
700
679
662
641
624
603
576
548
516
484
451
417
391
379
381
394
405
413
420
422
418
412
422
438
441
439
445
466
470
458
451
453
456
463
468
465
453
436
433
439
438
434
431
426
433
446
451
448
446
443
452
456
448
444
443
444
448
452
450
445
440
439
437
439
441
445
452
451
452
451
447
441
437
439
443
447
450
455
458
459
466
471
471
461
448
445
444
442
446
453
459
462
465
467
471
476
479
480
475
474
472
475
479
473
465
468
475
477
475
471
472
470
471
479
487
494
494
490
484
483
486
488
492
497
499
497
497
500
496
488
488
489
492
499
512
512
501
497
498
495
500
507
516
516
517
522
527
535
532
517
510
514
522
526
529
537
535
528
531
530
525
527
527
528
528
532
537
535
536
541
543
546
545
546
554
563
562
563
565
563
562
559
563
568
576
581
582
584
589
592
588
575
573
576
577
576
580
585
590
590
587
589
583
572
565
562
564
565
560
560
561
561
576
586
588
576
568
569
568
561
556
559
561
557
554
553
553
551
545
545
546
541
538
538
536
535
533
531
527
525
524
511
499
496
501
499
497
494
486
478
470
466
464
464
463
462
458
454
450
442
440
439
438
438
434
432
428
423
416
414
416
419
418
415
413
408
405
406
411
414
416
418
418
418
416
412
413
415
407
400
406
407
397
389
390
400
402
394
387
388
396
402
406
413
406
399
400
406
416
422
416
413
415
416
412
411
410
412
417
419
420
423
417
412
412
415
420
425
425
414
419
434
437
432
429
431
433
439
437
435
437
440
442
438
437
438
429
425
428
435
440
444
446
445
444
445
444
446
447
444
445
445
442
441
443
452
452
442
442
449
455
468
473
469
466
466
467
466
463
451
447
449
450
449
451
456
457
457
459
461
463
464
464
462
465
469
461
455
454
456
463
465
468
465
466
471
474
476
473
475
473
468
471
470
469
468
470
471
471
469
470
473
472
467
468
473
471
472
468
467
467
464
469
477
477
472
466
464
463
464
476
493
496
479
468
465
465
467
468
473
476
470
464
466
479
490
491
480
483
485
482
478
473
471
480
487
478
475
475
477
483
491
489
482
481
479
472
468
468
473
481
492
490
477
469
469
470
467
471
473
478
482
480
475
475
473
471
467
465
460
464
466
468
467
468
470
473
474
472
475
479
485
483
479
481
486
484
473
467
465
467
470
470
469
468
468
466
466
468
474
481
486
483
480
477
479
479
474
474
481
486
488
484
480
475
469
469
477
486
476
477
481
485
490
487
474
459
460
474
485
486
484
480
479
485
488
479
478
489
496
498
494
481
478
480
478
476
476
473
469
470
472
469
466
470
479
487
480
474
473
475
475
471
471
475
474
481
479
477
478
475
471
474
474
480
483
476
469
474
484
487
483
478
480
486
489
483
481
480
484
485
474
471
476
481
485
485
486
487
488
490
487
481
483
483
486
489
491
487
490
488
483
483
479
471
463
464
460
463
474
488
496
492
488
486
489
494
492
485
478
470
473
483
492
492
484
481
490
495
483
479
479
479
483
482
480
478
480
479
478
473
473
475
476
480
480
480
485
495
494
488
484
480
481
481
486
484
483
482
481
479
477
479
482
483
475
472
477
480
480
481
480
481
484
489
496
489
489
498
494
492
487
482
489
492
496
498
504
513
511
501
492
484
488
488
491
497
506
509
509
509
507
496
493
493
486
477
476
479
499
512
509
508
510
509
515
519
519
516
510
514
526
526
517
513
511
512
516
508
497
498
504
510
513
512
513
522
529
522
519
516
515
515
515
520
520
514
509
502
501
503
509
514
512
508
502
494
491
489
483
486
487
480
478
475
465
455
448
452
463
467
466
461
470
482
484
479
472
467
461
459
464
473
482
480
468
458
457
467
479
486
489
492
494
495
489
481
456
445
450
463
468
469
469
468
465
465
466
461
459
461
462
464
466
464
468
474
470
463
457
458
465
477
483
482
483
479
471
465
462
461
466
462
460
460
457
458
469
480
488
494
501
515
539
561
582
611
637
668
706
740
773
806
832
847
852
856
857
853
858
869
877
872
859
839
812
781
749
723
706
684
660
644
627
603
570
536
503
462
433
410
394
387
393
397
403
408
415
420
425
432
438
443
448
453
456
459
458
460
463
462
458
454
448
441
441
439
446
455
459
448
448
450
442
439
442
444
443
441
440
439
436
433
434
435
439
443
443
439
439
445
457
453
448
451
455
460
463
462
455
449
450
449
449
450
459
464
467
465
463
463
462
458
462
466
464
462
462
458
449
447
443
449
461
466
467
470
473
472
471
470
471
474
478
477
480
482
480
475
476
485
488
484
483
482
485
488
488
485
488
492
493
497
499
497
494
484
480
489
494
495
493
493
497
495
498
503
509
512
514
515
515
516
511
508
506
514
523
526
529
522
515
519
517
513
523
532
538
533
523
525
534
537
535
535
539
545
545
550
557
564
570
571
567
564
560
555
550
548
550
552
556
562
569
570
575
581
592
601
594
577
577
586
586
584
582
580
573
569
574
576
581
585
584
584
590
590
576
572
574
573
570
574
579
580
571
558
554
562
571
573
564
559
552
545
548
551
556
548
528
525
527
531
531
525
520
527
532
527
523
519
508
496
498
501
491
482
478
474
472
473
477
481
477
471
462
455
458
464
467
459
445
432
427
424
424
423
423
418
415
420
421
418
422
422
421
418
412
409
405
401
396
399
407
417
424
419
411
408
406
401
397
402
404
400
391
391
390
390
397
402
404
406
409
409
408
413
416
417
423
427
432
437
433
433
423
408
401
394
396
403
411
418
416
411
414
425
431
430
426
417
416
423
428
432
439
448
444
434
432
430
435
434
435
438
439
435
434
434
432
438
443
448
450
447
442
441
447
457
457
446
441
442
446
453
458
458
453
456
465
468
459
457
457
450
444
452
464
465
465
464
460
458
461
463
462
457
456
456
456
457
456
459
461
462
462
469
473
473
471
474
474
472
467
464
459
461
468
467
460
457
459
467
475
473
472
471
469
461
459
468
485
492
484
478
472
473
478
477
477
477
473
471
472
468
467
471
473
470
470
476
483
481
483
485
481
477
477
475
476
474
478
482
485
484
483
483
481
477
476
478
475
469
471
477
484
483
474
467
464
465
470
476
482
475
468
466
466
467
469
470
472
472
473
473
472
469
470
475
484
490
473
468
466
467
475
474
477
480
478
478
481
485
481
474
473
477
478
487
494
498
492
487
482
475
468
467
469
471
476
478
472
465
464
471
473
467
463
460
461
470
476
480
480
477
473
475
478
475
466
470
472
475
475
476
476
477
483
481
482
483
484
480
478
482
483
484
481
473
473
477
478
479
480
475
474
475
480
484
483
484
479
478
474
476
479
477
480
484
483
481
479
476
475
476
477
478
476
477
481
480
479
479
479
473
470
472
473
477
485
491
493
496
501
487
481
479
478
479
482
481
483
482
483
484
485
475
475
478
482
481
474
477
480
484
482
481
480
480
480
480
482
477
474
475
476
483
487
485
486
488
488
482
476
475
476
484
485
477
472
476
488
482
478
484
489
483
477
476
478
482
486
489
485
481
482
483
494
497
491
485
486
486
483
482
486
479
475
481
492
485
477
478
482
482
482
485
488
491
496
495
493
488
481
478
478
483
482
486
486
481
474
479
487
486
484
477
472
472
480
479
480
485
486
480
480
481
482
487
494
497
495
489
479
477
481
484
486
492
492
486
484
489
494
490
489
493
496
492
490
490
485
485
491
495
482
483
489
497
505
508
509
510
506
496
491
491
497
498
498
506
518
519
516
515
516
519
523
525
523
519
521
530
524
508
506
504
503
505
505
508
507
508
517
521
517
512
512
515
518
515
512
512
509
507
501
501
503
500
499
505
509
506
504
504
503
497
490
484
486
492
487
482
479
477
473
474
474
471
467
468
469
471
481
484
471
462
461
466
471
472
477
482
483
487
480
471
461
462
472
471
468
467
465
465
468
464
471
472
473
479
484
477
469
467
470
469
469
467
468
468
468
468
469
471
473
475
472
469
465
464
464
462
462
461
464
466
466
465
463
459
463
471
477
466
453
449
457
476
492
498
502
505
502
512
530
551
575
600
630
667
699
734
774
810
831
844
852
842
831
835
841
850
863
860
842
820
784
740
710
681
664
660
636
603
577
551
527
502
476
445
416
396
385
386
399
412
420
428
428
422
422
433
441
444
445
445
452
462
465
465
467
459
456
458
459
456
455
453
447
445
446
441
444
449
453
457
458
456
447
441
441
440
442
443
446
445
443
446
449
454
455
455
462
464
461
458
451
444
435
433
436
444
450
453
454
457
459
455
452
458
462
469
478
481
476
473
471
465
456
454
456
457
463
468
469
472
476
479
473
468
467
467
469
471
474
472
468
474
484
490
488
481
478
481
484
488
493
496
498
495
495
505
512
503
505
504
492
487
490
496
497
498
501
501
505
505
507
508
515
522
519
515
514
514
514
516
515
511
511
516
515
518
520
521
523
523
525
529
533
538
538
538
538
540
537
541
547
552
550
549
554
552
544
