484
485
484
483
486
491
495
497
495
486
481
483
487
485
486
491
491
489
492
491
493
492
493
498
500
497
488
489
497
498
497
500
504
502
499
500
505
508
509
512
521
522
523
528
528
525
523
517
510
510
501
500
503
503
505
508
512
510
513
516
515
518
524
521
519
518
516
518
519
517
513
520
519
515
513
510
512
514
512
510
505
500
498
500
495
489
494
510
523
526
520
509
516
518
505
487
467
448
438
429
431
437
444
447
452
459
463
464
458
457
459
454
454
457
460
465
473
475
478
475
472
475
474
472
469
473
477
476
470
469
467
458
452
458
458
457
461
469
481
478
461
450
448
450
451
454
451
449
452
454
454
446
440
437
435
442
455
454
456
464
473
472
465
469
481
500
517
540
584
623
649
669
688
715
747
788
812
820
806
791
791
801
805
805
806
802
785
766
740
700
671
656
642
629
614
594
579
567
548
523
492
459
428
411
410
416
428
432
440
445
449
453
453
450
448
447
448
449
454
455
459
465
467
468
463
459
454
451
451
450
448
447
447
444
455
455
442
432
440
457
466
457
449
445
451
456
460
456
461
466
469
472
467
455
449
452
455
464
471
466
457
451
455
467
476
468
461
459
455
453
458
465
464
459
453
464
475
471
457
442
453
466
479
481
483
478
472
471
474
472
471
475
477
477
477
476
479
479
478
488
492
486
471
462
468
489
502
504
504
496
491
488
485
486
485
483
481
490
497
499
496
494
495
494
504
502
501
504
507
510
511
510
508
502
507
510
506
501
505
513
521
517
513
515
521
532
548
556
548
540
537
550
560
560
554
544
525
514
512
509
510
531
572
589
582
577
571
566
555
544
541
536
537
539
546
566
570
562
554
558
555
557
568
572
564
559
565
579
598
600
597
599
602
586
545
531
541
553
571
581
589
592
589
587
578
571
569
564
572
583
594
582
563
550
537
539
551
557
547
559
584
591
554
520
504
459
423
421
434
467
489
467
447
424
435
469
487
476
445
432
448
470
469
472
482
492
498
489
479
475
472
474
466
445
426
429
439
433
424
428
435
440
451
449
433
425
439
454
446
442
445
437
425
413
412
399
385
365
330
316
348
398
435
461
476
476
475
483
478
476
483
486
492
511
511
506
506
510
510
504
483
439
394
358
332
345
379
397
393
405
404
381
384
379
377
382
389
382
392
402
416
433
448
439
434
434
436
448
456
435
438
447
443
445
451
448
456
468
468
459
446
449
450
449
460
469
475
473
466
463
447
434
442
452
445
439
434
428
438
453
455
442
457
469
487
497
485
472
483
473
462
460
472
492
524
520
477
439
415
378
336
381
397
419
450
460
459
451
439
454
457
427
396
421
436
410
358
342
367
411
446
487
512
522
523
524
524
525
520
511
498
492
494
497
482
464
460
469
481
487
491
495
493
489
488
489
503
526
551
569
585
597
596
594
592
599
593
573
541
501
460
431
422
443
489
527
531
540
533
515
497
491
483
449
424
409
405
392
379
383
382
400
410
428
433
432
443
448
443
435
431
418
418
420
416
418
443
475
485
488
492
487
468
460
482
500
516
525
517
482
449
448
467
464
455
464
479
483
476
477
498
519
532
534
531
536
533
513
394
277
306
396
440
445
448
471
506
530
535
530
515
499
509
523
526
528
489
416
425
472
477
475
469
465
464
463
464
462
461
467
465
465
465
458
452
450
459
466
471
475
478
480
486
495
494
490
486
474
467
463
459
456
462
467
467
468
466
466
464
461
469
480
483
478
471
476
487
484
474
473
479
475
474
478
484
494
515
530
536
534
522
497
486
477
477
476
465
452
435
433
441
442
444
440
445
448
459
469
469
468
469
465
455
447
450
453
457
463
465
466
470
477
478
476
482
496
499
497
499
505
509
507
500
485
469
464
471
476
478
481
486
496
497
500
496
483
465
452
449
447
434
436
445
453
453
452
452
454
463
478
488
490
493
500
500
493
490
493
484
476
477
481
484
482
484
486
490
486
481
488
489
484
482
484
489
491
478
468
462
463
463
465
470
472
471
475
479
489
495
493
490
505
515
512
497
487
499
517
515
506
486
474
493
504
513
508
509
513
512
515
516
525
523
521
515
501
486
479
474
481
489
503
505
505
510
499
491
488
488
483
490
489
489
491
493
497
494
496
501
500
496
489
492
495
495
500
504
511
517
523
521
523
524
526
521
516
518
518
517
514
520
523
508
494
493
499
500
495
500
515
528
539
550
553
547
539
533
520
499
482
475
471
466
458
456
447
464
489
502
516
523
505
477
471
470
437
410
406
410
409
416
416
414
423
462
505
513
508
482
455
430
405
401
402
413
415
400
418
456
465
467
482
501
519
531
534
521
518
510
494
476
468
460
452
464
476
481
506
521
508
488
485
477
463
444
429
437
449
455
460
467
455
425
409
418
440
465
469
466
478
490
501
526
556
587
624
651
682
703
722
742
771
791
806
804
787
778
780
788
801
793
783
775
758
737
712
693
681
670
655
655
652
641
626
607
591
564
532
492
462
446
431
427
438
447
452
450
441
441
444
441
440
448
461
474
480
478
479
475
473
479
474
464
457
463
466
474
482
479
473
470
465
464
467
471
472
472
464
462
451
435
432
431
422
415
415
426
430
428
430
428
431
439
447
449
460
464
470
474
471
465
455
454
443
434
439
448
449
458
467
471
471
471
480
477
469
464
463
457
454
457
455
459
459
452
450
454
465
472
467
468
473
468
460
462
469
469
472
474
474
473
470
469
472
472
476
482
489
494
490
488
490
497
495
484
485
489
489
492
492
491
486
481
482
491
505
517
522
521
515
507
503
506
521
527
519
508
505
508
498
491
500
511
515
516
518
525
542
560
585
615
641
658
667
670
656
640
627
602
551
485
437
431
440
438
441
463
486
491
505
514
513
521
539
553
554
560
565
568
566
569
580
607
624
641
662
686
700
691
677
659
605
528
476
448
433
424
440
458
477
505
507
513
516
515
510
507
509
514
526
530
530
528
527
522
530
531
525
515
500
476
459
471
482
480
472
459
454
458
482
513
519
506
505
521
522
508
495
500
500
496
491
477
477
480
462
436
426
429
437
436
434
439
446
447
442
434
427
406
378
382
376
362
368
364
353
363
377
393
413
434
442
442
434
426
435
442
447
445
442
449
446
435
422
397
399
431
448
449
461
483
485
475
436
364
335
356
412
479
519
505
477
474
456
376
303
291
332
377
439
484
501
508
489
442
421
428
448
439
415
401
386
397
404
418
428
427
473
492
485
473
452
435
420
417
428
442
440
449
464
474
480
482
475
466
455
448
440
447
456
463
466
471
475
467
461
465
480
478
469
471
476
477
467
458
454
450
455
455
458
468
470
465
466
466
467
467
464
467
476
487
492
493
498
503
503
504
505
502
499
488
483
484
489
481
484
482
457
450
460
482
507
531
548
555
567
575
561
537
524
517
497
460
444
432
419
418
432
444
459
483
516
510
489
485
497
494
471
440
430
420
399
384
370
369
382
397
406
404
400
408
431
464
491
498
510
507
496
478
479
487
489
479
466
465
476
481
482
469
453
451
466
479
485
484
479
481
487
482
482
487
488
498
501
488
484
486
473
466
466
473
487
493
492
492
497
500
493
492
481
480
492
503
508
513
507
501
510
517
515
509
501
499
498
494
497
505
498
496
505
521
514
496
475
476
470
479
487
489
493
485
471
462
470
486
482
481
484
498
513
501
467
433
401
407
431
500
560
527
488
469
460
460
466
467
460
456
456
467
480
487
492
462
441
460
493
506
508
511
507
492
482
488
496
507
517
536
535
500
463
430
437
460
472
488
501
486
471
463
470
492
510
516
529
517
499
489
486
496
498
493
507
512
468
405
339
356
401
399
399
426
452
471
512
570
620
629
544
396
347
361
365
351
358
408
472
543
614
651
662
586
471
447
483
510
521
546
526
451
383
408
479
512
512
496
485
498
494
483
473
452
444
460
489
508
514
499
480
481
493
495
485
477
481
486
489
485
483
480
485
503
515
529
524
509
504
507
519
504
485
475
473
470
482
498
503
486
477
478
489
503
507
501
510
528
546
543
516
495
491
492
476
462
455
460
455
454
461
466
476
482
484
497
506
498
499
510
510
498
490
475
454
442
444
454
469
477
480
481
471
457
460
477
489
486
488
493
509
512
510
522
529
528
539
526
511
474
447
437
441
456
483
500
501
502
499
491
487
493
501
514
523
523
513
517
521
517
506
505
495
488
487
494
506
509
504
499
501
509
504
499
505
508
511
520
520
511
513
508
508
507
515
520
534
548
553
545
531
530
523
514
505
508
519
527
521
503
496
500
493
473
457
455
456
466
471
463
467
477
480
478
474
482
489
494
485
462
455
460
468
472
472
471
470
468
467
476
496
504
502
499
501
494
484
473
466
472
481
475
458
460
467
464
466
466
468
465
463
468
471
474
475
480
483
491
493
480
458
440
434
440
456
470
460
453
451
449
446
437
430
438
449
457
467
495
529
534
522
519
551
588
609
608
613
611
613
635
670
708
736
778
819
836
833
818
807
806
817
825
833
838
834
807
772
739
711
697
678
661
622
584
567
555
527
496
460
428
410
414
421
434
444
443
445
447
456
449
442
436
427
416
424
433
435
423
423
433
447
452
462
481
504
506
489
457
459
482
484
485
483
474
474
459
445
447
449
449
450
451
442
429
426
429
435
439
448
446
437
436
432
424
432
443
434
445
460
457
453
445
449
457
465
466
449
445
444
460
476
484
494
502
503
491
480
474
488
494
499
507
502
479
461
456
462
471
468
450
446
461
470
493
501
486
486
505
535
546
548
526
491
455
447
447
459
492
498
490
481
479
498
504
497
486
477
479
489
495
496
488
481
477
476
487
498
494
490
498
490
495
507
519
526
536
547
550
539
529
537
539
541
542
538
525
513
499
492
495
515
538
538
534
529
533
545
562
564
567
568
568
568
568
568
565
580
585
586
582
573
563
561
580
582
561
562
587
597
598
593
601
604
620
632
613
570
548
552
576
573
556
573
585
576
573
558
560
577
579
557
549
573
579
573
571
581
593
605
610
594
568
551
537
527
516
514
510
508
511
517
517
542
569
584
570
539
519
501
492
491
487
481
479
479
457
438
419
414
417
421
435
464
455
433
458
487
487
482
476
468
465
462
454
435
407
391
393
402
410
430
429
417
388
392
409
410
411
396
398
417
434
429
422
403
384
380
398
417
418
390
379
391
409
430
440
436
420
410
427
437
446
461
490
499
460
430
413
397
406
382
356
343
352
358
339
336
343
350
373
398
431
426
394
361
351
363
379
393
405
412
423
431
434
429
431
416
437
447
448
442
424
405
406
435
426
407
395
401
399
414
425
420
427
433
434
420
417
427
424
406
394
414
416
432
436
421
415
408
409
406
405
408
412
431
445
462
461
445
443
447
431
430
446
464
455
434
418
415
417
414
409
405
415
425
436
454
433
414
421
429
426
437
435
438
421
414
421
446
458
461
478
483
485
497
506
520
511
504
503
504
503
483
466
452
433
437
454
459
459
449
448
453
462
466
465
461
443
439
447
464
478
490
496
485
470
2
470
468
470
480
485
483
479
473
469
466
472
473
475
476
475
468
466
469
465
462
467
467
470
477
482
481
476
474
473
476
480
477
471
466
464
475
475
467
474
478
475
469
460
453
459
465
460
460
457
458
458
459
464
477
481
488
506
512
517
528
541
562
599
637
667
687
714
743
768
781
794
799
792
782
773
774
779
784
773
747
717
684
658
645
636
626
609
591
572
549
526
506
481
451
419
401
396
405
415
430
449
449
447
446
437
437
437
442
457
465
465
457
450
455
471
476
468
467
471
464
459
457
457
464
475
473
463
461
459
455
452
455
460
459
453
448
443
451
458
458
454
451
453
456
455
458
463
465
458
455
463
468
465
460
462
465
467
462
463
465
463
456
447
449
463
467
459
456
458
466
471
464
456
456
462
472
487
494
490
474
464
462
467
477
487
491
495
499
499
500
502
500
495
493
490
490
489
479
477
481
486
484
493
503
498
489
490
495
499
504
505
499
492
492
493
497
506
516
514
513
516
515
511
506
495
493
500
513
513
515
511
514
528
532
529
527
527
524
523
519
520
524
527
535
541
546
548
550
551
546
544
544
537
532
538
546
549
550
545
542
549
551
554
557
554
550
551
556
560
567
572
575
576
576
577
574
571
567
569
580
579
574
581
587
580
579
576
564
550
551
559
570
576
572
569
570
566
559
551
548
550
551
551
555
556
553
549
542
542
544
540
536
537
542
545
534
524
517
517
523
520
507
494
489
498
502
483
472
471
477
477
470
470
471
468
465
471
476
477
468
457
444
431
434
436
431
427
420
411
421
438
433
416
410
413
417
419
423
428
423
420
420
422
423
418
416
419
420
417
424
429
428
415
406
415
420
413
405
405
408
407
408
411
413
421
426
421
413
410
408
410
423
439
442
434
431
425
426
430
425
428
428
424
418
420
423
432
440
436
432
432
427
427
435
440
440
441
444
444
447
445
448
460
460
450
445
446
446
449
447
442
439
436
434
437
441
441
438
441
447
459
459
459
460
453
454
454
451
459
464
468
466
462
465
470
468
459
444
433
439
454
457
457
458
455
459
464
464
466
472
476
480
483
478
472
472
470
465
458
453
455
464
473
476
473
470
470
466
459
464
469
479
481
479
484
485
481
474
469
466
466
469
468
467
476
484
492
491
487
481
481
484
487
486
488
495
488
481
480
474
470
465
469
473
472
473
478
470
471
467
462
464
469
475
479
484
482
482
484
480
475
476
479
484
476
462
452
451
457
470
479
479
476
472
467
473
471
469
476
485
489
493
493
493
493
495
494
487
482
480
485
486
484
481
476
469
467
464
469
473
477
478
480
485
490
487
483
480
478
484
486
480
477
472
466
466
470
472
475
475
479
484
479
474
477
482
481
477
485
486
479
473
467
467
474
477
479
482
481
481
485
482
473
472
472
477
488
487
478
475
476
475
478
481
479
480
478
473
468
461
460
465
471
480
491
491
485
479
474
474
463
465
485
496
496
495
494
491
482
481
482
483
481
480
478
486
486
488
490
487
475
468
480
499
509
499
482
473
472
473
471
471
480
481
480
483
484
486
489
492
492
497
498
490
487
485
477
488
500
490
479
473
480
485
484
480
479
484
486
483
477
475
479
483
487
491
496
494
485
476
473
474
476
483
489
474
459
463
476
482
486
487
490
493
492
484
476
480
483
479
472
477
480
484
487
477
469
465
462
483
499
499
490
491
496
492
500
500
490
486
482
472
468
469
478
490
496
491
497
495
492
490
481
473
473
480
480
477
471
464
469
480
488
496
502
499
502
503
503
504
505
508
503
488
481
476
474
477
478
480
485
487
486
478
479
478
478
485
488
486
488
493
494
494
503
511
511
506
498
495
497
499
497
486
482
482
488
499
510
517
519
522
524
520
516
517
526
532
531
534
532
521
507
496
492
491
506
514
516
505
495
495
503
510
508
505
504
497
498
507
507
501
499
507
521
522
518
517
523
536
543
535
519
509
501
506
510
509
506
498
485
474
475
481
484
476
464
457
459
469
473
470
468
472
479
481
477
475
476
474
464
466
470
478
487
493
492
483
477
474
471
465
464
471
479
479
480
480
477
476
473
475
479
484
480
473
474
471
462
456
462
473
481
482
486
493
488
482
470
464
463
463
464
465
466
467
472
465
457
456
456
457
457
464
467
465
464
465
474
483
487
489
496
506
518
542
577
614
641
666
695
721
741
762
782
788
778
770
774
776
789
793
792
774
750
728
707
677
657
651
649
643
624
606
590
560
528
505
483
462
445
438
434
423
421
429
432
438
443
448
442
440
447
456
450
452
461
469
472
473
478
475
468
461
461
455
453
449
448
454
465
466
457
450
449
445
443
456
461
463
458
457
467
471
460
442
440
446
455
457
455
452
452
447
445
446
445
448
456
462
462
461
468
466
461
456
452
446
452
467
475
468
455
457
463
460
455
461
466
466
471
473
474
474
472
473
476
481
489
488
488
486
487
490
495
500
496
482
474
481
484
478
478
483
490
495
496
489
488
486
484
483
486
487
490
496
498
498
488
488
497
516
517
511
514
507
508
519
512
505
506
514
514
511
511
507
503
503
505
514
516
513
512
520
525
531
537
544
548
545
547
544
536
523
517
521
529
538
542
542
538
540
546
555
559
554
549
545
553
559
561
555
549
549
551
556
562
565
564
567
573
576
575
578
577
570
568
572
580
586
582
574
564
558
559
559
560
570
577
563
544
544
549
548
546
552
548
547
556
560
559
550
546
542
539
540
542
543
539
536
530
525
518
516
517
519
516
515
514
509
504
502
503
502
500
498
504
504
487
472
462
463
466
471
469
464
458
452
450
449
446
444
445
451
449
446
445
430
413
404
405
413
420
418
422
431
438
431
421
418
415
406
404
408
412
418
424
426
423
418
420
419
413
415
425
430
421
410
408
399
400
411
415
421
427
434
431
426
421
425
418
410
404
409
423
430
431
435
436
426
423
427
424
424
427
435
439
441
442
446
449
455
459
451
448
443
439
438
443
445
444
438
438
441
449
454
455
452
445
441
449
447
445
451
450
454
450
437
442
449
447
446
454
461
464
464
468
463
446
441
456
472
479
473
467
461
468
473
475
473
473
471
469
467
462
457
456
456
457
456
455
461
465
475
483
486
478
474
474
477
480
481
478
469
469
465
461
473
486
486
478
477
478
471
465
465
473
471
462
465
466
464
469
471
473
477
479
481
486
492
488
483
483
484
480
477
475
477
477
477
475
473
472
468
473
478
477
475
476
477
476
473
470
462
459
458
461
468
479
483
482
477
483
495
489
476
476
479
477
470
468
472
479
483
481
478
477
480
481
482
485
489
498
504
494
484
476
468
462
464
471
478
480
472
468
465
466
465
473
487
487
479
472
463
458
464
469
474
477
482
481
479
474
470
469
472
477
490
496
497
494
491
493
490
477
478
485
481
480
474
466
470
478
479
486
485
491
499
489
471
458
451
456
462
467
472
471
470
474
481
481
483
481
478
475
477
479
485
489
486
482
486
485
489
488
472
461
465
481
489
488
486
485
484
480
481
480
480
481
488
496
494
489
486
488
491
491
490
483
473
467
469
471
471
470
476
485
493
493
490
491
487
483
483
485
488
485
479
482
493
490
479
478
475
477
483
485
483
481
480
478
478
483
483
482
485
492
497
499
497
491
485
478
479
492
499
492
489
487
486
481
476
476
467
466
466
467
478
480
480
482
482
487
487
490
487
488
481
475
477
480
479
483
490
484
478
484
489
486
481
480
482
482
489
489
480
483
486
481
474
479
488
490
492
498
502
503
498
489
484
483
480
482
491
500
503
498
496
486
487
495
502
504
498
494
489
483
483
482
477
482
484
483
483
474
470
477
487
496
491
487
492
494
495
495
491
494
493
489
494
497
501
504
508
507
490
487
488
493
497
499
501
506
511
521
522
509
503
504
506
511
512
511
512
514
512
508
501
504
510
510
507
511
525
528
521
515
509
510
519
521
515
512
516
517
514
514
517
517
518
521
527
534
528
517
511
501
497
514
522
522
517
507
505
506
494
489
494
501
501
496
492
482
466
460
462
464
459
457
465
480
484
483
485
486
487
475
461
454
455
464
467
460
460
463
468
470
467
468
470
478
486
486
487
488
484
478
474
477
489
499
498
483
476
479
485
491
492
485
475
477
478
473
463
455
456
460
462
462
463
465
473
476
477
474
463
453
445
444
449
458
463
464
462
456
460
470
482
497
496
508
534
560
574
594
621
648
677
708
736
756
776
794
798
787
780
780
788
795
797
797
789
765
732
699
669
655
650
647
635
629
618
589
549
509
474
448
440
430
418
412
422
431
443
449
452
456
452
447
443
448
456
468
464
463
470
472
470
463
459
460
463
458
458
457
451
447
445
443
441
445
439
439
446
458
469
469
458
458
456
454
467
474
464
461
458
452
451
459
463
451
444
457
461
448
444
453
460
456
453
456
457
458
459
459
455
451
449
454
466
476
483
476
469
475
478
471
473
481
485
487
489
489
490
489
488
479
470
472
473
478
478
477
483
484
483
493
495
493
498
497
486
480
482
487
493
490
483
478
482
486
491
491
487
482
488
495
503
500
497
495
500
510
519
522
529
525
518
515
508
500
499
505
513
515
514
515
517
516
518
520
525
530
529
529
522
513
524
535
531
523
517
533
548
549
548
550
555
557
561
563
567
567
567
556
543
542
546
542
539
538
544
562
573
578
580
582
582
573
567
569
573
580
582
579
579
574
569
567
567
572
573
567
563
565
565
563
572
573
570
569
569
567
567
573
574
570
558
546
541
539
545
546
542
532
532
540
544
539
536
533
530
526
519
512
503
502
504
507
511
504
500
499
480
461
456
461
476
479
469
455
448
445
439
438
444
456
466
466
454
441
436
435
428
417
417
420
429
426
422
425
426
429
434
437
438
432
421
418
410
393
391
401
410
414
415
418
419
421
419
413
410
411
421
436
431
418
414
422
421
412
404
405
416
420
430
439
439
433
430
434
442
446
435
421
423
424
418
419
428
432
433
438
445
439
438
435
431
433
435
427
427
424
426
432
438
443
444
440
434
437
445
451
449
448
452
448
440
434
443
450
452
454
457
458
467
472
470
462
460
451
442
433
440
445
443
446
451
462
471
476
477
477
471
461
459
471
472
463
461
460
466
469
473
474
466
467
465
464
468
470
472
481
486
475
467
466
472
484
486
473
455
451
458
457
453
453
461
473
479
483
478
473
471
466
460
461
462
469
473
475
471
478
488
491
486
480
480
480
473
472
472
465
464
465
468
470
477
484
488
487
476
469
469
469
470
475
485
497
499
490
476
466
461
454
459
466
472
472
469
471
479
483
484
484
489
487
481
480
485
478
472
479
479
475
470
469
466
462
462
472
476
473
468
471
476
484
493
496
500
495
487
494
497
479
472
473
466
464
464
465
475
482
478
471
463
458
457
456
461
464
457
463
476
486
488
488
484
485
490
488
483
483
497
501
500
490
474
476
483
483
474
463
464
481
484
477
468
461
471
483
480
472
465
467
472
480
491
493
484
473
470
469
470
480
485
481
483
482
482
479
469
469
471
471
474
487
494
495
495
486
480
479
481
487
491
489
489
486
482
480
476
476
476
478
479
482
486
488
493
491
484
479
476
481
483
483
481
480
495
504
502
492
482
481
487
486
475
480
481
485
482
477
479
485
489
490
483
490
494
488
487
489
493
490
488
482
470
459
463
466
473
477
479
480
482
486
485
480
483
493
495
492
483
487
491
488
482
478
479
477
476
480
485
494
495
483
477
483
496
496
488
482
479
481
482
482
488
490
485
482
481
483
488
489
488
486
485
483
478
475
479
484
491
491
493
501
502
499
492
487
489
487
492
495
492
478
474
477
479
478
473
470
471
485
498
497
500
501
494
489
494
486
479
475
481
486
485
487
489
491
492
495
489
492
502
513
507
504
504
506
513
523
524
518
518
520
523
525
526
515
501
497
495
498
505
510
509
512
515
511
502
494
499
510
510
501
498
503
513
517
518
524
525
525
524
530
530
525
518
515
518
520
525
521
508
486
475
484
487
489
493
504
504
496
489
484
478
475
477
478
482
487
485
489
495
487
475
461
454
455
456
453
457
460
461
460
460
470
483
488
484
483
476
472
472
476
484
475
469
476
486
479
472
466
461
465
468
471
472
469
464
465
466
472
477
477
477
478
481
481
476
474
476
484
491
491
482
479
466
445
442
448
458
459
458
453
458
462
462
459
460
466
475
477
478
488
508
532
556
582
612
640
655
673
704
730
745
767
792
795
785
773
770
777
784
788
777
761
736
705
676
658
650
642
632
621
608
593
568
540
512
486
462
437
425
424
418
414
420
424
425
435
438
434
432
436
440
448
459
471
473
468
467
469
477
480
477
482
483
479
461
446
445
445
450
460
460
462
463
453
453
448
442
445
448
456
464
461
452
455
458
459
454
454
460
460
450
444
449
455
462
459
448
456
472
478
475
473
465
449
444
448
457
466
474
464
457
453
457
468
476
482
480
475
468
470
472
478
475
471
466
468
470
473
481
489
490
489
492
493
487
476
479
487
488
493
500
497
489
485
492
496
495
501
504
497
492
495
499
501
494
491
499
510
518
517
512
518
522
524
515
512
510
509
511
511
511
511
517
519
512
515
515
507
502
506
512
518
518
523
532
533
530
527
522
526
538
546
550
549
539
529
534
538
554
566
569
564
553
542
541
545
552
554
552
550
550
558
563
567
569
581
588
579
579
587
590
586
581
576
572
576
574
565
562
568
574
575
574
569
575
585
576
570
567
571
579
571
560
558
557
554
555
555
551
544
540
537
532
531
528
527
531
543
545
537
537
540
533
515
507
498
489
483
481
487
490
487
486
486
484
480
471
467
464
468
468
462
457
456
453
441
435
438
438
437
438
443
446
447
447
448
439
434
426
420
421
420
423
425
426
430
433
424
419
429
444
436
419
403
404
406
407
414
425
420
413
410
414
419
423
424
418
409
407
406
409
420
427
425
425
428
426
422
424
422
422
419
417
413
419
431
442
449
443
429
418
415
418
429
441
448
446
446
440
438
447
452
453
462
458
447
443
435
443
445
436
428
425
433
442
445
445
445
449
444
441
443
448
448
452
455
454
449
453
456
456
452
454
454
455
453
449
452
463
463
462
466
472
470
470
474
468
463
467
477
474
462
462
470
474
473
473
475
472
471
474
473
475
471
471
468
459
467
478
473
467
465
469
473
479
483
478
468
467
476
481
482
478
478
475
472
475
472
470
460
461
463
464
468
480
497
502
498
493
488
493
513
520
525
518
502
488
477
466
462
460
466
475
470
459
457
466
475
486
490
484
471
463
467
470
467
466
464
465
468
470
473
471
467
467
470
481
484
484
487
482
473
465
467
468
467
465
467
473
472
462
460
465
474
485
488
492
493
487
482
479
487
493
502
510
509
507
497
478
467
472
474
462
460
463
467
466
466
473
475
474
472
480
487
481
476
477
480
476
471
468
475
489
491
487
486
484
481
477
472
472
476
478
471
475
481
483
487
486
477
468
464
469
477
479
479
481
488
494
492
493
498
500
492
480
480
485
487
484
477
468
474
487
499
498
490
487
485
487
491
489
482
480
484
488
495
499
496
490
492
498
488
483
485
478
468
469
477
478
476
478
486
493
496
499
490
478
480
479
481
479
477
482
483
484
488
491
489
483
475
476
482
483
481
484
485
480
479
475
478
486
488
483
480
485
488
484
481
483
487
484
477
484
490
487
490
495
498
501
502
502
498
491
494
496
498
501
496
489
487
489
495
505
506
493
480
471
469
476
484
486
482
482
487
496
500
499
489
482
481
479
480
486
489
487
486
494
497
489
490
496
492
484
482
479
482
484
475
477
485
494
497
503
500
497
492
483
479
474
474
478
484
491
484
485
488
488
487
482
483
488
491
500
506
504
501
505
511
518
513
492
481
475
478
483
485
492
489
495
498
498
501
498
498
506
507
499
498
501
493
483
488
499
504
501
509
519
527
530
530
524
514
513
515
515
517
520
517
508
504
510
510
512
517
512
502
498
502
506
496
490
493
506
510
508
513
521
526
528
527
521
514
509
510
513
520
521
518
520
515
507
496
488
486
479
468
473
489
485
477
472
473
472
469
473
477
477
479
480
480
482
480
477
478
480
484
482
482
475
470
463
456
464
475
472
471
476
478
479
477
476
473
472
478
487
487
485
479
478
476
471
468
476
490
491
480
467
468
469
475
475
477
479
475
462
455
456
475
484
473
459
455
459
464
464
460
455
446
446
453
463
467
474
481
485
495
509
528
550
577
608
637
655
677
707
739
763
779
784
786
792
793
786
782
782
794
796
787
760
723
685
665
646
627
607
591
581
569
545
521
496
470
449
429
410
407
420
432
444
450
451
451
449
448
453
457
460
459
457
461
466
471
474
474
473
473
474
468
462
463
468
471
466
462
460
458
455
456
459
462
463
462
462
457
454
448
453
461
464
462
458
465
477
475
455
450
460
464
461
459
459
462
464
463
460
456
453
456
459
460
465
479
484
475
470
470
468
469
472
478
476
474
469
468
475
485
495
499
501
495
477
472
480
494
490
486
486
485
489
493
486
481
485
486
484
482
477
479
480
483
488
498
495
497
500
492
493
507
512
501
482
470
465
470
483
494
506
520
531
522
505
495
500
511
523
536
538
539
538
526
524
522
513
509
513
520
521
518
518
519
521
531
535
542
548
545
531
530
536
543
539
538
541
549
554
553
550
551
555
558
559
562
566
569
578
589
598
594
578
563
562
565
572
572
569
568
569
562
557
551
560
573
569
561
567
575
578
578
569
568
579
574
563
564
566
562
561
558
558
571
564
544
530
528
532
540
542
544
548
553
550
551
546
530
513
499
493
500
509
506
498
493
491
495
488
486
488
488
489
487
478
470
476
482
477
465
461
467
467
463
454
458
463
460
448
447
441
442
445
445
450
449
441
426
416
419
425
418
411
407
402
400
403
416
420
422
424
438
449
435
432
428
412
401
402
416
421
416
416
422
417
414
411
415
415
411
407
417
429
429
420
414
419
415
413
414
415
418
417
421
429
431
432
427
427
430
429
437
440
437
433
433
437
434
429
428
433
437
440
445
446
432
425
429
429
430
433
438
444
449
455
460
457
450
448
445
445
457
463
463
468
472
462
452
451
456
455
449
444
448
461
465
457
448
439
441
444
451
461
465
459
465
460
447
449
468
475
489
489
477
462
455
457
466
464
458
456
463
472
472
473
472
477
480
472
472
471
460
459
466
473
470
462
468
472
461
451
449
458
468
474
476
465
469
487
492
493
490
480
462
465
466
471
473
472
472
479
475
473
473
474
481
488
490
488
484
474
471
477
481
484
484
479
464
462
465
472
481
479
477
470
465
463
464
467
466
471
475
475
470
476
488
493
495
491
491
482
467
465
468
469
472
478
476
466
473
480
488
483
467
461
462
463
466
461
457
457
460
478
489
488
481
478
480
489
491
484
476
470
463
459
474
484
484
482
483
480
478
479
472
467
474
479
481
486
488
481
481
481
483
487
489
476
461
455
465
477
475
472
465
467
472
471
475
472
467
469
475
481
481
482
486
483
475
477
473
476
473
471
475
479
484
482
486
486
476
472
477
481
480
469
478
485
486
489
484
481
480
481
468
460
464
472
482
505
512
489
476
476
469
468
475
474
472
471
475
483
494
495
483
468
464
469
472
472
471
474
482
489
491
493
496
495
488
478
475
481
487
484
471
466
465
469
478
491
493
500
502
497
486
477
478
483
477
479
478
479
480
476
463
463
470
486
493
483
478
488
493
489
482
486
492
490
483
479
477
484
488
488
488
487
474
474
480
475
472
485
500
500
491
476
463
462
476
478
476
479
477
474
483
489
490
488
485
483
491
490
489
494
500
503
499
500
503
501
502
499
492
487
488
499
511
511
499
500
499
500
499
501
504
505
510
512
510
503
511
506
505
513
520
521
511
502
511
517
518
514
518
513
508
511
506
489
482
489
496
499
511
533
535
532
536
529
521
513
502
491
500
516
525
528
521
505
500
498
488
484
489
491
494
496
493
491
486
484
489
498
498
490
474
455
448
450
465
470
472
477
479
481
483
482
478
475
475
475
475
474
480
487
485
474
464
462
465
466
458
452
453
463
469
475
480
477
469
469
475
475
470
466
462
466
475
476
474
468
471
472
471
473
477
479
479
474
478
477
469
460
459
465
480
493
494
472
451
454
460
467
469
468
473
483
490
503
520
542
558
575
597
622
653
672
685
703
722
751
780
790
790
784
783
785
797
798
790
781
760
731
701
676
654
638
619
601
589
575
552
524
490
457
435
408
396
395
401
414
419
425
435
443
448
439
440
439
437
442
458
469
470
469
478
489
484
476
478
480
477
466
451
449
458
458
465
469
471
467
464
461
457
444
442
442
447
453
463
473
470
464
460
458
456
459
465
472
476
465
458
459
453
447
451
463
463
466
466
463
464
463
460
458
459
464
470
475
478
481
481
479
480
486
484
471
470
467
466
470
472
475
482
481
474
467
468
476
485
485
488
490
486
489
490
490
481
474
471
477
487
489
494
499
501
505
507
500
498
498
497
504
512
512
505
506
510
505
495
490
487
495
507
514
516
517
516
514
515
516
520
525
523
527
531
526
520
522
525
526
530
530
527
530
538
542
549
547
548
546
540
546
547
544
550
555
554
554
556
553
557
560
573
576
577
571
583
593
596
594
588
579
575
564
552
551
553
556
560
565
568
567
576
577
570
573
577
576
578
580
576
570
570
578
582
573
562
558
555
554
557
563
564
558
548
547
545
538
545
548
551
546
530
525
531
539
544
535
528
526
526
518
511
507
506
503
501
499
493
484
477
478
484
484
489
479
466
457
457
461
457
457
453
448
438
431
435
438
439
443
446
440
432
427
429
435
436
431
428
427
426
416
416
419
414
416
414
408
407
412
411
408
411
416
417
420
426
426
418
417
422
432
440
442
434
423
419
406
404
410
417
423
423
418
420
426
423
411
415
424
425
420
419
422
426
427
428
428
435
442
434
434
440
439
441
438
434
436
441
440
431
436
434
420
413
429
451
463
460
449
444
447
450
452
450
446
452
452
447
449
456
463
464
457
457
475
482
467
454
454
456
448
442
441
446
449
456
467
474
474
471
474
467
460
458
463
464
458
458
464
473
468
460
456
460
467
474
470
471
479
481
470
468
475
477
468
462
472
486
489
483
480
475
470
463
457
458
466
464
467
470
477
473
467
470
481
487
478
474
480
483
478
480
478
480
481
479
479
478
480
484
484
478
476
475
480
486
490
485
484
481
475
477
484
490
495
495
488
476
470
471
473
472
473
475
474
479
478
474
468
465
467
473
475
478
479
481
483
489
494
497
484
467
466
468
464
468
473
480
482
485
480
477
486
489
482
476
480
485
480
480
485
479
466
462
469
477
481
477
477
471
463
461
468
477
483
480
470
469
473
480
492
494
498
503
500
498
495
484
480
479
472
473
479
481
483
485
489
492
485
475
476
476
470
466
467
469
471
474
470
465
471
480
483
482
485
485
490
495
492
478
464
465
469
468
468
472
477
474
470
477
485
488
487
483
483
485
488
482
479
484
483
479
474
472
480
490
491
491
482
468
460
467
480
485
487
486
490
486
483
480
482
490
488
486
496
507
516
514
505
492
480
483
495
506
499
491
485
482
487
493
491
490
491
483
483
476
472
476
472
469
466
462
467
465
483
494
494
501
508
498
483
485
489
491
491
485
482
479
481
485
487
485
486
497
502
485
474
478
481
473
473
472
479
483
484
486
487
489
493
495
493
492
482
475
473
479
480
483
487
492
498
494
487
480
477
481
490
499
497
490
485
482
484
493
494
485
478
482
489
487
482
480
481
482
484
487
495
489
488
499
505
507
507
498
488
487
486
489
494
497
501
495
496
497
495
498
508
511
507
508
509
513
517
520
519
516
517
524
523
520
512
512
504
503
500
500
501
507
510
512
504
501
501
501
502
505
509
518
511
504
501
502
509
510
510
517
516
514
517
526
523
512
508
508
508
506
497
490
493
500
497
489
484
484
478
475
477
481
484
480
476
470
461
456
456
457
462
470
479
481
482
487
488
480
476
477
478
479
473
467
464
458
450
451
460
470
474
473
479
478
484
491
487
480
472
463
472
478
473
468
471
469
467
461
459
462
471
472
473
471
464
462
467
472
466
451
452
464
468
457
455
456
461
466
474
486
494
512
543
560
562
574
606
633
662
689
725
748
763
764
760
762
782
826
836
805
781
790
779
775
772
764
682
625
614
626
635
625
603
578
575
565
502
465
470
445
414
402
418
437
446
460
448
450
434
432
432
432
439
451
468
483
485
488
480
465
457
450
447
459
468
465
466
465
463
462
463
463
458
459
463
466
464
452
445
449
452
451
449
449
449
451
454
457
462
458
453
454
456
455
456
468
467
458
456
459
460
460
467
474
473
465
454
451
456
457
463
469
479
479
473
464
463
471
469
459
451
454
468
475
476
480
493
489
479
490
497
482
473
483
478
461
456
472
486
492
495
502
488
474
479
492
493
489
476
481
493
497
495
493
497
497
495
493
487
486
482
489
495
499
502
504
499
496
507
510
512
510
505
508
515
507
508
520
516
507
505
513
517
519
519
519
521
522
518
516
525
533
537
530
530
533
533
537
537
533
539
549
552
546
543
541
543
552
553
556
558
560
570
569
567
569
574
574
574
584
585
582
567
557
554
558
559
556
553
558
569
573
570
569
563
560
556
555
565
558
550
551
559
577
579
570
555
533
525
534
548
546
543
538
537
536
528
521
528
531
528
526
528
527
522
512
503
500
499
495
499
497
483
478
484
484
481
481
484
475
465
465
458
457
455
449
445
446
447
446
445
451
451
440
434
433
443
445
436
427
431
431
428
421
414
417
415
412
415
416
412
409
412
414
404
399
403
406
410
411
410
411
400
394
400
413
422
417
407
409
415
417
425
432
434
431
430
429
424
418
412
413
414
414
418
431
444
441
431
428
425
420
418
416
418
423
427
434
439
436
432
432
432
435
445
441
436
433
439
438
441
446
447
447
448
447
451
451
449
447
459
470
475
463
437
421
420
427
442
451
460
461
458
450
441
443
458
466
467
464
458
446
438
441
454
461
461
458
462
470
474
483
487
480
473
469
457
450
451
464
471
475
471
466
461
456
459
467
471
474
476
471
468
471
469
463
459
459
466
472
476
474
462
460
462
471
482
483
476
473
473
472
479
483
475
476
479
478
475
475
473
474
476
480
479
477
478
474
470
475
485
488
481
471
461
458
465
482
485
478
476
478
482
481
487
487
480
470
473
474
470
470
468
468
470
473
474
469
469
470
471
462
461
467
477
475
471
470
471
468
472
479
482
495
500
494
482
474
467
462
467
472
475
479
476
471
473
466
465
468
474
476
473
472
474
484
494
489
477
471
471
473
472
471
474
481
483
476
474
481
481
468
458
463
477
484
479
481
479
474
478
482
480
480
479
472
468
468
464
467
472
471
469
478
494
498
491
475
471
479
492
483
476
474
473
476
476
475
480
489
482
479
478
478
477
476
482
480
484
497
499
487
472
470
465
467
478
480
480
483
479
472
470
476
476
477
484
482
480
484
486
489
490
486
476
478
484
484
483
481
467
461
464
472
472
465
469
478
483
480
488
490
480
479
480
482
492
497
495
493
487
485
486
474
468
471
478
482
481
480
481
486
489
494
498
494
496
503
495
490
484
479
478
487
497
495
485
476
475
474
473
478
483
491
497
494
497
505
495
484
481
470
470
478
484
482
482
477
470
470
475
472
473
472
472
477
483
494
498
494
485
481
477
478
484
486
489
489
482
477
479
477
484
488
486
483
481
488
499
500
503
501
496
487
473
465
472
474
475
483
496
491
489
491
502
507
502
502
513
524
522
509
491
486
494
500
496
497
503
504
501
501
511
527
533
528
527
524
520
513
512
509
504
503
508
506
504
504
509
510
514
518
511
505
506
508
514
519
510
500
499
501
510
520
517
514
511
502
495
496
506
512
515
508
507
512
503
489
486
484
479
477
474
475
468
464
465
466
474
476
470
469
473
468
461
460
468
480
488
488
484
484
491
483
470
462
460
467
474
475
465
462
473
472
463
460
464
469
468
467
470
472
470
469
470
479
485
482
480
484
481
477
480
475
478
481
473
468
460
463
473
475
468
469
465
461
454
445
448
462
457
449
451
454
464
473
475
478
486
502
534
567
599
625
643
666
691
715
738
768
788
796
800
791
792
807
814
803
798
800
795
772
735
701
671
654
644
640
629
612
601
576
549
517
483
450
436
427
420
418
421
425
433
435
437
437
434
429
432
442
453
461
470
474
473
470
471
471
470
464
464
461
461
451
434
440
460
462
454
452
446
435
435
444
450
450
456
463
466
457
447
444
449
449
446
444
445
443
445
448
455
458
456
451
448
448
450
460
465
466
468
476
468
454
458
465
466
455
457
457
456
462
465
468
468
462
455
456
457
460
462
468
476
482
483
482
478
478
472
468
473
477
484
491
486
487
489
495
496
493
488
478
482
490
500
514
510
496
487
487
492
492
487
489
494
499
499
503
510
515
514
516
520
524
520
510
508
502
492
503
516
515
513
514
518
519
526
526
522
520
511
514
519
520
528
532
535
547
553
546
532
522
521
526
539
549
552
555
552
541
539
547
556
568
575
566
556
545
542
554
573
567
569
585
584
571
572
577
586
585
577
570
565
564
564
564
569
577
582
569
558
556
555
558
562
567
573
576
574
568
559
561
561
557
557
567
564
551
550
546
544
546
544
535
528
530
537
541
543
534
523
522
521
515
510
504
498
498
502
511
515
501
481
470
460
462
470
470
468
466
463
464
459
448
447
451
444
436
431
432
430
435
437
440
444
438
431
426
414
417
421
422
416
420
425
425
417
415
412
411
415
413
408
411
412
414
411
411
413
418
422
421
415
409
403
401
405
409
410
410
411
421
428
430
424
419
416
413
416
417
423
425
431
432
428
422
421
426
431
434
427
428
440
444
441
439
443
449
448
453
453
449
442
444
449
457
457
453
445
441
428
422
427
432
439
446
458
468
461
448
437
431
438
450
453
454
452
450
455
456
460
459
453
452
450
453
457
457
462
468
467
463
463
467
471
465
468
467
462
464
462
462
458
456
468
472
462
459
459
464
468
477
480
478
471
464
459
462
467
476
482
490
490
485
483
480
488
483
472
468
463
465
467
475
469
456
459
469
477
479
475
471
471
477
482
489
490
488
485
484
481
475
469
472
473
478
479
481
478
476
485
489
490
481
469
463
462
466
471
478
484
484
482
483
486
487
482
472
470
471
473
475
474
473
482
479
476
470
472
483
483
482
484
491
491
489
483
481
476
478
471
474
476
476
479
485
494
496
491
481
468
461
464
472
477
482
486
490
486
476
472
467
469
474
474
475
480
485
483
480
473
474
481
477
472
470
475
487
491
488
486
483
474
470
472
474
474
474
479
489
493
491
487
483
478
476
477
482
489
492
483
474
472
475
476
480
489
485
478
476
475
470
476
492
501
510
506
495
486
479
468
468
473
477
481
493
502
495
481
467
464
470
481
488
485
478
480
480
478
477
488
491
480
471
473
479
480
481
485
486
487
483
478
476
483
488
487
489
490
496
496
493
491
489
482
485
489
481
477
481
490
487
483
481
475
474
483
496
497
496
493
492
491
490
490
496
495
485
481
475
470
469
471
471
472
478
485
500
501
489
482
478
476
477
483
486
492
495
496
491
483
477
479
483
482
480
484
492
489
483
483
496
516
514
488
471
476
484
486
488
493
489
487
485
492
498
492
479
473
474
486
494
487
482
483
483
488
494
505
499
487
489
493
497
503
504
494
486
487
494
496
494
487
482
477
483
491
494
499
503
504
503
503
497
491
491
492
484
478
483
489
495
502
505
503
503
503
506
515
522
520
516
516
517
520
515
503
501
505
507
511
509
509
513
517
517
516
512
512
515
519
517
515
516
519
513
513
514
516
520
525
529
532
527
515
505
502
508
507
500
497
500
502
498
496
501
504
505
492
479
474
477
474
473
475
474
478
482
483
478
479
475
475
471
472
474
481
491
494
486
479
476
477
477
476
474
475
477
475
463
465
464
458
456
461
468
471
479
485
485
483
485
487
485
483
483
482
482
478
476
475
470
470
477
475
470
473
474
471
468
461
464
473
466
456
449
445
458
474
478
474
467
464
462
465
477
485
489
491
505
523
544
564
584
611
646
678
696
714
738
761
781
794
797
794
794
794
790
781
777
773
767
737
692
661
647
632
613
596
578
561
548
530
508
484
456
431
423
426
425
425
423
423
431
444
450
443
436
435
438
437
439
450
465
471
470
476
478
479
485
484
478
471
468
468
462
459
463
467
466
465
465
460
457
458
465
475
469
460
464
468
467
460
458
462
462
455
449
454
460
460
456
453
449
451
455
466
474
467
459
455
459
464
465
471
476
474
472
477
477
480
487
478
467
463
460
460
464
472
475
474
479
483
479
481
490
491
484
477
478
478
473
465
464
469
484
497
493
492
495
490
485
482
486
490
493
492
491
488
484
492
501
504
512
522
524
518
509
507
509
513
507
504
505
512
515
514
512
516
514
517
509
507
508
508
512
513
514
515
516
529
530
533
540
545
548
552
553
558
563
558
545
540
541
545
548
539
535
539
546
560
567
560
550
547
553
563
567
565
568
573
580
585
590
589
588
583
569
569
568
571
579
585
586
578
574
573
568
564
559
560
564
569
567
564
560
562
558
554
560
565
567
568
571
571
560
558
557
547
533
531
538
537
540
542
540
538
539
538
525
514
518
526
518
519
520
509
499
497
501
497
486
474
467
468
474
480
481
466
460
456
452
446
442
446
450
450
450
443
442
437
431
428
436
441
435
426
416
414
419
424
427
420
418
419
416
415
412
408
408
410
409
413
417
423
425
425
428
435
441
443
427
403
404
411
420
427
424
419
417
418
413
412
418
423
413
413
425
428
424
422
420
419
419
421
425
431
436
442
446
445
432
418
413
425
438
432
432
439
451
454
452
448
447
446
443
446
453
455
454
441
436
435
430
433
442
447
446
445
443
443
451
459
458
465
459
447
440
435
432
432
444
458
456
453
456
459
464
473
480
484
485
477
463
457
459
460
459
458
461
469
472
466
462
470
479
484
483
484
487
473
463
463
464
468
469
471
475
473
471
474
474
469
466
468
480
492
486
473
466
462
462
473
481
487
488
481
479
480
487
483
474
469
477
484
484
472
471
466
476
485
484
479
476
479
484
481
476
475
479
481
479
474
467
465
472
476
479
483
483
488
497
496
488
479
475
476
466
472
479
474
472
471
476
479
479
480
481
485
487
498
500
488
471
461
459
469
475
477
478
481
480
473
470
472
476
485
487
487
483
477
469
467
472
478
483
482
484
484
480
470
463
468
474
478
480
477
478
479
473
476
476
485
500
502
492
477
470
475
482
490
487
478
479
484
479
466
464
474
476
474
479
485
479
475
472
472
474
478
481
486
487
481
478
485
487
482
484
483
482
484
487
490
487
478
476
478
478
482
490
488
473
463
458
465
481
493
501
495
482
485
496
503
499
488
476
476
479
473
466
468
468
472
479
487
492
495
493
485
478
476
472
464
467
468
473
480
484
486
493
497
495
492
491
490
477
468
465
468
473
475
477
477
481
494
498
499
504
495
487
485
476
475
475
479
482
482
481
482
485
486
486
492
494
492
487
485
481
473
473
475
478
487
487
482
486
487
487
484
490
497
488
482
483
491
494
486
482
483
491
500
494
485
478
475
470
475
480
488
491
495
495
493
495
495
490
482
481
475
477
477
476
474
475
475
483
496
501
507
511
508
503
498
498
506
502
491
490
494
495
495
495
495
493
489
495
507
517
519
515
515
516
520
520
518
524
526
523
508
499
494
495
499
505
501
497
498
503
513
519
512
506
505
512
514
513
508
505
505
515
528
526
526
533
534
524
514
503
494
495
501
502
500
501
510
520
527
515
494
485
480
476
474
474
472
471
479
486
486
477
466
465
476
482
480
470
466
462
461
469
471
467
466
472
476
471
472
474
480
486
478
467
468
467
462
466
478
478
480
482
474
465
465
466
475
479
480
479
482
488
482
475
469
471
477
479
474
465
457
457
467
470
469
464
460
460
465
464
459
458
460
469
474
469
457
459
465
471
479
494
510
532
557
578
597
614
640
675
711
736
757
776
788
795
784
773
772
773
780
782
777
765
747
714
682
660
649
636
627
621
606
581
556
540
534
510
473
446
432
428
430
435
443
453
455
457
449
448
449
447
451
453
456
460
463
474
487
483
472
469
465
465
462
463
463
464
463
459
464
467
459
448
450
444
437
442
446
448
444
447
450
451
451
458
460
462
461
463
459
459
464
460
456
458
458
455
460
461
458
455
456
461
458
464
471
473
465
467
469
467
466
466
474
477
484
479
470
463
461
466
475
480
482
479
473
472
472
472
471
474
479
476
476
483
488
489
486
478
476
485
497
500
490
487
485
482
483
488
490
490
492
496
504
504
504
503
499
497
502
505
501
498
503
509
509
508
502
498
496
499
512
522
523
524
524
522
520
507
501
509
514
519
522
525
523
524
529
535
536
534
538
536
537
540
545
546
548
550
546
545
546
550
554
555
561
571
573
562
563
554
556
566
581
582
576
567
564
563
568
580
585
578
574
574
571
568
558
549
549
554
561
563
566
567
566
566
563
562
566
573
571
565
560
556
552
550
546
544
544
547
541
538
540
542
541
542
541
542
546
552
549
544
532
515
499
496
502
505
499
497
492
486
487
488
488
485
480
477
477
478
470
468
469
461
458
459
454
443
439
440
437
436
445
448
443
438
433
430
423
417
409
408
414
419
420
421
421
424
430
429
421
411
408
408
411
412
413
411
415
418
421
422
419
419
419
420
424
423
414
408
411
412
409
408
416
427
438
445
435
425
420
419
414
416
423
428
431
435
438
443
445
437
431
430
434
431
425
431
434
438
441
432
426
426
433
442
447
451
443
439
438
436
440
445
450
452
455
463
462
456
459
458
451
447
453
459
451
450
448
447
458
467
464
457
457
459
458
455
461
462
468
468
468
468
476
476
468
467
466
467
461
462
466
470
464
457
461
466
472
470
464
467
475
478
478
480
479
472
468
467
467
466
468
473
476
476
467
467
469
471
473
474
477
479
476
469
468
471
471
474
479
476
470
478
487
484
472
462
461
468
474
478
482
479
472
470
479
474
465
467
476
483
481
477
478
479
477
481
484
480
473
469
466
470
479
478
472
471
484
488
486
484
477
476
478
479
473
475
477
480
481
482
478
481
481
479
484
483
475
475
474
476
479
482
483
487
498
502
495
499
498
489
474
468
468
473
478
476
477
486
487
485
486
487
485
480
473
478
482
484
480
467
466
470
466
475
489
491
491
495
495
485
471
463
460
463
464
466
466
467
466
469
477
482
474
470
475
481
483
481
483
488
485
477
480
479
479
481
481
481
479
481
477
475
472
474
480
493
500
497
488
488
489
483
476
481
480
485
487
479
466
461
463
464
476
486
491
500
503
499
489
481
485
486
488
488
478
470
475
480
479
477
476
479
485
489
482
482
487
483
474
476
487
486
485
482
484
484
479
481
492
491
479
479
481
476
472
476
477
478
477
480
482
486
489
493
498
498
491
483
480
484
491
497
490
477
475
478
486
487
487
486
485
491
501
507
496
481
475
488
492
486
481
477
475
477
478
484
487
481
476
476
481
481
484
486
483
482
487
485
479
477
479
480
484
487
490
490
482
481
483
482
483
481
480
485
493
501
501
496
490
477
473
475
480
493
506
506
501
492
492
495
499
493
488
486
483
481
486
490
489
491
497
493
495
501
497
502
494
491
493
505
511
509
512
519
521
520
522
527
520
504
498
505
518
528
526
519
515
515
515
514
507
501
504
507
508
506
517
518
513
501
494
496
506
512
515
520
528
533
530
524
519
512
510
512
514
510
504
504
504
495
480
472
476
472
472
480
478
481
482
473
464
459
462
464
461
463
467
461
458
465
468
471
476
476
473
471
473
469
464
462
459
465
480
488
481
475
476
473
476
479
478
476
469
467
465
465
468
475
481
480
477
477
474
474
475
474
471
469
474
472
464
467
475
472
464
455
450
458
459
460
451
444
446
461
470
462
457
473
493
512
526
531
542
558
583
619
654
679
696
725
758
778
789
781
773
765
766
779
793
797
795
783
770
747
719
687
666
655
647
640
631
624
612
580
544
501
464
435
415
401
400
411
426
431
437
445
451
454
453
455
453
462
474
472
462
458
458
459
466
476
475
461
452
455
462
463
459
456
455
455
453
447
445
447
448
453
461
456
448
444
445
454
463
459
456
465
459
451
444
437
433
434
440
453
458
457
461
460
450
447
452
457
454
449
453
455
459
466
475
479
481
484
478
475
480
479
479
483
485
485
481
470
464
466
470
471
470
477
489
493
490
491
489
483
480
479
485
485
475
473
478
487
494
502
507
503
497
488
490
505
511
503
495
500
503
497
497
494
496
495
491
491
494
492
502
513
519
519
513
508
505
503
499
502
509
511
516
522
522
526
532
530
537
534
527
529
535
534
534
535
530
528
536
544
545
546
543
539
541
544
549
549
548
549
550
559
566
565
562
562
562
553
556
565
572
577
574
572
575
579
582
578
579
581
586
592
598
600
590
572
566
560
562
561
553
554
556
566
570
571
573
573
568
557
548
551
554
547
546
549
561
563
555
545
540
537
543
539
529
522
524
524
519
520
523
518
511
507
507
504
494
486
483
485
480
477
478
477
475
476
474
474
472
473
468
458
453
446
438
432
428
427
426
429
426
421
424
430
435
435
434
430
428
437
440
426
409
410
417
425
424
423
421
416
411
408
415
413
408
416
418
416
411
409
413
411
404
402
399
406
411
415
412
415
422
434
435
424
424
425
427
429
420
414
422
425
426
418
410
417
421
429
430
425
427
426
430
435
438
440
449
447
439
436
438
441
446
443
438
429
428
431
433
442
444
447
452
454
456
458
455
460
453
444
447
449
447
447
456
459
455
450
452
455
456
460
461
461
457
461
464
456
457
464
475
477
467
463
467
472
474
471
463
458
450
443
441
449
456
461
465
470
474
469
471
473
470
468
475
479
478
479
484
485
477
472
466
462
465
464
473
473
470
470
471
477
480
482
484
482
480
475
474
465
469
472
466
465
464
465
463
461
461
470
483
498
509
501
488
471
465
473
479
480
482
482
472
472
470
466
465
467
473
484
484
479
472
466
460
459
471
482
483
482
474
476
483
487
491
490
490
489
486
472
456
460
466
471
475
482
484
485
478
472
471
477
486
490
486
487
479
469
470
471
473
475
486
488
479
472
478
481
478
475
476
479
480
479
477
475
469
466
466
470
468
472
480
484
484
478
473
472
473
479
480
478
476
477
484
490
479
463
463
467
468
471
479
487
492
491
492
491
486
478
470
465
468
470
472
476
490
495
490
480
472
476
475
474
477
482
486
482
473
471
483
487
487
480
468
465
463
464
469
475
482
489
494
496
488
483
479
480
477
478
483
485
485
483
482
485
490
490
484
476
478
477
471
464
465
472
481
489
494
499
489
481
476
476
480
484
487
483
477
483
490
498
505
508
501
490
476
471
470
465
469
474
478
479
478
476
479
489
493
495
497
498
496
484
474
476
483
495
506
507
495
485
472
468
470
485
489
480
477
475
475
483
488
490
492
496
497
490
481
474
475
477
487
489
489
487
482
484
489
490
480
475
480
481
491
497
502
506
504
503
498
492
484
482
475
468
466
473
480
484
481
481
490
494
489
483
485
485
486
484
485
503
513
500
484
491
497
498
498
494
491
484
489
490
486
477
472
477
493
499
499
494
491
482
475
481
489
493
500
506
512
512
507
500
497
493
495
494
491
490
492
501
499
496
498
503
503
501
506
515
520
515
514
521
527
520
516
516
517
516
519
525
523
522
515
499
500
503
502
501
506
511
522
524
523
510
507
511
517
519
512
510
507
507
508
511
511
512
519
523
520
520
521
523
519
519
508
491
484
480
473
469
471
478
482
480
480
476
473
474
478
475
466
463
463
473
485
488
485
477
475
475
477
479
479
478
480
476
473
475
479
484
482
478
476
474
476
474
467
464
468
472
473
475
479
480
478
476
486
489
484
480
479
480
476
467
465
473
476
477
479
481
471
460
461
464
465
463
467
473
475
474
471
465
466
461
458
465
469
472
477
482
483
501
530
547
566
590
621
651
678
703
732
757
789
809
814
802
799
802
806
805
810
801
782
759
734
699
671
664
665
656
631
608
586
566
551
533
508
477
451
429
413
406
405
410
421
430
439
442
451
452
451
452
449
445
448
447
450
457
468
475
471
464
460
464
469
474
471
465
457
453
461
464
466
468
467
455
444
448
449
445
445
446
445
450
456
463
465
462
460
457
451
451
463
475
474
465
460
458
459
456
451
446
443
445
446
457
467
470
464
470
477
477
473
466
462
457
458
464
474
476
473
470
467
465
469
477
481
482
488
494
494
490
486
487
487
494
501
494
482
476
471
476
486
491
486
483
483
487
493
498
495
492
489
493
495
491
496
507
514
510
503
503
502
496
492
503
509
511
517
521
527
523
517
519
522
526
531
527
523
524
520
520
519
517
523
524
518
518
521
530
538
543
542
551
560
556
547
541
541
544
541
541
548
558
557
551
553
568
575
580
585
580
571
565
568
570
573
568
565
565
567
565
561
567
579
582
579
571
571
575
571
575
571
568
566
561
559
566
568
563
554
554
561
572
577
568
562
557
561
570
572
561
551
550
549
546
537
525
524
521
520
518
513
508
506
506
507
508
501
499
496
493
489
490
487
484
483
480
483
489
485
472
456
443
439
444
452
451
451
446
446
438
434
439
449
452
446
439
436
429
421
421
420
418
420
420
417
417
419
420
423
426
423
421
420
419
420
419
423
420
416
414
413
414
418
421
423
417
410
408
407
411
409
407
407
416
423
419
418
425
429
430
422
421
427
431
436
444
443
437
438
437
428
427
434
446
450
442
432
432
432
434
434
431
437
444
446
447
451
451
447
441
438
440
447
450
457
456
453
455
460
458
448
446
449
452
455
464
466
458
445
433
439
453
462
466
466
462
462
464
463
463
471
476
476
471
471
479
479
473
459
453
454
457
463
467
469
472
475
468
466
467
469
473
478
484
478
460
456
460
468
482
484
479
478
477
484
493
494
486
483
479
474
471
472
478
485
473
463
469
475
476
473
474
472
476
483
484
488
488
484
486
486
479
469
465
471
473
476
479
477
473
473
474
477
477
476
476
472
469
476
480
480
476
473
474
473
481
494
500
490
480
481
484
479
467
470
472
479
484
483
479
486
487
492
498
496
491
491
488
478
474
476
480
476
463
461
467
473
472
472
469
474
475
487
488
480
485
489
480
473
473
471
473
479
479
485
494
496
490
476
474
480
481
472
470
472
476
475
478
481
484
484
480
477
479
481
485
485
474
469
472
474
476
475
478
478
479
484
485
482
477
478
486
494
490
475
466
465
471
479
485
485
490
492
484
480
474
472
480
486
486
485
482
481
479
483
483
481
484
480
476
473
467
467
471
476
473
481
489
497
501
499
491
480
487
500
505
501
485
468
458
466
486
502
493
485
480
474
476
483
480
476
473
471
475
476
483
491
478
472
477
483
493
497
495
485
482
485
493
492
488
489
490
486
478
476
478
480
478
477
475
480
484
476
475
480
486
482
484
486
484
482
481
489
495
492
489
489
486
490
492
491
496
496
491
484
480
485
485
484
484
485
484
490
496
498
493
483
483
475
470
470
476
475
472
476
483
484
479
477
476
482
490
490
487
483
479
484
490
492
495
492
481
480
482
486
493
494
483
480
487
495
494
488
479
477
482
488
489
489
490
487
483
477
485
494
495
497
495
495
489
489
495
505
512
512
510
513
512
506
501
505
511
511
514
511
508
502
498
505
509
512
515
509
504
504
507
506
500
495
494
496
502
517
531
519
507
500
498
497
501
508
510
501
497
502
512
522
523
521
519
521
518
515
510
506
503
503
504
505
507
506
500
492
485
480
482
475
477
478
478
480
479
473
471
465
461
457
462
467
470
476
479
473
470
464
464
468
472
471
467
469
470
475
474
471
473
472
471
482
488
483
483
487
488
487
476
474
480
483
481
469
466
467
474
478
473
458
455
465
473
468
466
468
466
458
456
453
459
467
471
469
465
466
462
454
452
460
463
460
464
468
464
459
471
497
502
505
514
527
548
572
603
624
642
663
688
727
751
764
777
788
787
781
776
777
782
785
780
772
754
724
694
674
657
637
621
610
599
582
564
542
512
474
444
419
410
404
403
406
410
416
426
440
456
464
462
456
455
462
467
458
456
467
470
466
452
452
464
467
463
463
469
465
457
445
436
436
446
459
465
464
456
454
454
458
460
455
445
442
441
443
448
451
447
445
450
455
454
450
454
462
469
470
472
464
459
459
461
460
455
458
460
461
464
467
472
471
462
464
467
467
468
470
467
470
472
472
475
484
496
497
493
484
480
483
483
485
484
477
475
477
481
483
478
477
480
480
485
485
483
483
486
496
497
492
488
493
497
501
501
505
509
516
510
504
498
492
496
502
506
510
511
514
522
522
515
510
509
513
517
519
528
527
523
518
520
523
530
533
537
536
525
515
519
525
531
534
538
540
541
537
536
539
542
542
541
542
542
539
550
565
572
567
555
559
569
561
559
568
564
562
569
575
583
580
568
567
573
576
574
572
573
576
585
591
587
583
580
575
574
575
562
554
552
550
553
561
563
562
561
559
555
552
549
552
554
549
542
542
545
550
543
535
529
530
530
526
524
527
527
522
507
503
495
496
499
505
502
489
479
478
472
466
473
480
474
464
466
462
455
450
453
462
466
455
443
443
447
439
426
420
415
419
422
419
414
416
421
418
413
414
413
413
415
413
403
403
407
413
417
416
410
403
403
408
414
414
416
419
424
422
419
416
407
405
410
416
419
422
430
430
424
418
418
421
417
414
417
421
421
425
426
424
429
431
423
421
419
418
419
429
438
440
433
431
438
441
438
430
427
426
435
439
443
442
445
446
449
454
452
446
447
442
432
435
444
448
449
450
447
443
445
449
456
460
455
451
450
446
444
445
446
446
448
450
454
458
460
457
454
456
459
460
457
459
462
462
461
464
465
467
467
462
462
464
464
465
473
475
480
476
470
472
478
479
475
476
479
476
470
478
477
473
476
475
476
476
472
466
467
478
473
470
481
484
470
458
455
458
463
468
472
474
471
469
475
477
479
482
481
479
471
463
467
478
483
484
484
487
489
484
477
473
472
475
481
490
491
487
486
481
477
474
467
464
466
477
483
482
474
470
477
472
468
468
472
476
474
466
469
472
472
478
482
479
479
474
473
470
467
474
480
477
480
478
476
472
470
473
480
484
482
484
493
488
486
484
482
479
474
469
466
464
463
465
472
474
468
466
470
478
480
482
474
469
476
482
484
491
485
479
481
482
483
486
488
475
474
473
474
478
478
470
472
467
466
471
475
471
468
464
462
466
469
480
486
492
487
483
484
493
493
486
481
484
484
482
484
492
483
473
476
476
474
474
471
466
468
470
473
475
477
474
467
465
465
471
474
480
488
492
490
481
472
470
480
484
487
485
489
497
508
510
502
496
489
486
485
480
473
470
472
476
476
478
486
490
489
485
485
482
482
485
489
492
492
484
484
485
492
495
483
474
471
475
477
484
483
484
487
482
480
482
484
482
480
483
489
483
477
474
478
486
497
501
491
488
487
483
478
476
473
470
468
463
469
483
483
468
471
487
494
492
491
493
485
483
479
479
480
482
481
481
486
492
491
490
495
484
477
481
489
489
487
479
476
482
486
485
479
481
492
489
486
481
483
487
489
491
490
488
489
484
479
484
486
488
485
483
487
490
495
496
497
497
496
483
472
470
473
475
478
484
482
481
484
487
490
492
492
494
494
486
480
476
481
490
489
485
483
487
494
494
496
499
497
497
498
495
502
506
510
516
521
520
510
506
511
519
525
527
520
509
502
510
516
518
516
520
517
509
498
490
495
505
514
517
516
516
511
505
497
505
516
524
522
517
513
505
497
496
498
499
497
495
496
502
499
491
484
487
481
469
460
466
479
486
486
479
467
458
464
473
472
471
472
466
469
479
486
479
470
471
475
473
464
459
465
472
479
482
478
475
469
467
473
476
475
471
471
474
469
464
465
468
479
493
485
472
463
460
464
468
468
463
464
462
457
458
465
470
473
469
465
467
473
469
463
458
458
463
459
460
460
461
462
459
451
447
450
455
468
479
481
483
487
501
528
557
578
603
627
652
682
704
723
743
768
785
788
784
785
786
792
798
803
801
785
759
726
696
671
664
664
659
648
628
611
592
568
545
522
490
461
433
417
410
410
419
436
445
447
443
435
436
443
445
444
446
449
457
467
476
480
477
472
472
475
467
456
451
446
445
448
446
445
448
452
452
449
448
446
446
444
437
432
433
443
458
468
459
452
444
439
444
446
446
445
447
449
449
453
455
454
449
449
453
447
442
447
455
460
463
466
469
468
465
458
456
455
457
466
473
474
470
465
465
470
480
484
483
476
471
479
484
483
486
484
479
482
477
469
466
471
478
479
479
479
479
487
491
491
495
496
490
488
487
490
496
502
507
507
497
494
498
499
501
499
505
512
507
502
505
499
495
499
504
506
501
500
504
502
504
508
515
520
529
536
542
540
532
529
529
529
525
516
516
525
535
531
531
534
540
542
539
537
540
547
554
555
557
559
556
557
561
564
565
556
546
553
568
579
573
562
562
564
566
562
561
565
569
574
576
582
584
585
583
578
571
569
570
572
572
559
553
559
568
570
563
559
554
553
558
562
563
554
543
542
536
539
544
541
532
526
525
524
526
526
528
527
527
529
526
521
517
514
503
490
482
479
473
470
466
465
468
467
463
462
462
465
460
452
445
447
451
453
453
452
448
448
441
430
421
423
421
427
431
425
410
404
408
416
420
417
410
413
414
401
399
406
416
418
416
414
418
417
419
415
407
407
410
410
408
411
419
411
405
414
425
426
429
420
409
404
414
414
406
408
419
426
430
431
426
423
422
425
423
425
428
431
428
421
414
410
413
419
432
442
440
432
429
433
438
439
439
444
450
445
443
450
459
472
466
450
440
438
443
458
462
457
452
451
446
442
448
456
456
452
453
460
459
455
464
472
470
465
459
453
456
460
463
460
461
461
461
463
451
446
449
454
461
468
466
459
462
463
463
460
452
451
460
469
472
470
469
471
470
463
460
461
463
470
482
487
479
479
474
476
484
491
486
479
473
472
470
472
476
473
473
479
480
478
477
477
471
469
480
489
498
497
488
477
461
460
468
470
465
458
454
454
448
450
470
482
476
476
481
487
493
496
492
492
483
477
473
472
476
465
455
452
449
455
465
476
483
474
467
465
467
461
464
473
469
459
462
482
494
492
488
481
475
467
474
487
481
467
468
472
472
480
490
489
487
488
490
489
494
497
489
483
483
472
468
469
476
478
475
475
478
479
469
465
472
484
485
478
478
483
485
477
467
470
469
464
455
455
458
469
482
482
478
479
478
474
471
476
485
486
480
471
465
471
480
485
488
486
479
467
459
457
468
485
485
485
492
495
492
486
484
479
475
473
474
477
476
477
474
477
489
500
493
487
488
479
473
475
481
488
496
490
479
477
486
491
492
488
472
463
460
459
460
465
470
473
480
490
500
499
488
483
487
488
481
474
468
469
481
490
493
494
488
479
470
468
472
475
475
479
485
490
488
475
461
463
466
470
478
490
492
490
485
486
478
471
471
473
479
486
483
479
484
481
481
493
489
477
469
472
479
481
479
484
496
509
505
490
474
472
475
482
493
498
488
483
478
473
468
469
477
489
495
500
496
483
474
476
483
496
500
504
507
494
479
483
489
488
486
486
486
490
495
502
506
507
504
495
489
490
487
485
484
490
490
492
490
489
487
481
477
478
479
480
480
481
488
497
495
492
489
491
487
493
502
505
497
492
491
491
491
492
481
483
505
512
503
499
491
485
490
494
500
501
504
498
491
489
496
503
508
514
510
509
514
523
519
506
489
484
488
498
504
508
509
509
509
511
515
516
515
517
514
504
492
492
509
518
521
520
514
510
510
519
520
521
520
516
516
518
511
499
495
496
492
487
486
488
496
508
516
511
506
499
490
480
474
473
483
490
480
463
452
454
461
461
463
468
470
475
483
489
481
476
470
464
461
469
475
475
482
482
473
458
454
462
479
489
491
484
477
474
473
466
464
468
474
465
456
457
468
473
477
476
479
484
488
486
475
469
465
464
471
473
469
470
475
474
466
466
471
468
473
475
479
485
491
485
466
450
450
471
488
491
497
509
528
545
567
599
627
655
678
701
729
750
767
782
789
791
787
788
790
789
796
795
783
763
734
706
677
653
635
627
620
614
602
583
557
520
486
451
431
425
422
421
420
424
425
433
446
450
453
459
457
450
451
461
466
467
471
481
489
490
482
475
476
473
470
467
463
457
461
463
465
467
466
459
455
458
461
459
460
465
469
469
464
461
455
450
457
469
464
453
446
448
449
456
459
457
454
452
445
445
461
473
471
468
470
480
478
470
466
474
480
474
467
465
462
458
459
462
463
469
476
475
472
475
484
488
476
463
460
463
474
485
488
480
475
479
487
490
487
489
499
494
488
487
486
488
487
479
481
490
499
503
504
502
491
487
490
499
501
503
504
499
488
487
496
497
497
503
508
515
521
527
532
529
530
527
531
535
532
525
521
525
526
530
527
518
514
518
527
535
542
547
551
555
555
555
557
556
553
548
544
541
546
553
562
558
558
555
558
553
555
564
572
569
569
577
592
593
578
573
571
569
565
573
583
589
585
578
570
563
565
563
559
566
570
570
567
560
558
556
560
569
564
552
546
544
542
542
541
546
551
556
557
556
546
540
535
535
533
535
540
531
521
516
512
509
506
504
501
502
500
503
504
499
493
485
476
470
467
466
467
465
463
458
451
450
445
439
439
438
431
433
441
455
463
454
445
448
439
437
433
429
422
417
415
413
411
420
434
439
446
453
439
412
396
392
391
388
393
403
411
416
415
409
407
409
409
414
421
421
417
426
425
424
425
429
429
427
429
430
427
417
412
413
413
411
409
409
412
418
422
426
434
444
437
423
416
423
428
429
432
438
444
440
438
445
450
447
445
448
452
455
452
450
450
446
447
448
455
466
474
477
470
454
442
437
447
459
457
448
438
437
437
437
436
439
447
455
461
468
475
480
476
472
469
473
479
479
475
469
466
467
468
466
468
466
456
457
467
473
467
462
460
457
462
467
475
480
483
487
485
479
476
473
464
453
453
457
459
467
473
462
458
460
472
483
490
495
492
483
473
467
463
471
486
490
484
475
481
484
480
474
473
473
475
473
464
461
464
467
471
480
483
490
495
487
475
465
471
473
478
482
475
467
471
477
483
492
493
491
494
495
491
483
476
468
466
468
468
472
483
490
489
491
478
466
462
465
470
475
479
488
494
494
490
485
476
469
471
472
469
469
477
485
479
469
474
482
486
480
473
474
472
478
488
486
481
480
476
473
475
475
468
463
466
466
462
467
468
466
470
470
476
481
481
485
485
489
492
490
491
481
476
481
485
490
497
495
479
463
456
455
463
478
484
483
477
472
474
478
482
490
498
491
484
484
484
486
485
479
476
477
473
478
473
471
474
480
480
479
484
489
489
488
490
496
489
474
473
477
474
472
479
491
495
495
489
489
486
482
485
488
485
481
477
475
472
472
472
469
468
474
475
480
485
476
472
481
484
483
485
481
482
483
491
490
488
485
482
481
476
474
476
477
481
487
495
500
497
492
487
490
486
480
485
488
484
483
487
483
476
473
477
482
490
492
497
496
503
501
483
479
483
483
485
484
481
486
486
479
475
480
487
491
489
487
489
492
485
481
482
479
480
482
495
496
486
473
473
483
491
499
500
499
492
488
498
504
494
478
473
478
479
482
486
492
489
480
483
493
496
488
488
495
499
500
497
493
488
487
495
496
495
499
502
509
506
496
500
512
517
508
503
502
505
513
517
510
511
514
514
517
519
521
522
532
528
515
514
512
514
518
522
516
506
498
497
498
502
505
506
504
509
512
509
505
511
514
514
506
506
510
520
522
513
504
505
510
509
502
494
490
489
489
489
484
482
487
487
483
481
476
473
475
478
481
484
484
481
471
467
465
467
474
477
474
470
468
469
481
484
470
456
458
471
476
476
478
485
491
485
477
471
473
469
477
482
482
483
474
476
482
480
471
463
465
465
467
465
464
463
461
461
468
467
469
475
480
480
474
467
461
458
453
459
469
475
476
464
453
458
469
478
482
486
490
497
507
520
535
559
583
611
638
668
701
726
741
764
786
801
799
781
776
784
787
786
778
771
751
728
697
667
650
639
633
614
588
564
541
528
509
477
447
424
408
400
401
407
411
425
441
457
463
450
443
439
448
449
446
453
456
464
470
474
482
487
480
464
456
457
466
466
459
462
463
456
453
450
448
451
458
458
448
446
449
464
465
458
453
453
448
448
449
455
459
459
462
454
453
458
445
444
446
451
451
449
453
459
463
470
470
473
475
471
462
458
456
460
463
458
454
464
470
480
490
491
497
500
482
480
478
480
478
480
488
492
486
482
489
503
514
506
485
473
471
472
468
471
479
483
482
482
494
502
502
502
499
496
499
499
499
493
494
495
495
503
510
513
511
509
508
504
504
506
511
512
514
517
523
520
516
515
516
521
522
525
524
523
521
525
531
534
534
531
529
526
527
530
533
531
534
542
554
557
552
552
558
567
568
566
562
560
564
567
574
578
570
559
560
561
556
553
558
558
563
568
569
565
566
568
574
585
588
583
579
578
573
574
585
600
596
575
566
560
560
558
557
555
551
559
564
570
566
562
555
547
542
539
538
543
553
556
549
538
526
524
523
523
522
523
520
511
499
492
491
490
486
490
483
473
466
466
472
478
475
475
467
455
450
444
441
446
453
454
447
442
448
456
448
422
413
406
412
412
406
406
411
417
422
427
434
436
423
413
410
408
406
405
405
407
402
395
396
403
406
410
423
428
421
416
411
408
415
422
430
425
419
416
417
410
398
395
404
421
440
449
445
426
414
411
414
418
426
431
429
423
420
420
426
427
425
422
432
434
433
424
421
426
429
432
435
445
453
453
450
446
450
454
457
450
439
433
435
441
443
441
440
438
436
436
442
448
449
458
460
461
453
442
443
444
457
457
450
452
461
467
461
450
449
449
449
455
462
469
462
451
448
451
456
456
461
477
483
487
480
468
466
471
470
465
463
463
468
473
474
479
483
484
487
478
480
474
470
467
470
478
488
485
481
465
459
456
459
472
478
475
473
475
480
487
493
488
476
474
478
478
474
477
482
484
477
467
459
461
461
458
459
466
475
477
489
490
482
471
468
473
473
477
479
481
481
479
476
478
478
474
475
485
488
480
475
476
470
470
480
489
478
468
464
469
471
469
469
471
473
471
467
461
471
484
490
483
483
485
491
490
488
490
490
483
478
477
477
471
469
470
477
482
486
484
478
473
465
464
466
468
468
463
464
484
486
473
465
475
487
491
494
493
492
487
476
472
476
474
468
464
467
474
475
472
472
473
471
468
468
475
481
483
484
481
484
480
474
468
471
479
479
478
480
472
470
476
480
477
480
493
494
487
486
485
487
486
488
489
480
477
479
478
477
475
476
477
476
477
482
489
495
492
480
478
480
479
475
472
474
479
479
474
470
470
469
469
472
477
479
484
480
486
482
475
480
478
479
480
483
484
484
484
489
498
496
486
475
472
468
472
476
471
466
473
476
470
480
486
480
475
477
481
483
487
491
488
478
471
478
482
479
482
481
478
479
481
482
492
499
501
496
485
481
483
484
479
476
477
478
480
488
492
483
473
466
463
460
459
460
465
474
475
481
490
496
497
493
492
491
490
490
491
491
490
488
487
492
479
468
478
495
500
504
501
497
495
495
502
505
492
480
484
493
495
494
494
492
480
474
476
476
483
494
497
491
486
491
489
481
475
474
476
488
494
488
488
493
495
500
501
492
488
493
504
507
508
517
529
531
527
527
526
522
516
508
505
503
504
506
513
508
498
497
496
499
493
493
499
503
504
504
500
497
499
508
517
519
524
523
519
522
521
515
504
497
497
498
499
497
499
500
501
500
485
474
478
481
481
479
480
477
477
482
484
480
478
472
464
456
461
468
473
472
475
471
465
469
471
474
472
473
471
470
474
479
482
469
464
463
464
473
478
479
480
481
489
491
483
485
483
476
470
475
481
484
469
466
458
456
458
459
469
472
478
476
473
474
470
467
468
467
470
472
464
451
442
437
434
440
447
456
461
477
489
494
513
541
570
596
619
641
663
685
712
739
759
771
779
788
785
776
771
776
778
780
777
772
749
714
685
664
657
652
641
633
618
603
587
571
550
519
491
475
445
425
419
416
430
446
453
451
452
459
460
456
454
452
455
461
464
468
472
472
465
455
453
460
461
456
452
454
451
452
449
446
451
460
461
462
459
453
453
449
450
447
447
449
454
459
461
460
461
466
464
454
448
447
444
440
440
441
443
449
454
454
457
464
461
462
464
453
453
462
467
472
476
478
476
470
461
457
458
459
458
458
460
456
456
464
468
475
478
479
484
490
495
491
485
482
478
477
476
476
475
470
466
470
471
477
487
485
479
477
482
487
486
497
502
503
500
502
503
503
500
498
498
499
492
486
496
509
508
502
503
504
514
518
512
516
515
512
508
516
517
516
521
527
530
525
521
525
525
522
519
524
524
537
543
540
526
521
536
551
562
559
559
557
553
557
558
552
555
559
553
555
564
568
573
577
574
564
560
562
575
582
585
580
573
570
576
578
581
577
576
572
575
575
578
574
567
564
561
556
558
561
564
570
574
569
558
555
552
551
559
564
558
552
556
549
538
537
544
536
524
522
527
531
517
505
499
498
506
511
509
505
498
490
491
491
487
494
500
496
485
483
468
449
451
456
464
467
469
457
441
438
437
433
428
427
431
430
424
428
433
436
430
427
422
421
422
424
427
420
413
409
409
410
419
428
422
414
408
402
401
408
414
415
411
418
421
417
413
418
426
423
411
408
411
411
413
418
418
421
431
436
430
423
421
423
423
424
430
435
427
424
419
421
429
435
442
450
448
437
428
426
431
434
433
434
440
448
450
454
452
440
431
433
432
437
446
455
457
457
452
439
431
437
443
450
452
458
461
463
455
453
453
450
449
453
457
450
441
439
445
455
469
478
488
481
463
462
474
481
471
458
461
465
460
457
451
455
464
465
463
468
460
453
457
464
470
475
475
472
468
467
466
468
469
467
469
480
485
484
484
480
472
462
465
475
476
469
463
466
470
473
476
482
488
483
481
481
478
475
474
475
470
468
471
473
476
471
467
469
480
487
481
474
468
467
469
470
470
481
492
495
486
478
478
479
479
481
483
477
472
469
468
474
478
476
474
473
467
476
484
486
479
478
479
476
474
477
468
460
469
477
478
494
497
491
478
472
469
467
465
465
466
469
474
485
488
481
477
485
492
489
485
480
483
487
482
477
473
471
464
460
461
466
475
476
480
481
481
481
484
485
488
483
468
465
469
478
482
477
470
469
470
473
473
470
473
478
486
495
495
489
490
485
482
478
476
474
478
482
479
478
475
470
470
469
468
479
491
495
488
480
478
486
489
483
484
492
500
495
490
492
488
480
475
470
469
474
486
491
483
479
481
481
475
477
482
478
475
487
491
487
490
497
498
493
480
468
468
472
472
473
478
480
485
484
483
488
487
480
479
482
483
486
487
490
490
491
491
490
484
473
468
467
466
471
473
479
481
478
479
479
480
481
487
491
491
491
500
503
502
498
490
481
477
476
467
461
463
476
488
495
496
493
493
486
484
484
486
492
500
493
486
491
494
487
481
477
469
471
474
473
470
472
475
477
489
494
499
506
507
507
504
503
497
487
483
479
483
487
489
493
494
494
486
478
469
469
480
489
491
483
476
473
481
487
485
484
482
478
483
488
485
497
506
506
500
496
495
491
490
489
488
492
503
501
491
487
489
501
507
504
504
511
513
514
517
518
519
514
517
517
516
514
519
524
514
505
503
509
510
512
514
523
519
499
487
490
501
508
507
508
502
497
503
513
516
522
524
527
526
520
510
502
505
510
508
501
496
498
505
504
498
494
491
489
486
490
497
498
491
483
474
473
471
470
473
477
478
478
482
488
488
481
469
462
463
463
460
464
478
485
484
481
479
477
469
462
465
471
478
473
459
461
474
477
474
477
481
472
463
462
473
481
483
487
491
489
488
487
487
482
471
464
460
462
466
469
470
467
462
454
455
457
458
454
449
451
463
465
462
462
477
489
502
505
502
517
547
573
597
627
647
668
700
732
757
783
799
792
779
772
780
800
814
812
799
779
756
734
707
677
660
649
642
634
627
614
578
544
523
498
470
447
434
431
428
427
439
452
455
453
453
451
441
437
440
448
453
454
462
465
464
461
460
465
468
471
474
475
470
464
464
463
452
443
445
452
452
452
449
445
441
440
442
443
450
455
458
459
464
457
454
451
438
432
435
445
454
446
449
453
454
449
447
444
444
451
453
457
463
468
468
465
458
463
472
471
472
477
481
483
481
480
478
475
466
457
463
471
465
466
479
492
496
486
472
467
469
472
473
471
479
487
483
486
482
477
477
482
482
483
495
501
494
492
497
500
500
498
494
494
498
502
505
503
499
499
497
499
500
492
495
509
516
517
518
520
522
524
515
511
515
505
506
511
523
534
540
539
537
534
530
535
540
544
548
550
543
538
544
550
550
550
549
549
540
540
547
553
551
546
542
544
547
547
552
558
567
570
576
585
586
578
569
568
581
587
579
569
566
564
562
568
569
576
577
569
566
578
584
587
588
589
583
578
572
557
546
545
551
551
555
555
559
562
553
553
552
552
552
553
547
532
525
524
526
527
530
529
519
514
506
493
487
489
492
491
490
490
493
497
493
485
470
464
465
463
455
450
448
453
460
465
456
442
436
433
428
425
422
422
427
424
418
415
418
420
417
414
413
412
412
412
411
409
401
402
411
422
430
422
409
405
408
414
417
419
421
418
416
420
426
429
420
416
418
419
420
421
422
423
419
419
428
433
433
423
417
415
411
413
415
418
418
418
417
423
428
423
420
424
426
428
426
422
427
434
438
441
445
443
446
446
435
434
451
452
448
445
445
443
433
437
441
449
456
461
459
452
446
455
463
463
456
453
447
443
447
455
460
464
467
467
466
462
464
462
460
457
461
467
471
468
461
457
459
460
463
467
469
469
467
474
478
470
467
467
464
459
455
463
471
468
464
466
472
472
465
460
465
476
479
474
468
473
484
484
463
456
464
473
480
478
468
461
467
480
479
470
463
469
474
474
475
474
472
474
478
478
480
485
485
480
472
463
462
465
467
476
491
500
501
497
493
485
480
469
466
469
474
475
472
462
452
464
482
486
481
485
480
480
481
480
479
479
481
475
471
473
477
479
478
479
480
477
477
479
478
481
478
482
482
481
477
478
488
504
500
490
478
464
459
461
471
478
473
473
475
479
478
479
483
485
480
473
472
471
474
471
473
481
485
479
479
479
478
479
481
482
474
473
474
477
481
482
476
468
471
474
469
472
479
479
483
485
481
475
478
494
499
495
485
481
478
475
470
465
469
474
470
464
470
485
489
497
505
500
482
470
475
474
463
465
477
477
475
477
487
490
490
496
502
492
488
487
485
485
485
486
484
486
488
491
489
486
486
487
486
484
482
486
487
478
475
479
479
479
479
481
482
483
487
494
498
501
497
483
471
469
475
479
482
483
478
472
475
481
481
480
484
484
482
482
481
480
483
483
478
471
471
482
491
484
481
477
476
479
483
487
486
485
489
490
489
487
482
473
472
476
473
476
483
490
491
490
492
489
478
477
487
497
498
496
488
483
475
479
485
492
495
492
487
481
492
506
497
480
475
475
474
476
480
485
484
488
491
490
486
485
490
490
487
488
482
479
486
498
500
495
495
495
493
493
493
495
493
487
481
477
475
480
492
494
490
489
492
491
497
501
500
500
502
505
498
494
494
496
499
498
497
499
501
498
497
497
501
501
502
506
510
513
516
512
516
521
523
524
527
524
521
525
528
512
508
512
517
510
501
503
499
496
502
509
508
502
503
509
511
507
506
513
514
511
510
514
512
505
506
512
519
519
519
509
502
499
488
475
467
471
485
492
487
483
473
464
469
463
458
465
474
473
466
462
457
457
465
472
472
470
476
481
481
480
483
485
485
484
483
478
473
472
476
480
481
481
481
481
483
476
478
484
490
496
492
477
464
462
467
474
478
479
478
480
469
460
458
466
469
467
461
463
466
469
477
475
465
461
457
460
461
463
464
467
473
476
489
497
497
506
519
541
571
597
621
641
668
701
726
750
776
798
792
787
786
781
787
794
801
790
770
753
725
693
664
652
644
639
629
610
590
573
553
526
494
459
436
421
405
400
400
417
437
443
451
454
455
450
444
443
446
453
461
474
481
484
479
474
465
460
451
453
461
461
460
459
458
454
447
442
448
452
458
464
465
459
456
457
456
453
449
454
452
447
443
440
448
458
461
459
460
460
456
455
449
449
452
456
460
465
458
459
461
467
475
472
461
447
448
456
466
473
477
473
464
459
461
467
470
474
478
475
472
476
479
481
483
486
485
483
489
487
487
486
486
485
477
477
482
480
479
479
482
491
507
502
489
484
481
483
488
492
496
499
495
492
492
492
503
514
518
520
516
507
511
516
511
509
509
509
511
514
517
516
509
509
513
518
513
506
510
519
522
518
519
532
546
552
550
557
559
545
530
525
533
546
546
547
545
548
551
551
551
549
554
558
561
562
553
546
554
553
550
553
558
562
566
571
570
566
572
587
595
592
585
576
573
569
570
572
575
579
577
573
570
566
554
559
571
579
582
571
556
552
554
550
550
548
545
544
544
548
551
547
540
534
533
535
538
534
528
523
519
519
526
517
500
489
491
494
487
475
466
464
474
478
473
481
487
489
482
465
450
448
445
435
425
425
436
436
428
428
432
432
428
424
428
431
425
414
403
405
414
422
425
423
428
431
428
423
420
420
415
402
395
400
406
409
417
427
430
429
431
422
412
415
414
412
414
413
415
422
423
422
422
427
425
420
420
428
435
436
431
428
428
426
430
433
435
432
427
417
417
423
425
432
441
446
449
439
439
437
435
436
441
437
442
444
441
435
434
435
437
432
433
436
432
430
433
444
453
458
454
453
454
447
445
445
449
454
461
465
465
479
482
474
466
460
455
449
440
438
442
449
455
461
466
474
466
459
464
461
455
455
459
465
469
469
470
471
477
479
475
470
468
464
475
483
480
472
470
475
480
476
472
472
472
467
465
470
477
483
488
485
478
477
474
472
469
470
468
465
462
466
473
475
474
472
477
481
478
478
479
478
473
476
482
478
468
464
467
473
479
480
476
477
473
470
472
477
480
479
475
473
472
469
473
477
483
490
488
479
469
467
468
465
466
474
484
476
463
470
485
495
496
494
483
470
462
462
470
481
488
475
469
472
476
481
488
482
463
460
466
472
482
477
473
476
473
476
481
480
479
476
475
474
473
482
487
491
495
489
482
473
466
469
471
475
477
477
478
472
471
469
467
468
474
477
476
476
479
490
496
492
485
483
481
486
491
490
483
477
478
481
481
480
476
480
479
474
468
467
470
476
475
473
472
473
472
467
465
467
469
472
476
480
480
483
478
467
472
483
486
490
497
498
495
488
481
473
476
478
480
485
485
483
480
481
481
475
472
473
483
479
472
470
472
471
473
479
482
485
479
471
469
473
476
483
488
487
491
495
492
491
494
482
464
460
470
479
482
481
484
480
488
491
490
489
485
481
478
484
490
488
485
483
478
480
481
473
467
468
473
480
488
488
480
475
482
490
502
507
497
487
483
485
481
475
472
480
496
497
498
493
487
478
475
471
471
476
477
479
480
489
490
493
487
480
482
489
495
496
487
475
474
480
480
476
476
481
481
488
499
506
504
496
496
497
495
497
499
490
487
487
495
493
493
491
492
495
493
494
503
509
509
509
510
515
518
518
519
521
518
508
511
518
526
525
526
521
500
494
494
487
481
489
491
492
494
502
518
522
521
514
508
510
511
504
508
515
518
512
503
495
496
500
500
502
499
494
489
483
481
487
487
482
478
469
461
467
474
473
468
462
464
471
472
472
469
473
483
483
481
478
478
477
474
470
475
473
469
472
472
477
479
470
467
479
492
486
476
462
458
458
461
466
477
483
476
464
455
443
435
442
449
455
455
462
468
476
479
478
478
476
472
471
474
474
470
470
466
464
468
473
472
463
460
454
457
464
468
479
489
495
511
532
546
569
597
628
658
689
717
734
745
764
776
776
769
767
771
773
778
785
786
778
756
729
691
659
638
634
632
623
601
582
554
524
501
483
463
440
425
412
410
414
416
426
440
451
456
462
447
436
448
457
456
454
464
467
465
467
473
476
475
472
475
467
456
454
456
449
440
439
445
446
448
458
467
464
466
461
453
454
447
438
437
443
447
455
459
462
465
459
453
454
457
448
445
452
460
461
462
458
455
452
456
461
461
460
457
449
454
470
474
470
468
473
472
467
473
478
474
467
469
469
465
462
465
474
479
480
478
477
476
474
473
473
473
481
486
485
485
490
500
500
495
490
491
491
492
494
499
498
496
491
486
491
495
496
498
502
501
499
498
502
506
512
509
507
502
504
508
514
519
518
514
513
509
512
516
519
523
529
532
531
524
521
526
534
533
525
523
523
528
536
542
540
542
543
542
544
547
549
544
548
555
555
555
564
571
566
564
564
573
574
573
576
575
570
566
567
571
575
573
571
574
574
571
571
565
559
557
563
571
575
579
577
576
572
567
568
575
580
577
571
563
564
571
571
568
562
554
550
551
550
543
546
552
549
543
533
523
513
508
513
515
518
512
499
495
497
490
490
494
498
495
491
485
484
481
482
469
462
456
453
461
465
459
459
461
460
450
440
439
436
425
414
411
424
434
436
440
435
421
406
397
392
391
398
403
403
408
412
419
426
424
419
415
416
419
416
411
412
412
416
419
416
411
415
426
424
416
416
416
414
409
411
414
417
417
417
421
426
426
427
427
429
430
423
424
427
424
423
421
420
423
422
419
419
416
422
435
451
460
452
440
438
442
443
445
442
442
439
436
432
439
444
443
444
451
452
452
446
444
445
444
441
445
440
435
445
448
449
449
444
446
447
448
450
450
457
469
475
470
462
454
453
456
466
473
477
478
478
477
480
478
464
451
448
456
466
469
468
469
466
458
456
461
463
462
467
476
481
481
476
467
468
472
482
486
483
475
467
463
460
464
466
473
478
478
474
467
463
466
475
478
475
471
471
471
474
484
490
488
481
471
466
467
477
485
480
480
487
493
491
481
479
473
463
461
469
479
481
481
479
480
480
478
473
478
486
487
486
479
476
473
472
468
473
475
478
482
479
475
475
476
484
484
480
477
478
489
494
493
488
488
486
491
493
482
468
460
462
468
477
475
472
469
471
477
480
485
488
486
484
483
483
488
489
487
475
472
473
470
471
474
473
471
471
473
474
472
468
466
462
464
471
471
464
460
467
474
474
481
480
485
492
489
486
495
501
498
499
496
492
486
482
483
486
484
482
476
473
477
484
486
482
479
477
478
479
473
473
477
480
489
491
491
487
487
488
491
482
476
472
466
467
476
477
476
475
480
485
487
485
488
491
493
496
493
482
475
466
468
470
469
467
466
466
474
481
490
493
486
474
474
473
474
476
477
475
476
489
507
511
505
501
496
489
481
467
463
469
478
481
483
485
489
485
480
480
474
473
472
479
483
484
485
490
502
506
496
492
486
483
483
483
484
482
477
472
473
474
473
477
478
482
484
486
494
491
485
478
485
488
481
479
480
482
481
480
481
478
478
477
485
491
494
493
490
483
482
484
488
492
495
495
489
482
475
480
491
488
480
477
489
487
486
487
488
489
490
484
481
483
474
472
471
478
489
496
495
499
508
511
500
477
464
475
493
513
516
506
492
487
489
490
482
479
489
498
488
476
477
491
501
504
500
501
505
509
508
511
512
515
514
518
520
514
508
510
511
513
508
505
502
503
506
504
503
505
512
517
512
512
510
510
513
519
516
514
515
523
533
532
527
516
496
487
489
495
498
503
510
515
501
490
495
495
489
482
478
478
480
480
472
469
468
470
464
462
464
471
477
480
471
462
462
471
477
478
485
489
487
480
468
463
461
457
461
469
481
488
488
486
478
478
479
475
469
467
467
469
467
471
476
478
470
466
466
466
472
481
484
479
479
482
476
474
472
464
457
459
469
476
467
467
466
460
459
471
470
458
461
461
459
456
460
465
478
485
489
487
497
521
544
563
585
619
652
670
687
711
741
758
776
784
784
780
782
778
785
795
794
778
767
735
689
653
642
641
630
614
592
572
558
540
517
486
460
430
413
410
411
421
430
441
448
455
457
455
444
446
451
457
461
461
461
459
462
470
470
470
472
467
461
460
458
457
459
463
467
475
469
468
473
477
467
457
452
452
456
460
460
455
455
460
464
463
463
461
457
457
458
465
467
457
444
444
451
455
462
467
467
466
464
464
459
460
461
463
456
456
462
471
480
484
467
455
463
468
472
478
478
477
482
483
479
481
476
472
464
471
483
487
489
484
481
479
491
500
504
505
513
512
503
496
489
483
477
484
494
489
488
488
498
510
517
516
508
506
509
509
509
510
509
507
501
499
499
499
500
505
509
508
510
517
518
516
521
523
521
514
512
513
517
531
538
527
531
538
539
543
549
549
551
543
534
535
540
543
544
544
539
534
538
557
569
579
578
562
557
559
562
568
573
579
571
560
558
559
564
571
578
572
567
565
571
581
584
576
575
581
585
582
578
574
563
564
566
562
560
564
560
553
549
560
567
561
550
548
556
560
555
550
555
555
558
563
553
534
525
518
516
512
516
519
516
514
510
503
505
508
504
493
480
477
471
466
474
472
476
472
468
463
459
462
465
453
435
434
439
439
438
438
432
426
421
419
416
418
426
427
418
415
414
413
409
406
406
409
407
405
414
418
419
420
423
415
408
404
407
409
416
405
402
408
411
406
405
414
415
410
413
416
406
406
413
420
425
421
426
428
420
424
429
430
429
431
419
409
420
426
419
419
414
411
403
408
419
427
439
440
437
443
446
440
439
435
441
447
447
444
435
430
438
446
441
440
443
444
445
445
451
456
451
445
443
458
467
464
454
440
440
456
459
455
453
447
440
438
438
440
449
453
458
454
458
469
476
475
475
473
469
468
468
465
469
470
466
467
468
466
464
469
462
458
457
464
473
469
461
466
468
464
467
468
460
458
458
465
478
476
468
470
474
476
472
477
487
489
481
477
475
472
473
477
479
474
471
475
481
485
485
479
471
470
473
472
473
482
484
484
480
474
469
476
494
485
469
460
465
459
466
484
493
486
479
473
469
463
463
473
481
482
486
495
498
499
497
486
471
469
468
465
473
480
484
488
491
483
488
486
491
489
484
486
489
484
475
475
485
482
478
479
482
490
487
478
485
487
484
484
484
476
472
475
480
490
480
471
470
482
491
489
488
482
478
483
473
457
453
456
466
473
483
481
472
465
466
468
468
474
476
482
487
491
490
486
487
485
478
467
464
471
477
489
491
483
475
478
475
471
485
485
480
479
484
475
479
483
478
469
476
484
480
476
470
476
479
483
490
483
479
488
483
477
478
483
490
487
484
483
485
477
473
472
478
492
496
486
478
473
472
467
465
463
469
476
483
482
482
481
479
485
491
497
495
487
485
487
489
485
483
483
485
483
481
480
482
490
489
484
485
484
480
484
487
494
497
484
472
471
471
481
491
489
487
487
483
482
485
483
479
478
481
488
493
496
493
484
470
470
476
476
478
484
492
489
483
476
476
474
477
483
491
501
494
486
489
484
476
476
482
486
487
485
483
494
494
490
485
478
484
484
478
477
475
473
479
485
497
499
498
506
506
498
490
481
475
476
480
478
479
491
486
484
483
484
485
492
493
494
496
499
505
508
499
492
500
502
506
506
502
501
496
498
508
508
506
509
508
506
504
503
502
510
518
522
519
521
522
514
509
515
525
519
513
516
519
510
488
478
480
486
495
503
512
516
525
518
508
505
514
526
532
533
520
503
494
494
495
505
506
500
500
510
512
508
500
501
506
503
503
499
489
484
480
473
471
468
469
468
467
469
465
455
456
471
472
478
484
483
477
467
466
465
465
466
469
472
475
481
483
475
467
475
491
494
487
474
470
475
482
482
485
481
473
470
470
476
475
470
465
462
457
467
470
469
479
482
475
470
470
478
488
491
480
459
456
465
468
472
472
471
468
461
460
458
459
453
455
463
475
482
481
473
473
485
509
532
557
583
605
630
659
681
712
742
764
789
807
810
800
792
793
798
798
792
784
765
735
702
671
645
630
622
606
591
575
556
541
519
481
446
429
419
418
424
426
431
435
445
445
443
443
446
450
457
456
458
461
456
448
446
453
460
473
487
489
479
476
477
474
472
471
473
464
458
456
449
452
450
449
446
452
462
462
457
454
447
445
454
464
471
468
466
455
453
461
467
460
458
455
450
447
446
452
454
454
459
458
454
456
459
460
467
471
467
463
464
468
474
481
480
475
474
480
479
476
472
469
469
472
475
483
482
477
479
483
480
486
499
503
505
500
491
488
487
489
496
496
491
493
497
500
498
494
490
481
478
482
491
502
499
491
490
493
497
495
495
505
507
507
507
512
512
514
515
511
507
509
513
520
518
518
530
528
521
520
518
509
510
522
528
533
536
540
534
533
541
543
542
555
565
564
556
551
550
548
549
547
549
551
556
565
567
570
572
562
559
555
554
559
562
564
573
581
587
590
590
583
570
564
568
575
582
585
584
582
576
581
586
574
562
559
560
561
567
576
576
563
554
550
550
550
545
543
545
548
549
551
540
536
537
541
547
541
527
514
509
512
513
513
509
509
501
498
508
508
488
476
474
466
457
454
453
450
448
440
445
445
442
440
440
438
437
443
446
436
431
431
429
425
416
414
416
419
423
424
423
424
421
411
412
417
415
400
397
397
402
401
402
409
416
417
410
409
412
413
407
406
401
404
409
403
408
414
415
415
421
424
422
420
417
422
426
431
433
435
431
427
416
409
414
425
428
430
427
416
417
419
428
431
429
424
423
421
422
425
426
429
428
434
445
447
442
443
440
439
446
447
438
431
435
441
436
440
451
453
454
449
443
437
438
444
447
448
454
455
451
448
454
456
455
457
462
471
477
478
471
464
464
468
465
458
451
446
446
445
445
450
456
459
467
473
470
457
452
460
470
476
463
448
442
440
442
451
463
467
463
470
475
475
478
480
482
475
471
471
479
477
479
474
471
472
469
468
469
473
478
479
480
469
469
487
494
484
477
475
480
479
470
470
467
464
464
468
479
482
481
481
489
493
489
486
485
487
481
476
480
487
484
480
482
484
485
490
493
488
484
485
487
486
473
467
476
480
480
475
473
474
471
468
467
466
465
467
473
478
480
479
478
473
472
475
472
471
480
488
486
490
496
490
486
482
479
472
471
470
478
485
484
482
477
466
468
475
475
472
466
461
462
465
458
462
467
463
461
480
497
499
489
483
483
478
474
469
472
478
482
476
468
460
462
469
474
478
477
478
483
483
479
476
476
470
466
467
471
477
479
479
473
466
470
476
481
484
482
477
480
483
484
483
481
479
478
475
475
473
476
485
486
484
485
486
482
477
481
490
488
485
486
485
493
492
482
478
470
468
467
468
467
475
478
474
477
477
477
478
476
471
466
466
481
489
494
494
493
497
497
489
478
472
476
481
481
488
492
494
495
494
481
475
474
471
476
479
481
491
494
491
482
477
479
481
479
479
473
475
474
476
476
483
490
488
483
481
487
488
478
471
473
480
480
479
482
483
480
485
496
503
510
503
482
471
466
465
470
474
473
471
472
474
480
479
474
478
482
481
482
485
487
498
501
502
495
485
480
474
478
484
483
479
479
481
483
487
485
477
478
479
480
481
481
482
482
482
477
481
478
472
479
495
499
499
502
498
494
490
491
491
491
488
484
480
483
482
479
488
498
501
499
494
491
489
491
497
503
508
517
518
519
514
510
515
520
517
511
505
503
504
507
506
508
511
504
504
511
510
506
511
516
512
505
499
494
498
504
507
509
507
506
506
504
507
512
514
515
521
525
518
506
502
501
503
500
492
489
494
501
503
495
491
497
495
491
488
486
482
476
474
471
463
459
457
455
452
459
465
465
467
462
461
465
468
467
469
472
480
484
482
478
478
474
477
476
473
473
470
467
466
459
464
466
462
463
467
469
467
467
468
470
473
472
471
473
473
471
474
478
484
481
474
469
464
464
470
470
476
468
459
450
452
460
457
449
448
445
440
441
443
446
453
464
477
486
489
502
522
549
577
607
635
664
696
724
741
763
791
801
801
791
789
792
797
796
794
784
767
750
727
701
685
688
675
662
652
621
592
569
544
519
498
477
461
447
438
426
419
423
432
439
442
440
435
432
435
443
455
468
480
485
470
461
459
462
460
457
456
452
455
461
462
454
451
454
450
453
458
462
459
453
448
445
442
440
437
441
449
442
442
445
447
452
453
454
448
440
435
437
442
445
447
450
455
462
469
466
456
452
451
449
451
452
448
456
460
461
459
459
457
464
470
467
462
458
461
455
455
462
469
475
471
469
476
478
477
480
483
482
472
472
474
475
476
478
474
471
472
475
479
482
486
486
481
474
473
477
483
489
488
493
497
496
491
488
490
495
499
499
498
499
495
492
501
516
518
519
515
519
526
513
505
499
507
512
521
527
532
534
528
522
517
512
515
515
514
518
527
533
534
536
540
542
535
534
539
547
545
544
546
550
548
547
553
561
563
560
557
560
559
561
567
576
579
574
562
554
554
559
560
564
568
572
575
573
571
575
579
577
575
577
569
560
556
562
571
574
581
580
567
555
552
554
549
542
543
548
551
547
543
538
539
540
540
529
529
535
533
523
512
506
501
500
507
508
504
501
505
515
522
513
491
469
459
463
463
460
462
467
461
451
446
447
452
449
439
437
438
439
437
426
420
420
426
429
424
420
422
424
414
408
409
412
417
420
420
411
408
419
422
411
407
407
409
404
405
410
415
413
417
422
425
426
419
416
413
416
422
425
424
421
426
432
436
436
430
412
408
421
429
425
419
414
406
403
406
409
414
420
430
441
441
445
446
454
453
441
434
432
425
431
437
440
437
437
438
426
421
424
438
453
451
450
439
439
452
458
453
449
451
455
450
445
444
443
443
451
456
448
440
440
448
446
451
461
467
467
464
461
460
460
463
467
465
462
466
471
468
468
457
452
450
455
457
456
467
481
483
481
471
458
455
457
457
460
468
470
465
460
452
451
457
461
465
469
474
477
482
480
476
468
465
466
469
470
474
474
474
479
481
485
492
483
471
473
474
472
466
464
466
471
479
479
477
476
474
470
467
469
473
475
473
465
461
468
477
480
480
480
477
469
475
480
485
480
482
490
491
482
480
481
474
472
473
477
481
490
494
498
496
487
475
474
481
486
486
477
475
477
470
467
466
463
460
455
457
467
477
486
483
481
479
483
487
482
473
475
479
477
481
480
475
472
477
481
482
477
473
479
478
480
483
477
473
476
483
485
488
484
471
466
467
468
476
478
474
470
475
482
481
480
480
481
480
485
487
480
479
479
479
482
483
484
477
478
481
492
499
504
502
491
478
473
474
468
464
462
468
472
473
475
476
474
474
477
477
480
484
489
486
482
476
476
480
483
490
486
483
480
480
479
479
480
479
480
487
499
503
497
492
487
480
476
476
474
474
474
479
488
483
474
475
482
487
491
486
483
489
488
482
475
481
483
482
481
479
476
477
475
482
483
485
485
478
480
482
491
500
500
492
487
484
486
491
494
490
490
482
478
483
489
489
480
475
472
468
474
474
473
473
473
476
485
498
498
491
488
487
488
494
499
500
491
482
479
481
483
478
478
481
487
495
494
489
483
484
480
477
486
482
484
485
483
485
491
493
489
485
488
491
486
486
487
481
482
484
485
489
492
494
500
490
481
477
480
478
478
479
479
484
486
488
481
480
483
487
493
492
489
490
493
495
495
488
485
490
500
502
496
489
478
472
469
471
474
471
468
476
492
504
504
495
484
487
492
497
505
510
506
492
481
480
486
491
491
499
505
502
487
477
483
490
493
489
482
485
497
510
517
516
515
515
506
509
521
524
513
501
489
491
502
515
517
514
514
509
511
513
515
513
510
505
504
503
503
504
506
516
524
516
502
500
503
504
503
501
505
512
518
517
517
516
515
509
502
500
504
508
508
505
505
502
498
503
503
506
504
507
507
499
487
481
481
475
470
472
471
475
479
477
479
484
480
478
477
479
475
478
485
486
488
479
463
457
463
478
483
486
485
481
475
469
463
460
462
462
462
460
462
466
470
476
479
479
478
477
474
473
475
479
488
495
486
475
472
478
486
483
472
467
466
468
467
460
463
469
475
479
475
471
471
474
476
471
466
456
447
443
448
462
471
474
474
478
487
502
527
549
572
593
611
633
673
719
752
776
797
805
800
798
800
800
803
801
798
791
793
779
744
713
691
677
663
645
628
619
607
585
566
543
512
476
453
443
436
439
444
449
456
463
467
466
459
447
425
424
442
450
449
458
466
472
473
466
460
462
463
459
458
462
461
457
454
460
456
452
451
448
442
443
445
454
457
461
466
459
454
457
458
454
450
450
449
445
436
437
438
442
447
453
450
449
449
450
451
447
443
448
460
469
466
467
470
464
462
465
470
472
472
471
468
464
461
465
475
479
481
477
468
463
461
470
482
490
494
495
488
489
486
478
476
481
493
500
496
484
479
492
506
520
512
496
484
476
481
486
489
489
492
494
497
500
495
487
488
494
505
512
507
494
495
500
509
515
513
513
508
506
507
510
511
511
512
514
521
527
527
522
518
516
512
513
516
519
523
529
527
532
538
543
549
548
549
548
553
553
553
547
545
559
571
569
564
558
553
560
563
560
568
582
579
572
573
577
577
578
576
575
579
580
575
577
591
602
595
587
573
563
564
578
588
583
572
568
574
579
575
567
561
560
559
556
563
567
566
561
556
552
550
553
548
540
544
554
547
534
530
531
534
531
522
514
512
515
516
515
508
492
482
485
486
478
477
482
479
462
454
452
452
452
454
453
452
452
453
448
445
442
437
431
428
433
435
428
423
417
417
419
420
419
421
429
431
433
429
424
421
415
415
415
412
408
409
411
415
414
415
416
405
398
403
415
422
430
436
435
415
404
414
427
438
437
429
425
429
424
421
416
418
417
414
418
429
432
432
430
432
429
424
422
418
421
431
442
452
455
451
444
442
445
444
437
439
440
445
444
442
443
451
460
460
454
439
433
436
444
449
456
460
460
456
454
454
455
457
460
453
451
453
455
454
454
451
450
453
453
456
458
459
458
455
456
462
468
467
466
462
463
460
457
460
474
477
467
458
459
458
466
476
477
480
483
474
463
458
459
469
475
481
485
479
468
467
475
475
467
463
468
472
476
477
480
480
479
479
489
487
480
484
477
467
471
475
477
476
471
475
477
475
471
474
478
487
485
482
481
482
479
470
478
486
485
481
480
487
489
480
473
470
477
480
484
486
479
476
478
483
488
490
491
490
486
484
481
479
474
477
483
482
487
485
483
483
486
487
486
474
470
470
469
469
468
465
471
480
487
493
495
494
489
484
479
476
477
478
477
476
481
482
485
486
483
482
481
481
484
484
482
482
484
482
479
481
480
481
484
484
477
476
474
476
483
484
473
466
465
469
477
483
484
483
486
494
493
490
479
473
467
469
477
480
474
468
476
484
488
486
478
479
476
469
473
479
477
483
485
484
485
486
484
481
479
481
482
488
492
477
472
473
478
483
481
473
476
483
486
482
472
468
468
469
472
475
482
486
481
482
481
482
487
490
492
493
488
486
488
487
482
481
484
485
488
496
494
488
481
480
488
491
486
482
481
484
482
478
478
478
486
490
490
490
488
489
486
483
485
483
482
484
481
473
466
465
473
484
492
489
485
482
481
479
483
486
488
486
487
485
475
473
476
481
479
476
472
472
479
482
480
481
486
492
493
495
492
492
495
490
487
491
503
507
502
490
482
477
473
473
470
470
472
466
469
473
476
478
484
483
479
481
487
496
494
490
487
488
489
493
495
494
494
493
488
481
478
481
475
470
475
486
490
485
481
480
483
491
495
483
475
481
480
478
481
478
476
477
480
482
483
488
487
490
495
496
490
480
472
470
475
480
482
483
486
484
480
475
474
476
480
487
496
500
501
505
498
489
486
487
485
476
476
480
486
499
506
492
482
479
482
487
488
486
486
484
483
488
491
490
494
500
500
503
500
498
499
499
501
496
487
482
486
495
494
485
483
493
499
498
497
493
492
494
501
509
518
524
517
505
501
510
519
520
517
511
513
516
512
509
512
510
510
508
498
496
503
500
501
507
506
495
492
494
498
497
501
509
516
515
516
513
510
509
512
510
511
513
515
519
522
525
529
533
528
510
502
499
494
485
483
480
478
476
473
470
460
454
457
466
470
471
477
478
477
480
486
481
481
484
480
471
468
474
471
457
454
456
457
462
468
466
465
461
464
468
474
472
471
474
473
474
479
483
480
479
483
484
476
460
450
456
465
478
479
473
472
468
462
468
470
466
467
470
473
476
473
466
465
458
452
453
463
468
470
467
466
459
450
446
449
448
449
459
472
481
492
503
519
544
578
616
651
675
705
729
750
771
788
797
795
787
784
786
801
796
789
784
774
757
729
706
691
685
675
666
655
634
614
595
571
545
512
483
456
439
429
424
424
433
441
446
454
457
458
458
458
460
458
457
462
467
465
459
456
460
458
452
453
455
459
466
465
464
466
460
455
446
438
432
432
430
436
440
439
438
444
443
438
434
442
453
451
447
446
447
444
437
438
441
437
437
432
430
439
445
445
443
453
460
462
454
458
464
458
458
466
470
464
464
467
468
462
459
463
469
471
471
473
476
480
486
483
483
482
469
465
466
463
465
474
482
484
487
494
493
488
481
478
479
478
477
473
474
480
486
494
496
502
505
499
496
497
489
481
493
502
506
505
506
515
522
519
497
484
490
498
505
506
511
510
515
522
510
501
506
513
510
503
504
509
515
523
540
544
538
544
553
554
546
538
530
526
527
532
535
536
539
541
550
559
554
552
552
553
554
564
572
575
564
559
556
561
569
573
574
575
570
570
568
570
577
585
588
581
575
573
573
573
577
583
578
566
563
557
560
570
579
577
577
579
577
576
579
579
565
551
547
552
551
547
543
540
543
547
540
535
529
531
532
528
537
539
525
516
514
514
511
505
497
498
492
481
469
459
458
462
464
465
465
470
476
474
465
455
452
452
451
451
447
445
444
428
419
414
417
422
422
417
416
416
415
416
413
407
409
414
414
408
408
411
416
421
420
416
415
412
402
400
400
400
398
402
409
408
407
409
412
412
413
412
411
416
427
431
431
430
426
420
420
431
431
429
419
414
414
417
421
427
433
435
432
431
434
434
436
442
447
442
435
434
432
439
443
435
434
441
442
437
442
443
444
442
441
446
445
446
443
437
437
436
443
448
448
448
448
453
457
455
449
442
444
455
462
461
459
452
446
447
453
459
463
467
464
465
467
471
478
475
463
456
454
448
447
446
446
443
448
454
456
459
459
453
457
467
472
474
466
461
459
457
457
459
462
469
479
479
471
467
470
474
475
471
468
472
472
471
476
477
474
474
478
480
476
476
474
476
476
480
480
478
479
480
477
481
487
491
487
482
484
478
472
469
468
476
484
491
488
472
466
469
472
479
476
475
477
476
484
486
482
481
478
480
476
468
462
469
478
490
490
481
472
464
470
478
482
477
471
473
478
486
485
484
482
483
483
479
469
461
459
467
473
477
478
474
469
472
477
479
475
469
467
470
471
474
478
482
485
487
488
496
491
479
473
468
462
468
475
479
476
473
472
471
472
483
485
482
480
472
470
469
476
490
497
492
487
488
486
479
473
471
473
478
476
474
475
478
477
474
480
483
486
483
486
488
484
481
486
478
469
469
468
472
472
471
473
471
475
480
474
472
484
492
494
484
485
483
481
476
471
471
469
472
476
480
481
494
492
478
470
471
474
481
484
482
472
467
469
480
486
481
476
476
472
479
487
487
486
492
498
498
496
497
491
477
470
469
470
474
485
490
493
491
488
480
478
486
487
479
477
481
485
493
494
484
478
476
476
471
472
481
486
487
491
492
489
484
484
491
490
477
479
487
490
490
477
472
481
490
488
483
481
489
496
492
489
497
498
489
478
477
479
483
480
472
466
461
470
472
468
474
484
490
495
499
495
493
491
488
489
491
484
478
472
468
477
479
471
466
477
492
496
489
487
488
488
477
473
480
477
478
483
488
484
484
488
487
497
507
499
488
486
490
494
494
494
488
480
479
489
498
495
484
477
482
492
493
493
485
479
475
480
484
482
480
477
477
479
477
478
482
484
482
480
479
481
491
500
500
506
499
488
480
477
480
478
475
470
470
475
481
493
495
488
488
487
488
487
488
489
488
486
480
477
475
475
479
485
491
495
492
485
477
479
490
499
505
502
497
493
488
481
477
483
483
477
474
473
478
488
495
501
508
509
504
500
503
508
508
504
505
503
502
502
504
507
496
492
497
498
504
509
515
523
523
531
535
537
532
509
502
497
496
496
493
502
507
514
515
507
491
485
495
501
505
506
510
517
524
528
533
522
508
504
506
506
505
503
503
508
510
512
512
511
512
515
515
513
512
504
491
484
485
483
480
474
473
473
471
471
474
475
470
474
487
484
478
470
471
473
480
484
477
469
460
463
470
476
487
493
483
474
467
466
474
474
472
476
480
478
474
476
476
478
480
481
471
466
468
470
467
464
464
467
465
463
462
464
465
466
471
481
484
482
473
469
470
467
468
474
477
475
465
461
459
465
468
468
469
461
453
443
435
433
437
453
465
465
470
486
520
551
578
604
626
641
664
695
726
765
786
790
789
783
775
773
780
798
809
815
803
783
756
725
697
684
674
669
668
650
631
605
575
548
519
496
467
443
436
432
435
437
447
459
452
438
429
430
435
444
451
454
465
469
469
471
473
465
458
458
470
480
481
472
457
445
441
439
440
442
442
442
444
445
452
459
451
445
439
434
433
439
446
448
448
449
455
458
456
450
449
445
443
445
451
457
468
471
464
452
449
457
466
475
477
468
455
457
464
465
459
463
469
464
459
460
463
459
458
461
465
468
469
472
478
481
476
475
470
463
461
462
458
459
472
482
477
477
480
484
486
488
492
499
499
497
491
494
503
500
495
491
485
483
494
506
507
494
488
491
497
505
509
504
499
497
496
502
506
512
518
521
522
521
516
513
508
509
514
518
522
519
521
517
515
512
509
511
517
522
523
532
538
539
538
540
536
533
542
550
554
547
537
542
548
557
567
568
561
555
551
555
564
568
568
567
568
570
570
573
573
574
579
574
570
559
554
553
555
567
584
593
584
581
585
577
574
571
568
563
565
575
577
572
575
571
561
559
553
551
551
552
551
556
555
549
540
530
529
529
532
539
535
526
525
524
520
511
508
511
508
503
497
495
489
483
482
479
478
470
473
481
482
472
470
464
447
439
435
436
439
441
439
439
439
439
437
440
444
434
427
417
413
410
408
409
413
417
416
414
413
412
407
400
401
404
402
407
412
413
411
414
414
409
405
410
406
408
409
412
416
419
430
435
426
419
416
413
416
414
409
415
415
412
409
416
422
428
426
421
416
409
416
425
423
418
419
422
425
437
441
442
442
444
441
435
440
450
451
446
442
444
445
434
430
435
435
440
449
453
446
438
439
443
444
443
439
435
436
439
445
444
443
446
452
454
452
443
438
446
465
483
489
482
465
464
464
456
451
455
455
453
456
454
457
456
454
449
449
455
458
455
463
469
467
467
469
472
473
479
476
463
456
455
462
472
476
480
478
469
464
460
464
470
470
465
464
473
473
468
467
468
472
472
473
472
478
480
475
470
478
485
483
475
470
474
475
473
478
481
484
486
488
488
490
490
484
476
472
471
477
483
482
480
483
480
476
469
464
466
468
463
466
467
467
467
472
472
473
482
486
488
485
485
485
483
474
466
465
468
469
473
477
474
470
463
464
471
481
485
479
482
484
483
480
472
472
476
477
478
478
480
486
488
483
483
486
478
470
468
464
463
466
472
474
470
475
488
494
484
472
471
470
471
473
473
471
472
473
476
473
474
476
481
484
478
474
478
482
484
483
478
468
470
477
480
474
474
474
477
478
484
488
484
480
476
470
473
479
485
486
484
482
480
476
473
472
474
477
475
472
469
473
474
474
478
485
490
487
483
485
485
475
464
462
468
479
488
486
483
480
483
486
489
487
489
484
471
466
467
467
468
475
489
496
491
488
494
496
489
488
480
467
466
469
469
467
467
467
469
476
487
494
490
483
474
474
474
477
488
496
494
493
487
481
479
482
481
480
478
483
482
481
476
474
473
478
482
486
485
484
486
482
478
483
488
484
473
470
471
474
481
489
489
483
477
474
476
477
476
476
478
480
485
485
483
488
493
492
492
486
479
485
493
496
492
481
481
487
492
488
477
480
481
479
480
480
484
489
495
488
477
468
470
477
481
479
475
476
480
487
487
478
474
483
486
480
474
482
490
488
488
486
489
483
474
481
495
494
487
484
484
482
487
490
488
493
496
487
483
484
488
492
492
487
481
474
475
480
482
487
492
494
491
483
480
480
476
480
485
485
487
490
482
472
466
469
472
475
483
491
493
493
497
496
491
489
484
476
481
496
499
497
493
491
493
495
499
501
506
505
504
502
500
504
502
497
496
500
507
510
516
522
517
503
497
498
503
504
504
507
511
511
505
500
498
496
499
499
497
494
495
505
517
522
517
509
507
513
517
514
509
510
511
511
512
516
519
514
516
517
507
499
498
506
511
502
489
477
476
482
488
480
475
479
474
460
455
455
456
466
473
474
471
461
457
459
457
464
477
476
467
463
463
464
465
473
479
482
486
491
489
486
484
477
474
475
471
466
464
459
461
463
467
467
467
470
469
469
469
471
484
490
469
453
452
461
468
475
479
476
472
472
478
476
464
459
459
454
454
450
452
460
464
461
457
458
464
461
458
466
475
479
491
512
539
570
604
626
641
656
681
705
727
746
762
772
761
756
762
779
792
799
800
788
770
748
719
689
670
654
650
634
621
605
581
551
526
502
467
439
418
405
405
411
427
444
457
455
453
446
441
436
438
438
445
456
461
465
469
472
473
476
471
455
452
458
464
468
469
466
452
439
434
436
437
442
452
458
451
447
439
442
446
446
444
445
442
441
443
446
445
451
452
445
446
448
446
445
444
444
445
451
458
461
461
465
469
466
466
469
465
455
455
460
460
465
471
469
466
463
464
465
458
454
458
465
466
476
483
484
482
476
469
467
474
477
476
477
478
486
484
482
483
489
478
476
480
482
487
491
493
489
484
484
487
487
492
498
501
500
500
504
503
505
502
494
493
502
507
505
498
489
492
504
513
517
519
516
512
507
511
518
520
514
515
518
524
534
541
541
540
533
529
529
528
525
526
530
534
528
534
543
549
548
543
543
556
557
553
546
555
565
558
551
549
555
565
569
563
559
559
565
570
572
569
566
564
565
567
566
568
567
566
570
574
573
571
578
583
576
571
571
569
577
574
561
558
562
563
560
558
560
562
550
545
553
555
553
556
556
550
541
542
545
539
533
526
525
521
507
495
487
480
480
486
490
489
485
482
478
468
462
460
456
451
449
454
455
457
458
463
462
451
440
432
431
434
431
427
418
416
424
432
432
428
427
424
425
422
422
415
404
404
405
404
397
394
398
403
401
392
393
401
407
407
409
411
410
399
396
405
411
408
403
409
419
423
427
429
430
424
420
419
419
416
422
427
427
431
432
432
424
415
412
414
415
418
426
432
439
439
432
425
424
427
429
425
429
432
438
436
427
426
425
422
426
436
437
434
436
445
450
449
450
448
450
457
453
445
442
435
433
427
428
439
448
456
453
448
453
455
453
450
449
449
443
443
445
449
456
459
456
458
453
452
453
453
454
458
458
456
456
459
461
463
468
476
484
484
478
475
480
482
480
475
468
468
474
476
472
473
474
465
468
477
475
474
470
462
462
466
470
466
458
457
461
462
459
463
470
476
472
473
477
482
484
487
488
485
491
499
491
471
462
461
462
465
464
460
461
467
469
474
473
472
474
479
477
469
466
473
480
477
479
485
484
485
478
472
470
473
480
486
493
494
486
471
461
455
461
470
476
475
475
477
482
475
478
481
484
492
484
480
480
476
472
464
462
462
459
465
465
465
469
474
475
469
468
466
467
472
468
475
486
483
485
490
487
490
495
488
477
468
467
464
464
463
466
472
475
473
472
473
474
472
469
472
478
479
479
480
479
478
476
474
477
488
500
501
488
479
472
464
465
471
475
478
477
481
477
467
461
461
468
477
482
486
476
473
477
480
475
473
476
482
486
487
483
481
491
492
486
486
491
493
492
490
490
484
471
479
481
465
455
465
473
473
474
476
475
470
475
480
478
480
482
479
486
493
488
481
480
487
482
476
469
467
468
473
479
469
457
454
459
472
482
485
476
478
483
485
487
485
483
482
482
477
472
475
482
479
476
481
482
479
479
486
496
492
489
489
482
477
479
483
484
484
480
478
481
480
486
487
483
481
481
475
469
474
483
489
494
493
488
492
494
487
485
486
483
480
486
494
497
505
497
480
473
469
474
478
474
464
460
458
459
466
473
480
484
491
494
491
481
475
471
478
483
479
475
473
478
481
479
483
486
486
489
490
493
495
494
494
490
482
475
471
475
486
497
491
478
472
477
483
488
492
488
484
484
481
475
479
479
476
476
484
489
490
495
495
493
490
492
493
486
478
483
487
485
485
484
483
485
485
487
489
490
493
496
497
503
492
472
466
471
486
498
493
479
473
475
477
480
480
482
489
496
484
476
482
484
480
473
473
481
492
496
491
486
487
489
492
493
481
477
486
486
483
487
493
498
498
500
495
495
498
498
503
509
517
513
509
510
506
504
508
508
510
518
530
535
530
530
528
518
512
514
517
514
511
507
504
499
499
502
502
496
495
497
501
512
519
518
517
517
512
511
513
518
531
528
524
519
515
513
511
510
511
502
493
492
498
503
505
497
491
479
474
475
480
472
466
464
463
462
461
460
462
464
459
460
463
460
461
467
475
476
475
470
466
461
460
464
476
483
483
482
481
486
488
478
472
466
465
469
471
470
467
464
464
468
467
465
465
469
474
470
471
475
472
467
465
472
484
485
474
470
478
487
488
475
467
463
457
449
444
445
447
453
459
464
468
474
473
477
488
492
489
497
520
545
574
603
629
651
673
705
731
751
771
783
793
785
769
772
787
799
803
792
771
750
722
695
680
674
662
644
624
609
597
581
563
543
508
469
434
409
401
408
418
425
434
443
448
446
441
448
454
455
460
467
472
474
473
468
468
469
471
469
465
463
455
453
452
450
453
452
449
445
444
445
451
451
449
451
453
456
458
445
438
444
454
463
459
453
449
444
444
455
464
462
457
453
451
451
450
449
448
444
443
444
452
460
465
467
471
470
465
460
455
459
465
471
472
473
475
471
461
459
459
456
463
477
484
478
469
475
479
483
484
480
483
474
464
466
469
477
482
483
487
487
485
482
481
482
488
483
484
491
496
503
504
499
495
493
494
493
492
491
495
502
502
498
500
502
502
503
505
515
523
520
514
511
512
519
525
523
520
519
525
527
527
532
536
537
537
536
527
517
518
527
541
556
554
544
536
537
540
548
553
552
550
545
542
546
549
547
548
553
561
572
585
586
574
562
561
566
570
571
570
574
574
572
573
573
574
576
580
573
564
565
569
580
586
589
579
573
574
575
577
578
572
569
566
564
564
561
561
555
548
545
549
553
550
547
545
543
546
541
533
529
533
536
531
515
508
511
523
524
519
503
496
501
492
475
464
454
456
470
476
475
468
465
461
460
455
447
448
454
462
461
457
440
425
422
419
424
427
427
431
435
430
423
424
418
418
417
415
412
405
406
407
405
411
413
413
416
420
423
421
413
400
403
417
415
405
402
410
417
421
417
412
410
407
406
411
414
416
421
425
424
425
425
417
415
416
423
428
428
425
418
423
427
428
430
434
434
432
439
444
435
431
432
434
438
436
433
429
428
434
435
435
438
439
437
433
435
437
436
440
443
442
440
438
441
447
449
454
456
452
446
438
435
434
435
446
468
467
457
452
452
454
464
465
464
464
465
467
463
458
456
449
450
456
462
464
458
453
458
464
474
472
470
473
476
479
479
471
464
463
464
464
460
461
467
473
477
473
468
469
474
473
473
478
480
480
481
484
480
474
472
471
469
471
472
472
470
464
466
470
471
471
471
470
462
460
466
477
485
486
483
479
473
469
468
471
475
477
480
479
475
476
477
480
480
481
482
481
486
491
495
495
488
479
468
464
466
470
467
464
467
473
474
475
479
480
485
495
493
470
458
464
472
477
481
483
473
473
479
488
490
488
483
483
484
483
488
486
479
480
480
475
473
474
481
491
481
468
466
476
481
485
484
483
483
477
472
475
477
479
474
474
481
486
488
485
483
483
486
478
476
474
472
472
478
484
487
488
487
482
483
484
479
480
479
481
482
483
479
471
467
472
481
485
482
476
479
480
480
479
479
477
477
476
474
476
480
480
478
483
480
477
483
484
481
473
476
483
488
492
488
482
482
494
492
488
489
488
484
482
485
493
503
502
493
490
492
487
477
476
476
481
484
488
490
487
477
482
490
478
465
464
474
480
481
479
479
479
483
484
480
480
484
492
485
480
487
487
489
492
491
484
466
465
472
477
490
493
488
487
484
477
474
470
474
478
487
487
487
486
489
490
493
492
491
492
492
483
476
480
486
485
488
497
501
497
490
486
482
481
486
488
488
491
494
492
490
482
478
478
480
480
472
474
484
493
493
498
502
497
489
485
484
485
487
494
503
501
493
484
484
491
495
495
496
494
483
473
473
480
485
485
480
483
488
487
486
486
484
479
476
475
480
490
490
494
487
490
494
489
485
486
483
481
485
487
494
491
489
481
484
490
489
484
482
487
495
502
498
488
487
494
502
506
507
506
499
492
492
482
476
474
473
474
476
474
480
488
490
484
481
486
487
486
490
493
496
495
489
483
488
497
502
501
501
503
497
501
498
500
513
511
504
504
509
513
512
509
510
517
514
502
506
508
511
516
521
520
513
509
511
507
507
514
515
511
509
521
530
517
515
516
512
505
504
508
510
511
508
505
510
514
511
510
513
514
519
515
515
510
506
508
509
519
521
522
519
517
511
501
490
489
488
494
496
497
493
485
476
469
469
476
472
465
465
471
468
457
453
452
464
477
478
473
468
470
481
478
470
464
467
478
486
485
477
478
479
485
489
485
480
476
477
476
473
469
467
467
469
466
466
471
473
471
473
475
485
485
468
460
466
470
468
472
478
479
473
473
478
479
468
464
471
469
463
462
460
462
465
478
486
478
479
487
505
524
543
563
588
612
636
657
681
704
732
761
790
803
801
784
771
769
781
795
802
789
772
744
710
671
654
644
642
629
613
597
579
560
538
502
474
445
426
412
409
418
425
435
446
450
445
442
441
446
449
452
452
452
461
468
476
474
477
473
465
476
484
480
474
475
469
449
448
451
448
447
450
451
449
453
457
451
442
443
448
453
458
464
461
458
460
463
461
453
452
450
450
450
458
462
466
466
459
457
457
457
457
463
468
465
465
462
459
467
478
472
461
457
464
469
466
465
476
479
474
470
473
477
474
468
470
468
474
482
487
485
481
472
466
465
472
483
492
496
500
502
496
489
487
485
493
504
508
504
500
502
500
496
494
495
496
492
488
485
486
492
500
509
506
498
499
496
499
501
505
506
505
504
507
511
520
522
523
524
521
533
535
536
532
528
520
513
524
538
544
544
542
540
537
538
547
555
553
553
554
551
552
557
557
565
568
561
557
559
560
553
548
549
554
562
574
585
588
579
571
571
570
568
568
577
579
574
576
576
576
573
573
576
570
570
571
570
569
570
572
574
575
569
562
563
559
553
550
547
545
545
548
552
548
544
544
543
540
538
538
541
537
531
526
523
519
518
519
513
508
505
501
491
487
494
502
494
483
482
491
493
478
473
471
465
454
452
450
449
444
440
439
436
435
435
434
428
427
431
429
428
427
428
435
432
422
416
409
407
412
416
429
433
429
422
407
401
402
404
402
397
398
408
425
432
420
415
423
426
412
399
393
395
399
400
406
415
416
426
426
419
415
412
419
414
408
412
418
421
426
429
427
428
430
432
432
430
430
432
434
435
435
435
436
441
437
432
431
437
442
457
462
449
433
427
432
435
431
432
438
444
445
445
448
452
452
448
451
453
451
450
447
441
438
446
456
462
465
473
469
466
461
455
455
456
453
456
460
461
460
460
460
460
459
459
462
455
450
452
461
468
464
461
466
470
472
475
484
490
492
484
471
465
459
453
452
454
455
453
456
465
474
479
475
478
481
474
465
461
466
467
465
466
463
465
472
484
487
489
497
496
483
469
466
473
479
476
473
467
463
462
467
476
476
471
468
466
471
473
475
485
491
493
489
484
482
482
481
489
489
477
462
459
465
469
470
468
466
467
473
482
479
476
488
499
492
485
480
480
482
485
479
470
461
470
478
477
472
473
476
477
473
470
467
463
467
477
478
471
471
473
464
474
480
481
477
473
477
488
489
487
483
479
483
492
484
480
481
481
476
468
467
477
472
472
478
482
475
469
477
491
485
473
474
479
479
475
476
477
472
471
473
478
478
482
485
480
473
470
463
456
456
459
460
463
474
488
497
499
496
497
493
483
480
486
486
482
480
474
470
467
475
483
481
477
472
470
468
468
467
468
475
483
490
482
478
480
483
486
485
485
486
482
491
499
499
496
487
483
479
482
477
469
472
473
468
468
476
480
486
489
494
495
491
478
477
485
483
477
480
480
483
491
493
482
477
479
479
477
481
487
484
476
470
467
475
482
487
491
488
476
475
484
489
489
490
485
477
478
477
478
482
479
477
472
473
477
487
492
492
493
492
487
477
481
484
472
466
467
472
474
474
475
483
489
479
472
479
486
485
480
478
478
482
487
491
488
491
498
498
489
485
490
497
499
497
489
482
482
479
470
471
480
487
484
482
480
478
477
481
484
482
485
490
499
497
483
479
481
486
485
475
476
477
472
473
476
482
488
497
504
505
511
514
505
490
484
482
489
500
509
505
501
502
507
515
515
505
505
508
511
509
506
505
510
517
515
515
511
509
508
504
509
514
523
535
537
532
524
515
503
495
488
487
485
483
490
493
509
514
514
512
512
518
517
513
515
519
516
510
508
508
510
511
507
505
508
504
491
494
503
505
498
492
491
487
486
486
487
488
487
478
469
464
460
462
464
466
467
465
463
467
470
474
477
478
478
473
471
475
474
471
469
469
466
470
473
471
472
472
474
478
474
469
462
461
468
479
483
488
490
484
471
466
468
468
471
474
477
477
478
479
479
474
468
465
462
464
462
460
460
454
453
452
455
448
447
445
444
450
459
468
481
491
495
488
493
517
549
577
598
613
637
670
702
734
762
789
800
782
759
754
761
772
787
799
791
770
742
713
687
663
647
639
637
630
618
602
571
544
516
486
459
439
426
412
409
419
428
427
433
438
440
444
441
436
433
449
463
469
463
463
465
468
473
476
478
478
479
468
449
439
444
451
449
447
446
443
443
447
450
451
455
457
458
460
463
462
462
462
457
446
440
446
455
450
447
449
452
452
460
470
468
464
462
463
457
453
458
460
457
448
453
460
462
468
462
457
457
454
452
456
461
466
461
462
462
462
469
478
487
488
486
474
469
471
470
469
474
483
485
482
482
486
486
489
497
495
494
493
492
495
492
486
482
481
481
481
489
492
492
492
490
486
486
487
491
494
500
504
500
501
509
511
512
516
520
517
520
521
518
521
522
513
509
509
520
525
523
528
533
526
525
526
522
520
525
531
535
539
543
541
547
540
538
542
553
558
558
559
556
549
542
546
560
565
569
566
558
557
561
571
578
575
564
569
578
585
587
581
574
577
583
574
556
548
554
556
558
562
568
569
570
577
572
564
568
568
567
559
559
565
570
565
563
564
567
564
556
556
554
549
546
548
548
545
542
542
540
536
528
521
519
513
507
505
507
506
506
503
499
497
489
483
479
477
474
473
468
463
463
460
458
452
443
440
439
438
433
427
427
426
428
431
433
432
434
436
433
425
427
424
427
417
413
418
413
406
405
411
411
410
415
411
405
408
409
411
414
411
413
416
415
416
410
400
397
408
411
408
416
423
427
430
428
415
410
416
427
444
455
456
451
440
427
418
412
407
410
419
426
427
424
427
432
434
429
423
427
432
432
428
427
429
431
438
441
444
442
438
443
448
450
453
452
447
439
435
437
444
452
456
456
461
459
456
450
442
443
446
450
453
450
454
462
462
462
461
456
454
450
445
451
456
456
455
461
462
463
456
452
455
467
473
475
474
474
475
477
474
473
472
471
473
476
481
472
457
453
456
465
469
464
471
472
467
459
454
459
472
479
476
471
465
462
461
465
464
455
457
463
471
479
483
478
471
467
474
479
477
473
479
485
485
486
480
475
479
480
473
466
471
479
482
482
480
479
482
478
483
499
499
487
471
457
456
466
473
472
469
467
462
462
465
470
476
479
481
480
484
483
479
484
485
476
475
474
467
457
457
470
478
483
489
488
487
481
476
470
472
477
479
465
450
448
459
471
479
490
488
489
489
487
481
469
472
481
476
473
480
483
486
488
483
481
479
474
470
466
462
463
466
468
479
487
488
487
488
488
484
478
469
457
454
464
473
483
482
481
483
482
480
483
485
481
476
482
488
486
482
475
469
470
476
480
486
485
481
488
491
485
481
478
474
472
475
478
474
474
470
468
472
478
481
481
474
473
476
476
477
477
483
489
488
488
499
508
502
492
491
484
473
470
474
465
457
458
469
474
471
468
460
459
468
487
497
496
497
496
493
493
490
481
476
475
477
476
474
483
489
486
487
492
485
480
478
473
468
473
490
500
505
504
499
497
488
482
475
472
477
488
495
497
487
476
470
464
465
473
479
479
479
483
479
467
471
484
492
498
488
476
478
482
481
481
481
483
481
475
468
470
474
479
480
479
479
480
478
479
485
490
488
485
491
494
496
498
496
489
477
472
471
476
479
476
482
485
489
491
489
494
501
491
482
481
482
485
484
485
488
489
494
504
498
496
496
486
479
475
475
484
487
487
485
489
496
501
505
504
503
497
491
491
500
502
508
511
508
502
509
518
524
522
518
506
501
511
522
521
514
512
515
512
508
505
508
507
513
521
518
509
493
488
496
510
511
505
503
509
515
521
523
523
519
517
517
524
530
527
513
502
500
500
499
498
504
512
503
483
471
470
466
460
464
474
477
476
465
459
459
467
470
469
477
481
481
473
457
450
459
472
482
482
479
470
461
460
464
467
466
464
464
463
461
467
471
480
483
480
481
480
479
474
474
476
473
466
461
461
459
463
469
479
484
489
481
469
469
470
468
462
456
454
464
471
472
468
457
460
457
449
447
446
446
445
448
455
464
480
491
495
507
518
532
554
584
619
646
666
691
723
750
770
782
785
779
770
774
777
784
788
789
776
757
736
714
690
677
658
641
623
608
590
566
542
524
497
468
441
423
412
409
415
425
431
438
443
448
450
449
446
448
453
460
464
472
478
480
470
464
466
468
453
446
450
463
469
464
455
446
443
446
450
452
456
460
464
465
458
453
448
439
440
441
438
439
444
448
454
447
445
448
452
457
460
455
447
442
444
449
454
463
477
473
450
440
440
444
